0,101.298
1.45033,98.9727
2.90065,96.6475
4.35098,94.3226
5.80131,91.9977
7.25163,89.6725
8.70196,186.521
10.1523,117.055
11.6026,98.4326
13.0529,80.7658
14.5033,70.3287
15.9536,67.2389
17.4039,67.3326
18.8542,62.1491
20.3046,53.4533
21.7549,48.5193
23.2052,48.7447
24.6555,34.3169
26.1059,40.1314
27.5562,36.3018
29.0065,26.9437
30.4569,26.3688
31.9072,23.4382
33.3575,21.8715
34.8078,15.8781
36.2582,5.30476
37.7085,-1.86807
39.1588,7.7326
40.6091,14.0345
42.0595,13.9342
43.5098,7.06873
44.9601,-2.53373
46.4104,5.33812
47.8608,6.97493
49.3111,9.41263
50.7614,35.6207
52.2117,72.1398
53.6621,154.966
55.1124,279.936
56.5627,444.72
58.0131,654.34
59.4634,886.046
60.9137,1045.97
62.364,1217.56
63.8144,1464.4
65.2647,1510.7
66.715,1571.94
68.1653,1621.51
69.6157,1669.97
71.066,1747.68
72.5163,1782.46
73.9666,1797.58
75.417,1796.28
76.8673,1796.97
78.3176,1850.64
79.7679,1888
81.2183,1886.58
82.6686,1897.49
84.1189,1954.93
85.5693,1975.74
87.0196,2032.16
88.4699,1982.59
89.9202,1883.58
91.3706,1854.45
92.8209,1771.05
94.2712,1689.06
95.7215,1634.68
97.1719,1586.28
98.6222,1472.95
100.073,1482.39
101.523,1449.69
102.973,1419.36
104.423,1415.69
105.874,1408.48
107.324,1400.72
108.774,1373.33
110.225,1352.39
111.675,1350.4
113.125,1267.44
114.576,1287.23
116.026,1283.65
117.476,1255.53
118.927,1241.02
120.377,1238.69
121.827,1219.02
123.278,1195.32
124.728,1163.75
126.178,1108.21
127.629,1080.1
129.079,1046.24
130.529,1021.19
131.98,1015.25
133.43,1034.96
134.88,985.684
136.331,960.623
137.781,938.901
139.231,917.114
140.682,962.577
142.132,968.853
143.582,945.727
145.033,901.708
146.483,853.776
147.933,858.809
149.384,860.682
150.834,866.445
152.284,895.333
153.735,957.738
155.185,952.343
156.635,889.53
158.086,831.361
159.536,783.843
160.986,733.257
162.437,753.041
163.887,755.919
165.337,735.662
166.788,709.779
168.238,713.338
169.688,742.396
171.139,745.812
172.589,732.416
174.039,701.126
175.489,640.925
176.94,657.342
178.39,641.411
179.84,624.348
181.291,627.424
182.741,658.334
184.191,628.064
185.642,632.3
187.092,626.027
188.542,599.191
189.993,612.284
191.443,575.216
192.893,585.637
194.344,597.089
195.794,574.143
197.244,520.039
198.695,582.518
200.145,577.42
201.595,560.388
203.046,563.965
204.496,510.439
205.946,527.947
207.397,542.048
208.847,544.75
210.297,536.044
211.748,517.052
213.198,485.598
214.648,505.518
216.099,532.86
217.549,530.591
218.999,515.909
220.45,468.477
221.9,478.16
223.35,515.188
224.801,534.458
226.251,486.996
227.701,502.277
229.152,514.83
230.602,514.505
232.052,499.257
233.503,469.052
234.953,493.578
236.403,489.113
237.854,478.991
239.304,482.71
240.754,482.865
242.204,466.872
243.655,476.36
245.105,484.683
246.555,475.887
248.006,468.603
249.456,458.973
250.906,430.137
252.357,414.688
253.807,426.285
255.257,441.35
256.708,419.972
258.158,411.856
259.608,418.033
261.059,421.688
262.509,384.56
263.959,426.913
265.41,418.63
266.86,412.731
268.31,408.613
269.761,348.975
271.211,406.372
272.661,391.739
274.112,360.739
275.562,342.325
277.012,342.987
278.463,340.662
279.913,347.776
281.363,351.736
282.814,349.117
284.264,344.332
285.714,371.291
287.165,349.464
288.615,340.377
290.065,335.799
291.516,312.373
292.966,299.447
294.416,284.345
295.867,311.925
297.317,315.898
298.767,260.852
300.218,292.808
301.668,276.86
303.118,285.137
304.569,287.739
306.019,269.184
307.469,265.61
308.919,251.213
310.37,236.857
311.82,223.884
313.27,217.647
314.721,227.797
316.171,236.099
317.621,222.554
319.072,225.7
320.522,229.92
321.972,193.49
323.423,178.027
324.873,188.632
326.323,198.841
327.774,193.699
329.224,172.127
330.674,177.315
332.125,177.475
333.575,188.157
335.025,185.765
336.476,169.195
337.926,201.331
339.376,184.314
340.827,163.706
342.277,154.254
343.727,162.755
345.178,185.999
346.628,129.737
348.078,137.591
349.529,143.962
350.979,136.196
352.429,128.729
353.88,120.128
355.33,114.241
356.78,94.8395
358.231,90.4429
359.681,115.054
361.131,115.241
362.582,123.124
364.032,121.639
365.482,126.773
366.933,133.635
368.383,112.235
369.833,108.651
371.284,99.5697
372.734,104.728
374.184,109.818
375.635,93.8647
377.085,100.349
378.535,94.0951
379.986,94.3139
381.436,81.0193
382.886,53.9584
384.336,69.8955
385.787,31.4615
387.237,48.4742
388.687,67.958
390.138,65.2735
391.588,52.2701
393.038,104.784
394.489,51.7213
395.939,44.1026
397.389,66.1713
398.84,63.9967
400.29,36.4384
401.74,49.6444
403.191,70.1092
404.641,64.4252
406.091,36.7364
407.542,29.744
408.992,16.6848
410.442,19.0697
411.893,35.4339
413.343,40.5982
414.793,17.0303
416.244,9.64991
417.694,19.183
419.144,6.22208
420.595,-16.6763
422.045,-27.2403
423.495,-3.41422
424.946,8.80889
426.396,5.10019
427.846,-7.5331
429.297,-10.6804
430.747,5.18054
432.197,-5.89298
433.648,-14.0131
435.098,-17.8705
436.548,-21.9295
437.999,-16.1523
439.449,17.7631
440.899,-21.1879
442.35,9.83331
443.8,23.7904
445.25,14.0556
446.701,-0.365203
448.151,-9.55392
449.601,-21.7644
451.051,14.0828
452.502,2.43619
453.952,-33.8776
455.402,6.67223
456.853,1.28707
458.303,33.3613
459.753,16.2152
461.204,3.17864
462.654,20.5999
464.104,-10.1413
465.555,2.89971
467.005,-3.03476
468.455,-8.70628
469.906,-3.06774
471.356,15.1758
472.806,30.1509
474.257,-18.9722
475.707,-11.9662
477.157,5.69459
478.608,7.68084
480.058,6.94964
481.508,0.282843
482.959,3.3915
484.409,-1.59656
485.859,-3.67089
487.31,11.9967
488.76,51.0396
490.21,-20.6137
491.661,9.75787
493.111,22.6241
494.561,5.57445
496.012,0.218259
497.462,30.5163
498.912,0.808267
500.363,-18.2509
501.813,-12.4087
503.263,2.4943
504.714,-2.48328
506.164,-3.42554
507.614,-36.6638
509.065,-12.152
510.515,18.2482
511.965,16.8401
513.416,2.49188
514.866,13.6974
516.316,-13.2039
517.766,-11.5218
519.217,0.136884
520.667,7.38782
522.117,53.9414
523.568,1.14578
525.018,-13.871
526.468,10.9125
527.919,16.3163
529.369,-26.8329
530.819,8.735
532.27,16.3716
533.72,3.11662
535.17,0.656251
536.621,2.4865
538.071,-6.2168
539.521,26.7817
540.972,5.14783
542.422,5.16879
543.872,16.5122
545.323,19.971
546.773,6.80133
548.223,22.5396
549.674,20.1301
551.124,-9.03529
552.574,-25.1953
554.025,-12.8446
555.475,10.3536
556.925,13.2576
558.376,10.9971
559.826,-6.96454
561.276,-6.93523
562.727,13.9754
564.177,20.177
565.627,5.54542
567.078,28.2969
568.528,26.5651
569.978,11.9806
571.429,9.90961
572.879,32.9928
574.329,3.65732
575.78,10.3172
577.23,5.71719
578.68,-2.32624
580.131,-4.92329
581.581,-5.567
583.031,6.94856
584.482,0.922484
585.932,-4.79183
587.382,-3.84109
588.832,10.1375
590.283,35.9614
591.733,-27.61
593.183,-21.0176
594.634,-8.99631
596.084,-4.6315
597.534,-10.1326
598.985,-21.0286
600.435,14.1064
601.885,5.64871
603.336,-19.89
604.786,-19.6341
606.236,0.747287
607.687,-7.06678
609.137,-23.5913
610.587,-40.1178
612.038,-16.2994
613.488,1.47793
614.938,0.548643
616.389,8.76669
617.839,41.3819
619.289,-7.62059
620.74,-16.5091
622.19,-9.16431
623.64,0.478929
625.091,11.1773
626.541,-3.45225
627.991,-17.4485
629.442,7.65423
630.892,-5.01557
632.342,-24.2447
633.793,2.29409
635.243,4.51556
636.693,-3.54138
638.144,-1.85305
639.594,-1.61836
641.044,-1.23963
642.495,0.461598
643.945,-5.60113
645.395,12.1931
646.846,15.2601
648.296,33.689
649.746,18.8914
651.197,-20.5135
652.647,7.61784
654.097,4.64998
655.547,-5.24342
656.998,7.60736
658.448,0.811504
659.898,-17.3608
661.349,-0.418695
662.799,6.36056
664.249,21.1188
665.7,-16.1309
667.15,-30.0035
668.6,-28.0282
670.051,-39.104
671.501,1.51157
672.951,21.964
674.402,49.8425
675.852,63.0893
677.302,39.6321
678.753,9.08745
680.203,54.3638
681.653,46.1681
683.104,-0.510396
684.554,-8.8549
686.004,-0.466263
687.455,5.05125
688.905,6.70957
690.355,-7.35171
691.806,-8.36172
693.256,-13.7499
694.706,-11.1079
696.157,-2.20906
697.607,11.5443
699.057,44.1233
700.508,26.7634
701.958,29.3683
703.408,14.6672
704.859,3.65033
706.309,3.35446
707.759,-6.32946
709.21,-7.35319
710.66,22.1114
712.11,13.5472
713.561,-6.68688
715.011,-7.0201
716.461,12.2759
717.912,-6.37555
719.362,-7.17332
720.812,-4.10348
722.263,-4.2272
723.713,0.938514
725.163,9.92933
726.613,8.01972
728.064,-6.52612
729.514,16.5838
730.964,5.00667
732.415,8.6843
733.865,25.397
735.315,26.3112
736.766,5.4147
738.216,15.772
739.666,-22.8526
741.117,-20.9398
742.567,-18.6225
744.017,-23.5539
745.468,-8.54289
746.918,-25.1041
748.368,-8.21796
749.819,-11.6989
751.269,6.75097
752.719,22.8348
754.17,11.4734
755.62,-12.9061
757.07,-42.6356
758.521,-0.940873
759.971,19.4965
761.421,13.6787
762.872,10.951
764.322,18.8258
765.772,-19.3095
767.223,2.93328
768.673,6.83884
770.123,-7.09065
771.574,-25.9294
773.024,-25.0965
774.474,1.64787
775.925,-9.69635
777.375,-29.6062
778.825,-18.4218
780.276,-41.7579
781.726,-36.55
783.176,-3.65095
784.627,-23.3488
786.077,-4.35705
787.527,-0.0160368
788.978,2.23059
790.428,-10.2896
791.878,-0.0147287
793.328,26.1574
794.779,-8.77884
796.229,-69.0138
797.68,-18.3039
799.13,-7.98296
800.58,-43.2774
802.03,-51.7961
803.481,-16.5694
804.931,-37.2364
806.381,-38.0343
807.832,-4.75748
809.282,-17.2182
810.732,-25.371
812.183,-24.6353
813.633,-18.5995
815.083,24.788
816.534,18.6949
817.984,22.8342
819.434,-3.43877
820.885,-16.6889
822.335,-10.8384
823.785,-11.6341
825.236,-36.1614
826.686,-17.7421
828.136,-17.3669
829.587,17.5454
831.037,30.8016
832.487,17.1009
833.938,8.17962
835.388,19.0572
836.838,3.66421
838.289,39.2085
839.739,-13.9045
841.189,-13.3726
842.64,16.3334
844.09,-3.70533
845.54,-31.8507
846.991,50.3709
848.441,12.9995
849.891,9.03192
851.342,-1.77668
852.792,-3.11876
854.242,15.3316
855.693,13.1093
857.143,41.5674
858.593,13.759
860.044,27.1242
861.494,22.6395
862.944,25.6416
864.394,32.5689
865.845,-8.55671
867.295,3.9586
868.745,-10.9674
870.196,12.3797
871.646,1.12173
873.096,-6.98371
874.547,10.206
875.997,10.6866
877.447,-62.0864
878.898,-8.22936
880.348,6.04181
881.798,-33.8918
883.249,-59.5892
884.699,-37.3931
886.149,-3.07312
887.6,-28.5204
889.05,-16.6251
890.5,-11.4258
891.951,6.6785
893.401,-8.07039
894.851,-29.0024
896.302,-20.6191
897.752,-6.3289
899.202,-31.8439
900.653,-3.72079
902.103,-5.21455
903.553,-27.597
905.004,-34.1438
906.454,-10.6557
907.904,18.7174
909.355,16.454
910.805,10.2988
912.255,18.2414
913.706,17.5142
915.156,17.6409
916.606,6.29304
918.057,-6.32683
919.507,29.4461
920.957,-16.9404
922.408,-16.0998
923.858,33.1551
925.308,53.359
926.759,25.8279
928.209,-5.65783
929.659,12.4357
931.109,55.1441
932.56,38.9058
934.01,28.0097
935.46,8.49478
936.911,18.2009
938.361,37.2833
939.811,14.7545
941.262,-46.3162
942.712,34.7853
944.162,0.119085
945.613,-40.9401
947.063,-35.6658
948.513,-10.3779
949.964,-11.4986
951.414,-32.5986
952.864,10.3419
954.315,-12.6372
955.765,20.4231
957.215,4.65345
958.666,9.92327
960.116,14.1235
961.566,-0.396281
963.017,-1.36346
964.467,6.96872
965.917,44.5796
967.368,24.7595
968.818,-1.80457
970.268,-15.4148
971.719,-26.5814
973.169,-32.4289
974.619,-8.13754
976.07,13.0847
977.52,1.50449
978.97,11.3947
980.421,32.0102
981.871,43.9678
983.321,25.7606
984.772,-5.98907
986.222,-3.32998
987.672,-39.2509
989.123,25.0954
990.573,-4.26443
992.023,-5.05907
993.474,7.33381
994.924,20.5017
996.374,45.4784
997.825,67.5267
999.275,4.50576
1000.73,26.6219
1002.18,13.2419
1003.63,9.34022
1005.08,7.34098
1006.53,22.0956
1007.98,53.4387
1009.43,47.4224
1010.88,29.0169
1012.33,46.7308
1013.78,61.4612
1015.23,45.9248
1016.68,58.9613
1018.13,84.8974
1019.58,86.9908
1021.03,83.2759
1022.48,21.7683
1023.93,60.3084
1025.38,65.4627
1026.83,84.507
1028.28,77.918
1029.73,49.1645
1031.18,59.0794
1032.63,133.085
1034.08,105.77
1035.53,54.7184
1036.98,95.0516
1038.43,90.2781
1039.88,100.516
1041.33,106.967
1042.78,100.821
1044.23,123.286
1045.69,141.503
1047.14,55.0198
1048.59,112.783
1050.04,172.187
1051.49,121.839
1052.94,108.214
1054.39,150.406
1055.84,160.176
1057.29,197.399
1058.74,123.746
1060.19,118.807
1061.64,173.402
1063.09,171.444
1064.54,174.973
1065.99,191.97
1067.44,179.141
1068.89,153.099
1070.34,233.068
1071.79,204.994
1073.24,238.716
1074.69,229.267
1076.14,214.886
1077.59,213.878
1079.04,227.511
1080.49,245.011
1081.94,234.96
1083.39,194.562
1084.84,272.496
1086.29,284.693
1087.74,300.742
1089.2,248.347
1090.65,216.607
1092.1,256.855
1093.55,254.45
1095,221.039
1096.45,251.696
1097.9,279.166
1099.35,266.86
1100.8,277.555
1102.25,285.899
1103.7,252.786
1105.15,220.454
1106.6,266.153
1108.05,228.496
1109.5,242.096
1110.95,243.343
1112.4,214.659
1113.85,212.428
1115.3,219.883
1116.75,225.343
1118.2,239.53
1119.65,246.162
1121.1,243.446
1122.55,256.364
1124,259.005
1125.45,224.983
1126.9,195.142
1128.35,190.34
1129.8,189.527
1131.25,179.218
1132.7,192.068
1134.16,166.529
1135.61,144.439
1137.06,153.699
1138.51,180.795
1139.96,176.853
1141.41,187.06
1142.86,212.262
1144.31,195.372
1145.76,157.053
1147.21,178.159
1148.66,119.515
1150.11,187.305
1151.56,203.846
1153.01,208.001
1154.46,205.399
1155.91,184.264
1157.36,160.761
1158.81,157
1160.26,125.907
1161.71,221.657
1163.16,178.631
1164.61,154.629
1166.06,176.264
1167.51,184.758
1168.96,173.309
1170.41,176.334
1171.86,183.693
1173.31,150.432
1174.76,183.439
1176.21,178.522
1177.66,158.336
1179.12,198.182
1180.57,186.991
1182.02,163.395
1183.47,191.274
1184.92,220.266
1186.37,217.598
1187.82,211.267
1189.27,206.323
1190.72,198.934
1192.17,195.449
1193.62,195.955
1195.07,193.155
1196.52,199.872
1197.97,199.947
1199.42,158.842
1200.87,208.264
1202.32,212.316
1203.77,195.328
1205.22,210.11
1206.67,181.283
1208.12,190.258
1209.57,244.068
1211.02,245.037
1212.47,181.182
1213.92,217.443
1215.37,230.361
1216.82,237.891
1218.27,191.404
1219.72,265.213
1221.17,309.681
1222.63,267.895
1224.08,222.428
1225.53,231.711
1226.98,249.522
1228.43,250.434
1229.88,277.556
1231.33,257.294
1232.78,270.805
1234.23,274.945
1235.68,293.868
1237.13,250.908
1238.58,230.068
1240.03,280.895
1241.48,283.534
1242.93,260.912
1244.38,256.759
1245.83,263.62
1247.28,292.451
1248.73,319.833
1250.18,347.63
1251.63,340.201
1253.08,321.772
1254.53,331.297
1255.98,359.753
1257.43,385.46
1258.88,367.386
1260.33,354.732
1261.78,382.517
1263.23,404.745
1264.68,410.134
1266.13,391.844
1267.59,395.548
1269.04,429.741
1270.49,458.676
1271.94,489.249
1273.39,493.794
1274.84,473.411
1276.29,483.802
1277.74,493.8
1279.19,537.841
1280.64,538.728
1282.09,567.857
1283.54,630.321
1284.99,658.282
1286.44,674.423
1287.89,715.57
1289.34,713.279
1290.79,771.971
1292.24,746.369
1293.69,796.123
1295.14,843.827
1296.59,840.732
1298.04,873.154
1299.49,976.576
1300.94,1044.45
1302.39,1035.6
1303.84,1168.61
1305.29,1188.84
1306.74,1259.82
1308.19,1357.24
1309.64,1417.41
1311.09,1451.55
1312.55,1516.96
1314,1655.57
1315.45,1816.25
1316.9,1912.96
1318.35,1973.9
1319.8,2071.41
1321.25,2100.11
1322.7,2397.62
1324.15,2442.12
1325.6,2585.17
1327.05,2712.19
1328.5,2818.17
1329.95,2909.34
1331.4,3004.4
1332.85,3106.61
1334.3,3128.9
1335.75,3245.36
1337.2,3222.76
1338.65,3155.98
1340.1,3157.8
1341.55,3052.62
1343,3072.65
1344.45,3032.93
1345.9,2893.79
1347.35,2821.45
1348.8,2813.7
1350.25,2676.74
1351.7,2493.48
1353.15,2363.8
1354.6,2193.09
1356.06,2143.54
1357.51,1995.53
1358.96,1849.77
1360.41,1758.51
1361.86,1684.79
1363.31,1598.53
1364.76,1466.59
1366.21,1314.94
1367.66,1312.48
1369.11,1241.01
1370.56,1231.73
1372.01,1096.22
1373.46,1074.67
1374.91,997.593
1376.36,932.823
1377.81,914.248
1379.26,890.529
1380.71,838.249
1382.16,817.05
1383.61,843.378
1385.06,788.712
1386.51,773.813
1387.96,760.278
1389.41,718.315
1390.86,722.749
1392.31,695.82
1393.76,691.78
1395.21,672.275
1396.66,655.614
1398.11,645.507
1399.56,609.746
1401.02,588.46
1402.47,615.135
1403.92,631.737
1405.37,642.298
1406.82,602.861
1408.27,597.039
1409.72,594.563
1411.17,579.708
1412.62,528.006
1414.07,531.296
1415.52,576.047
1416.97,582.697
1418.42,589.622
1419.87,612.819
1421.32,622.811
1422.77,574.359
1424.22,540.119
1425.67,567.681
1427.12,560.966
1428.57,572.331
1430.02,560.23
1431.47,582.87
1432.92,608.874
1434.37,625.399
1435.82,653.143
1437.27,624.425
1438.72,620.687
1440.17,512.668
1441.62,620.95
1443.07,635.252
1444.53,626.926
1445.98,621.909
1447.43,679.305
1448.88,725.961
1450.33,699.883
1451.78,684.589
1453.23,705.049
1454.68,697.063
1456.13,719.484
1457.58,774.562
1459.03,734.228
1460.48,752.719
1461.93,798.618
1463.38,747.689
1464.83,773.489
1466.28,816.336
1467.73,803.391
1469.18,796.092
1470.63,820.639
1472.08,834.765
1473.53,859.399
1474.98,928.432
1476.43,930.761
1477.88,952.312
1479.33,1044.62
1480.78,944.16
1482.23,1055.91
1483.68,1090.52
1485.13,1103.22
1486.58,1111.36
1488.03,1077.19
1489.49,1114.55
1490.94,1202.7
1492.39,1250.13
1493.84,1277.94
1495.29,1313.7
1496.74,1401.6
1498.19,1398.33
1499.64,1477.11
1501.09,1444.73
1502.54,1517.98
1503.99,1586.84
1505.44,1674.29
1506.89,1713.51
1508.34,1792.72
1509.79,1895.99
1511.24,2000.97
1512.69,2101.61
1514.14,2182.24
1515.59,2294.62
1517.04,2451.77
1518.49,2582.01
1519.94,2828.33
1521.39,2836.18
1522.84,3068.02
1524.29,3209.4
1525.74,3511.52
1527.19,3777.89
1528.64,4044.3
1530.09,4406.15
1531.54,4779.15
1532.99,5123.9
1534.45,5592.97
1535.9,6115.52
1537.35,6477.73
1538.8,7257.41
1540.25,8008.1
1541.7,8566.94
1543.15,9437.11
1544.6,10251
1546.05,11227.5
1547.5,12110
1548.95,13148.2
1550.4,14240.1
1551.85,15221.1
1553.3,16337.5
1554.75,17587.5
1556.2,18745.2
1557.65,19875.7
1559.1,21019.6
1560.55,22091.1
1562,23196.4
1563.45,23920.3
1564.9,24697.6
1566.35,25090.3
1567.8,27044.7
1569.25,25085
1570.7,24837
1572.15,24161.1
1573.6,23376
1575.05,22321.5
1576.5,20931.5
1577.96,19525
1579.41,18203.8
1580.86,16835.5
1582.31,15555.7
1583.76,14233.2
1585.21,13000.6
1586.66,11871.9
1588.11,10865.2
1589.56,10009.2
1591.01,9084.54
1592.46,8374.86
1593.91,7788.84
1595.36,7269.56
1596.81,6750.35
1598.26,6333.2
1599.71,5942.66
1601.16,5597.36
1602.61,5282.81
1604.06,4965.92
1605.51,4731.6
1606.96,4517.72
1608.41,4283.81
1609.86,4044.39
1611.31,3835
1612.76,3581.45
1614.21,3307.93
1615.66,3183
1617.11,2901.84
1618.56,2703.95
1620.01,2553.95
1621.46,2373.74
1622.92,2186.16
1624.37,2087.26
1625.82,1950.37
1627.27,1851.86
1628.72,1751.12
1630.17,1639.07
1631.62,1545.73
1633.07,1524.71
1634.52,1428.2
1635.97,1377.73
1637.42,1341.12
1638.87,1286.3
1640.32,1228.53
1641.77,1201.18
1643.22,1155.13
1644.67,1095.03
1646.12,1044.21
1647.57,1003.95
1649.02,978.91
1650.47,978.687
1651.92,925.183
1653.37,896.765
1654.82,837.919
1656.27,867.92
1657.72,829.129
1659.17,767.763
1660.62,794.079
1662.07,768.641
1663.52,713.628
1664.97,702.597
1666.42,705.364
1667.88,683.757
1669.33,641.185
1670.78,652.142
1672.23,661.5
1673.68,631.616
1675.13,621.732
1676.58,581.983
1678.03,545.131
1679.48,557.058
1680.93,548.133
1682.38,514.437
1683.83,562.911
1685.28,502.701
1686.73,486.85
1688.18,469.608
1689.63,500.484
1691.08,485.057
1692.53,477.248
1693.98,490.152
1695.43,461.298
1696.88,417.396
1698.33,443.289
1699.78,451.633
1701.23,416.515
1702.68,403.193
1704.13,412.097
1705.58,388.576
1707.03,413.179
1708.48,433.389
1709.93,401.437
1711.39,374.126
1712.84,411.971
1714.29,355.196
1715.74,386.913
1717.19,378.64
1718.64,398.81
1720.09,388.462
1721.54,363.639
1722.99,385.172
1724.44,408.356
1725.89,402.906
1727.34,396.862
1728.79,378.482
1730.24,353.254
1731.69,357.703
1733.14,341.466
1734.59,359.465
1736.04,394.262
1737.49,343.256
1738.94,364.511
1740.39,413.727
1741.84,363.336
1743.29,300.027
1744.74,233.288
1746.19,243.467
1747.64,244.166
1749.09,297.612
1750.54,318.844
1751.99,325.538
1753.44,328.855
1754.89,317.994
1756.35,300.966
1757.8,313.505
1759.25,303.009
1760.7,230.277
1762.15,226.826
1763.6,248.186
1765.05,256.63
1766.5,216.475
1767.95,267.767
1769.4,241.564
1770.85,242.896
1772.3,239.879
1773.75,210.912
1775.2,227.33
1776.65,226.966
1778.1,253.123
1779.55,176.758
1781,201.039
1782.45,193.72
1783.9,256.384
1785.35,270.683
1786.8,230.974
1788.25,214.034
1789.7,210.677
1791.15,208.138
1792.6,205.718
1794.05,204.483
1795.5,201.615
1796.95,198.232
1798.4,226.71
1799.85,170.928
1801.31,153.43
1802.76,172.049
1804.21,175.767
1805.66,136.57
1807.11,181.042
1808.56,160.905
1810.01,116.364
1811.46,181.451
1812.91,202.155
1814.36,173.864
1815.81,128.023
1817.26,145.227
1818.71,179.339
1820.16,168.083
1821.61,141.904
1823.06,118.556
1824.51,108.764
1825.96,106.857
1827.41,119.969
1828.86,156.708
1830.31,176.458
1831.76,161.786
1833.21,147.291
1834.66,136.29
1836.11,97.7958
1837.56,170.549
1839.01,181.764
1840.46,192.666
1841.91,166.063
1843.36,108.159
1844.82,174.911
1846.27,216.612
1847.72,227.806
1849.17,187.043
1850.62,200.948
1852.07,168.563
1853.52,167.975
1854.97,129.548
1856.42,145.497
1857.87,230.985
1859.32,235.373
1860.77,201.122
1862.22,177.617
1863.67,189.31
1865.12,186.823
1866.57,189.708
1868.02,177.606
1869.47,178.384
1870.92,221.938
1872.37,223.716
1873.82,211.111
1875.27,188.019
1876.72,174.479
1878.17,143.581
1879.62,162.773
1881.07,157.652
1882.52,151.617
1883.97,39.2976
1885.42,175.684
1886.87,145.11
1888.32,162.619
1889.78,99.5376
1891.23,106.995
1892.68,125.481
1894.13,124.953
1895.58,155.834
1897.03,93.4588
1898.48,106.83
1899.93,78.4492
1901.38,132.435
1902.83,105.992
1904.28,84.5663
1905.73,74.4331
1907.18,66.9569
1908.63,47.5448
1910.08,25.4517
1911.53,87.2396
1912.98,80.486
1914.43,38.9451
1915.88,67.5678
1917.33,74.3098
1918.78,68.4069
1920.23,94.6995
1921.68,94.4231
1923.13,76.1849
1924.58,81.1197
1926.03,81.3584
1927.48,64.3924
1928.93,84.979
1930.38,88.378
1931.83,51.0498
1933.29,86.0636
1934.74,51.8159
1936.19,79.5928
1937.64,28.0092
1939.09,22.933
1940.54,5.15773
1941.99,32.7529
1943.44,42.1119
1944.89,19.2053
1946.34,45.8419
1947.79,25.6566
1949.24,18.0054
1950.69,33.6123
1952.14,55.4659
1953.59,28.3528
1955.04,87.2431
1956.49,57.7822
1957.94,73.8522
1959.39,43.1358
1960.84,77.1903
1962.29,59.9448
1963.74,42.711
1965.19,29.9765
1966.64,64.8132
1968.09,96.7839
1969.54,39.1553
1970.99,14.6945
1972.44,35.9753
1973.89,72.5741
1975.34,91.3256
1976.79,100.718
1978.25,95.6591
1979.7,104.583
1981.15,125.375
1982.6,105.68
1984.05,88.1375
1985.5,91.5324
1986.95,73.5131
1988.4,89.8663
1989.85,107.264
1991.3,68.713
1992.75,106.619
1994.2,104.589
1995.65,67.5901
1997.1,80.8579
1998.55,105.882
2000,86.8303
2001.45,84.4739
2002.9,83.5099
2004.35,53.717
2005.8,83.3902
2007.25,77.9125
2008.7,64.7572
2010.15,100.734
2011.6,118.513
2013.05,88.5038
2014.5,103.84
2015.95,105.095
2017.4,57.2649
2018.85,52.8513
2020.3,23.6822
2021.75,115.947
2023.21,83.8058
2024.66,37.6138
2026.11,118.262
2027.56,34.6623
2029.01,38.8576
2030.46,13.2327
2031.91,84.1211
2033.36,34.2177
2034.81,63.5691
2036.26,40.917
2037.71,1.88765
2039.16,40.5868
2040.61,26.1879
2042.06,32.7105
2043.51,13.7641
2044.96,31.8393
2046.41,-14.6699
2047.86,26.6829
2049.31,16.0073
2050.76,-4.62473
2052.21,35.7626
2053.66,-53.491
2055.11,-10.6201
2056.56,-17.4366
2058.01,-5.6202
2059.46,4.34985
2060.91,-3.30292
2062.36,-9.48457
2063.81,-19.3068
2065.26,17.692
2066.72,-13.4826
2068.17,-38.2894
2069.62,5.25097
2071.07,23.5475
2072.52,18.7713
2073.97,1.5863
2075.42,-3.02326
2076.87,-33.4364
2078.32,-40.5123
2079.77,-29.7404
2081.22,-11.9383
2082.67,12.2527
2084.12,-5.90757
2085.57,-47.8126
2087.02,-31.2083
2088.47,-9.95929
2089.92,-13.1285
2091.37,-10.305
2092.82,-36.4328
2094.27,-10.9773
2095.72,37.5171
2097.17,-7.50023
2098.62,-44.3737
2100.07,-29.3217
2101.52,-23.9783
2102.97,-49.3463
2104.42,-56.2166
2105.87,-15.49
2107.32,-15.5186
2108.77,-43.2706
2110.22,-44.289
2111.68,-35.3582
2113.13,-21.7555
2114.58,-1.80783
2116.03,-23.0988
2117.48,-38.5655
2118.93,-15.4641
2120.38,17.966
2121.83,-5.5175
2123.28,-17.779
2124.73,-32.2372
2126.18,-34.4344
2127.63,-11.5863
2129.08,-18.8368
2130.53,-26.1959
2131.98,-47.4403
2133.43,-52.1613
2134.88,-28.4626
2136.33,-18.5648
2137.78,-14.5474
2139.23,5.62153
2140.68,15.4732
2142.13,13.9932
2143.58,18.0286
2145.03,13.8558
2146.48,13.3379
2147.93,13.3932
2149.38,11.6465
2150.83,24.7143
2152.28,22.399
2153.73,5.04633
2155.18,-20.9924
2156.64,2.94645
2158.09,-1.63811
2159.54,5.41776
2160.99,8.79572
2162.44,25.9782
2163.89,32.0477
2165.34,4.5197
2166.79,-5.81448
2168.24,52.0113
2169.69,49.8954
2171.14,50.2191
2172.59,26.5412
2174.04,20.7638
2175.49,7.60535
2176.94,30.3492
2178.39,57.6443
2179.84,32.0353
2181.29,46.6813
2182.74,28.3426
2184.19,30.9931
2185.64,26.841
2187.09,16.7651
2188.54,27.3617
2189.99,33.1885
2191.44,49.8874
2192.89,28.2859
2194.34,69.9166
2195.79,93.6833
2197.24,97.259
2198.69,89.3856
2200.15,69.8241
2201.6,85.8104
2203.05,81.6868
2204.5,65.524
2205.95,119.954
2207.4,111.447
2208.85,133.69
2210.3,94.155
2211.75,109.691
2213.2,110.33
2214.65,59.2996
2216.1,62.0199
2217.55,38.1193
2219,85.7523
2220.45,46.161
2221.9,138.109
2223.35,47.5918
2224.8,164.358
2226.25,147.657
2227.7,105.205
2229.15,111.786
2230.6,148.053
2232.05,103.37
2233.5,150.405
2234.95,107.738
2236.4,197.941
2237.85,153.011
2239.3,173.052
2240.75,116.373
2242.2,86.6798
2243.65,106.873
2245.11,90.766
2246.56,155.698
2248.01,121.491
2249.46,152.706
2250.91,138.394
2252.36,146.364
2253.81,157.521
2255.26,146.87
2256.71,160.797
2258.16,115.156
2259.61,109.124
2261.06,112.996
2262.51,146.034
2263.96,129.702
2265.41,129.358
2266.86,176.05
2268.31,168.402
2269.76,125.411
2271.21,149.44
2272.66,149.76
2274.11,137.538
2275.56,118.658
2277.01,135.957
2278.46,181.649
2279.91,189.643
2281.36,193.047
2282.81,171.587
2284.26,147.482
2285.71,149.38
2287.16,148.974
2288.61,154.3
2290.07,177.551
2291.52,210.875
2292.97,192.948
2294.42,215.009
2295.87,218.796
2297.32,215.89
2298.77,175.027
2300.22,191.765
2301.67,162.194
2303.12,217.056
2304.57,258.701
2306.02,220.536
2307.47,201.165
2308.92,216.344
2310.37,177.5
2311.82,256.795
2313.27,277.448
2314.72,157.407
2316.17,222.778
2317.62,237.289
2319.07,259.599
2320.52,282.289
2321.97,244.907
2323.42,255.058
2324.87,257.742
2326.32,258.598
2327.77,266.005
2329.22,279.593
2330.67,284.761
2332.12,236.683
2333.57,233.351
2335.03,274.93
2336.48,286.868
2337.93,297.091
2339.38,314.884
2340.83,314.599
2342.28,302.081
2343.73,275.608
2345.18,299.032
2346.63,354.373
2348.08,368.057
2349.53,383.126
2350.98,390.675
2352.43,400.467
2353.88,438.519
2355.33,412.706
2356.78,387.268
2358.23,365.423
2359.68,434.23
2361.13,437.152
2362.58,467.932
2364.03,468.826
2365.48,493.503
2366.93,523.072
2368.38,414.867
2369.83,432.014
2371.28,531.831
2372.73,494.901
2374.18,594.968
2375.63,569.014
2377.08,601.767
2378.54,568.145
2379.99,595.559
2381.44,593.691
2382.89,615.846
2384.34,689.619
2385.79,722.3
2387.24,677.481
2388.69,730.911
2390.14,783.011
2391.59,787.327
2393.04,808.474
2394.49,826.492
2395.94,871.667
2397.39,904.543
2398.84,1015.91
2400.29,1003.29
2401.74,980.091
2403.19,1047.31
2404.64,1094.77
2406.09,1024.86
2407.54,1143.65
2408.99,1159.68
2410.44,1199.05
2411.89,1248.09
2413.34,1280.94
2414.79,1217.88
2416.24,1275.4
2417.69,1318.04
2419.14,1365.44
2420.59,1423.41
2422.04,1458.67
2423.5,1417.4
2424.95,1462.47
2426.4,1499.35
2427.85,1498
2429.3,1480.19
2430.75,1465.69
2432.2,1420.96
2433.65,1405.59
2435.1,1471.05
2436.55,1485.37
2438,1450.81
2439.45,1414.73
2440.9,1401.98
2442.35,1475.48
2443.8,1481.22
2445.25,1341.3
2446.7,1367.52
2448.15,1397.31
2449.6,1358.29
2451.05,1365.49
2452.5,1391.95
2453.95,1365.45
2455.4,1330.66
2456.85,1282.39
2458.3,1297.37
2459.75,1258.98
2461.2,1242.88
2462.65,1258.51
2464.1,1236.27
2465.55,1230.12
2467.01,1223.29
2468.46,1214.85
2469.91,1207.86
2471.36,1185.84
2472.81,1164.83
2474.26,1206.27
2475.71,1129.37
2477.16,1093.04
2478.61,1121.71
2480.06,1113.34
2481.51,1159.09
2482.96,1130.47
2484.41,1110.66
2485.86,1077.88
2487.31,1043.14
2488.76,1123.71
2490.21,1177.4
2491.66,1142.38
2493.11,1117.06
2494.56,1124.34
2496.01,1093.29
2497.46,1112.1
2498.91,1119.1
2500.36,1158.63
2501.81,1095.13
2503.26,1135.71
2504.71,1145.13
2506.16,1119.8
2507.61,1155.71
2509.06,1171.81
2510.51,1123.05
2511.97,1139.73
2513.42,1176.91
2514.87,1133.42
2516.32,1121.49
2517.77,1204.02
2519.22,1184.32
2520.67,1179.72
2522.12,1217.94
2523.57,1155.38
2525.02,1210.63
2526.47,1288.7
2527.92,1297.77
2529.37,1309.85
2530.82,1376.08
2532.27,1351.82
2533.72,1425.29
2535.17,1372.34
2536.62,1406.17
2538.07,1391.44
2539.52,1446.75
2540.97,1482.59
2542.42,1480.09
2543.87,1544.23
2545.32,1514.9
2546.77,1560.18
2548.22,1584.16
2549.67,1634.9
2551.12,1669.04
2552.57,1655.27
2554.02,1718.68
2555.48,1775.64
2556.93,1857.81
2558.38,1924.58
2559.83,1882.76
2561.28,1883.69
2562.73,2019.05
2564.18,2096.94
2565.63,2097.76
2567.08,2209.92
2568.53,2134.37
2569.98,2308.65
2571.43,2374.03
2572.88,2441.83
2574.33,2577.29
2575.78,2652.24
2577.23,2731.12
2578.68,2785.8
2580.13,2805.63
2581.58,2917.07
2583.03,3027.26
2584.48,3221.21
2585.93,3292.82
2587.38,3398.24
2588.83,3536.34
2590.28,3568.34
2591.73,3819.76
2593.18,3973.41
2594.63,4012.4
2596.08,4160.55
2597.53,4343.26
2598.98,4518.25
2600.44,4699.2
2601.89,4860.25
2603.34,5093.57
2604.79,5307.79
2606.24,5515.34
2607.69,5792.72
2609.14,6079.65
2610.59,6277.46
2612.04,6575.03
2613.49,6667.34
2614.94,7017.13
2616.39,7470.12
2617.84,7704.16
2619.29,8039.07
2620.74,8317.38
2622.19,8724.55
2623.64,9236.71
2625.09,9513.76
2626.54,9824.34
2627.99,10355.1
2629.44,10694.2
2630.89,11153.3
2632.34,11685.2
2633.79,11835.2
2635.24,12339.4
2636.69,12957.1
2638.14,13314.6
2639.59,13827.2
2641.04,14273.5
2642.49,14651.9
2643.94,15007
2645.4,15356.6
2646.85,15768.5
2648.3,16158.5
2649.75,16459
2651.2,16912.7
2652.65,17331
2654.1,17585.8
2655.55,17611.5
2657,17793.2
2658.45,17875.3
2659.9,18044.8
2661.35,18165.2
2662.8,18195.4
2664.25,17979
2665.7,17882.6
2667.15,17855.6
2668.6,17784
2670.05,17456.2
2671.5,17324.9
2672.95,16987.6
2674.4,16787.1
2675.85,16501
2677.3,16109.3
2678.75,15467.3
2680.2,14901.9
2681.65,14612.1
2683.1,14175.1
2684.55,13710
2686,13270.1
2687.45,12769.1
2688.91,12220.9
2690.36,11837.7
2691.81,11404.4
2693.26,10831.4
2694.71,10613.5
2696.16,10052.1
2697.61,9715.42
2699.06,9255.79
2700.51,8879.75
2701.96,8448.1
2703.41,8086.47
2704.86,7657.72
2706.31,7241.74
2707.76,6985.81
2709.21,6583.19
2710.66,6330.57
2712.11,5974.81
2713.56,5725.51
2715.01,5361.25
2716.46,5181.53
2717.91,4970.56
2719.36,4783.08
2720.81,4516.92
2722.26,4307.65
2723.71,4184.69
2725.16,3991.96
2726.61,3778.26
2728.06,3573.23
2729.51,3503.67
2730.96,3388.56
2732.41,3232.59
2733.87,3124.2
2735.32,2960.29
2736.77,2763.43
2738.22,2769.19
2739.67,2623.86
2741.12,2527.9
2742.57,2415.19
2744.02,2368.19
2745.47,2339.11
2746.92,2167.43
2748.37,2166.34
2749.82,2072.92
2751.27,2034.92
2752.72,1906.55
2754.17,1880.54
2755.62,1795.55
2757.07,1749.7
2758.52,1776.62
2759.97,1727.6
2761.42,1668.5
2762.87,1572.02
2764.32,1595.73
2765.77,1532.05
2767.22,1537.9
2768.67,1307.65
2770.12,1381.56
2771.57,1333.42
2773.02,1274.57
2774.47,1288.83
2775.92,1253.49
2777.38,1249.8
2778.83,1255.06
2780.28,1190.15
2781.73,1180.04
2783.18,1212.59
2784.63,1074.7
2786.08,1114.3
2787.53,1103.72
2788.98,991.199
2790.43,971.694
2791.88,1025.59
2793.33,979.089
2794.78,972.08
2796.23,936.217
2797.68,918.845
2799.13,955.868
2800.58,926.463
2802.03,849.521
2803.48,902.543
2804.93,844.145
2806.38,809.973
2807.83,837.739
2809.28,811.55
2810.73,781.159
2812.18,806.563
2813.63,756.568
2815.08,783.311
2816.53,777.925
2817.98,746.499
2819.43,688.799
2820.88,720.996
2822.33,713.984
2823.79,675.87
2825.24,670.392
2826.69,722.767
2828.14,736.51
2829.59,677.778
2831.04,699.691
2832.49,660.894
2833.94,623.436
2835.39,605.563
2836.84,629.397
2838.29,647.696
2839.74,637.574
2841.19,548.312
2842.64,599.064
2844.09,576.032
2845.54,590.485
2846.99,566.593
2848.44,589.771
2849.89,552.167
2851.34,532.563
2852.79,584.107
2854.24,635.465
2855.69,597.154
2857.14,575.908
2858.59,636.016
2860.04,581.813
2861.49,578.134
2862.94,538.141
2864.39,548.309
2865.84,556.001
2867.3,557.296
2868.75,542.695
2870.2,571.867
2871.65,604.394
2873.1,570.454
2874.55,633.808
2876,590.634
2877.45,528.204
2878.9,570.754
2880.35,575.763
2881.8,553.395
2883.25,602.666
2884.7,613.787
2886.15,612.723
2887.6,635.635
2889.05,606.682
2890.5,622.682
2891.95,612.736
2893.4,590.943
2894.85,610.813
2896.3,635.094
2897.75,626.769
2899.2,606.463
2900.65,610.887
2902.1,608.63
2903.55,620.83
2905,616.461
2906.45,633.58
2907.9,602.391
2909.35,579.562
2910.8,559.26
2912.26,595.07
2913.71,556.118
2915.16,559.009
2916.61,564.175
2918.06,571.638
2919.51,572.226
2920.96,558.143
2922.41,575.809
2923.86,572.928
2925.31,550.099
2926.76,488.643
2928.21,509.812
2929.66,503.196
2931.11,516.7
2932.56,496.335
2934.01,419.879
2935.46,471.247
2936.91,431.096
2938.36,408.4
2939.81,413.832
2941.26,428.474
2942.71,387.398
2944.16,407.457
2945.61,381.629
2947.06,383.02
2948.51,338.402
2949.96,310.042
2951.41,314.884
2952.86,308.29
2954.31,335.684
2955.77,303.139
2957.22,325.544
2958.67,269.933
2960.12,298.18
2961.57,247.242
2963.02,255.61
2964.47,259.691
2965.92,233.3
2967.37,191.327
2968.82,188.607
2970.27,241.682
2971.72,230.271
2973.17,207.236
2974.62,188.632
2976.07,159.43
2977.52,140.097
2978.97,127.311
2980.42,120.79
2981.87,90.7957
2983.32,102.412
2984.77,149.57
2986.22,105.719
2987.67,71.5678
2989.12,100.191
2990.57,108.482
2992.02,91.9294
2993.47,56.6179
2994.92,71.5168
2996.37,117.082
2997.82,48.6117
2999.27,48.873
3000.73,151.099
3002.18,110.363
3003.63,77.0969
3005.08,111.548
3006.53,88.4052
3007.98,48.2445
3009.43,42.3472
3010.88,50.8065
3012.33,8.59535
3013.78,33.7753
3015.23,52.9026
3016.68,23.0546
3018.13,26.375
3019.58,16.1109
3021.03,20.6466
3022.48,18.2084
3023.93,-10.0153
3025.38,3.26762
3026.83,52.9125
3028.28,-10.5473
3029.73,0.836162
3031.18,23.8945
3032.63,60.6215
3034.08,7.94048
3035.53,12.9017
3036.98,-23.4883
3038.43,-9.12313
3039.88,19.3302
3041.33,10.1687
3042.78,-15.6567
3044.23,3.09851
3045.69,32.1484
3047.14,-29.2784
3048.59,10.5798
3050.04,22.2565
3051.49,22.0615
3052.94,-19.2037
3054.39,41.752
3055.84,15.1703
3057.29,-4.49849
3058.74,2.70988
3060.19,22.5334
3061.64,3.88521
3063.09,25.5568
3064.54,48.7462
3065.99,41.2298
3067.44,69.4649
3068.89,39.7369
3070.34,83.6048
3071.79,86.174
3073.24,82.924
3074.69,11.5072
3076.14,60.467
3077.59,97.3184
3079.04,79.8015
3080.49,51.4078
3081.94,89.2987
3083.39,119.492
3084.84,79.1195
3086.29,92.7687
3087.74,57.3886
3089.2,82.4371
3090.65,118.335
3092.1,87.6901
3093.55,135.772
3095,208.053
3096.45,145.069
3097.9,193.185
3099.35,201.539
3100.8,181.863
3102.25,173.304
3103.7,213.18
3105.15,265.76
3106.6,232.926
3108.05,250.324
3109.5,260.735
3110.95,312.324
3112.4,332.407
3113.85,310.979
3115.3,259.695
3116.75,378.213
3118.2,387.296
3119.65,366.854
3121.1,390.082
3122.55,376.958
3124,385.723
3125.45,459.941
3126.9,532.458
3128.35,487.784
3129.8,504.942
3131.25,457.739
3132.7,493.163
3134.16,554.672
3135.61,560.938
3137.06,601.971
3138.51,592.031
3139.96,505.734
3141.41,533.333
3142.86,567.913
3144.31,589.836
3145.76,571.008
3147.21,589.907
3148.66,653.573
3150.11,641.711
3151.56,616.699
3153.01,615.83
3154.46,595.215
3155.91,634.844
3157.36,607.019
3158.81,643.766
3160.26,653.218
3161.71,705.819
3163.16,668.84
3164.61,662.882
3166.06,695.279
3167.51,606.172
3168.96,713.4
3170.41,706.889
3171.86,696.751
3173.31,651.768
3174.76,671.842
3176.21,708.79
3177.67,728.273
3179.12,739.116
3180.57,799.041
3182.02,824.235
3183.47,798.179
3184.92,817.668
3186.37,834.981
3187.82,856.434
3189.27,836.302
3190.72,913.089
3192.17,901.786
3193.62,970.658
3195.07,1019.24
3196.52,1024.92
3197.97,1022.8
3199.42,1052.09
3200.87,1073.13
3202.32,1107.06
3203.77,1095.55
3205.22,1087.12
3206.67,1066.41
3208.12,1079.04
3209.57,1077.6
3211.02,1075.86
3212.47,985.269
3213.92,1003.08
3215.37,968.63
3216.82,1000.31
3218.27,948.058
3219.72,1004.61
3221.17,938.916
3222.63,868.68
3224.08,829.738
3225.53,778.305
3226.98,709.625
3228.43,705.59
3229.88,665.51
3231.33,616.538
3232.78,552.078
3234.23,539.284
3235.68,501.143
3237.13,464.482
3238.58,410.258
3240.03,378.862
3241.48,322.74
3242.93,323.216
3244.38,259.495
3245.83,227.65
3247.28,200.743
3248.73,242.342
3250.18,187.325
3251.63,188.915
3253.08,182.104
3254.53,94.591
3255.98,117.637
3257.43,45.7504
3258.88,78.801
3260.33,91.8848
3261.78,91.661
3263.23,70.7847
3264.68,30.6567
3266.13,64.2369
3267.59,-7.8362
3269.04,31.7997
3270.49,39.8741
3271.94,15.6202
3273.39,-35.1081
3274.84,2.45759
3276.29,-23.0968
3277.74,-36.5206
3279.19,-6.772
3280.64,-13.4243
3282.09,4.34249
3283.54,3.20662
3284.99,-25.4902
3286.44,11.7091
3287.89,24.9368
3289.34,-24.8981
3290.79,-24.486
3292.24,-1.53388
3293.69,-16.5292
3295.14,-70.107
3296.59,14.3663
3298.04,-4.59471
3299.49,31.1131
3300.94,18.0656
3302.39,-4.65524
3303.84,-18.8478
3305.29,-17.801
3306.74,-49.8336
3308.19,-31.3013
3309.64,-19.3322
3311.09,-51.482
3312.55,-69.0818
3314,-44.8832
3315.45,-76.9711
3316.9,-51.9056
3318.35,-39.0107
3319.8,-11.0437
3321.25,-66.9529
3322.7,-44.7735
3324.15,-27.3695
3325.6,-49.7383
3327.05,-82.4365
3328.5,-74.8341
3329.95,-41.4552
3331.4,-36.5973
3332.85,-59.2702
3334.3,-44.0312
3335.75,-45.5686
3337.2,-6.35849
3338.65,-53.2486
3340.1,-50.0027
3341.55,-23.6541
3343,-27.2232
3344.45,-37.4803
3345.9,-51.3649
3347.35,-75.1989
3348.8,-60.5408
3350.25,-14.1191
3351.7,-28.9572
3353.15,-51.6202
3354.6,-62.7746
3356.06,-29.9842
3357.51,-28.2942
3358.96,-41.8142
3360.41,-15.4692
3361.86,15.941
3363.31,-20.2003
3364.76,-12.5759
3366.21,-62.4141
3367.66,-9.34208
3369.11,-0.239816
3370.56,-11.4441
3372.01,3.67769
3373.46,-34.1763
3374.91,-7.67392
3376.36,-14.2253
3377.81,-40.7061
3379.26,-11.6055
3380.71,23.6277
3382.16,-30.8068
3383.61,-16.6175
3385.06,-42.3444
3386.51,-40.3345
3387.96,-32.7185
3389.41,-88.1177
3390.86,-11.6389
3392.31,14.2303
3393.76,-9.08661
3395.21,-21.2489
3396.66,-64.0356
3398.11,-31.2172
3399.56,-9.80956
3401.02,-1.88588
3402.47,7.45151
3403.92,9.22917
3405.37,-18.932
3406.82,-38.205
3408.27,-52.3978
3409.72,-48.8687
3411.17,-24.2187
3412.62,-21.3504
3414.07,2.07154
3415.52,-29.2272
3416.97,48.8504
3418.42,17.0182
3419.87,7.26496
3421.32,61.0856
3422.77,-26.7105
3424.22,-46.6195
3425.67,-4.68943
3427.12,-7.67927
3428.57,-27.7022
3430.02,16.5576
3431.47,45.2174
3432.92,9.69091
3434.37,-4.70078
3435.82,-34.9816
3437.27,11.068
3438.72,-18.9953
3440.17,12.2692
3441.62,23.1007
3443.07,-17.4505
3444.52,-13.9469
3445.98,-14.7686
3447.43,7.80791
3448.88,2.11414
3450.33,10.3102
3451.78,-7.87256
3453.23,-10.4151
3454.68,63.4257
3456.13,15.1643
3457.58,9.43034
3459.03,6.92639
3460.48,16.8813
3461.93,-18.0291
3463.38,-58.8816
3464.83,-31.9051
3466.28,-15.5771
3467.73,14.4267
3469.18,7.42025
3470.63,-16.486
3472.08,-13.7006
3473.53,-18.8285
3474.98,-19.8572
3476.43,7.28836
3477.88,53.7395
3479.33,34.6428
3480.78,-25.0657
3482.23,-32.2477
3483.68,-31.336
3485.13,42.7685
3486.58,20.904
3488.03,-11.3445
3489.49,-15.4751
3490.94,-30.2182
3492.39,-13.3973
3493.84,11.8875
3495.29,3.57706
3496.74,32.2548
3498.19,26.5531
3499.64,-18.3826
3501.09,-37.0144
3502.54,-43.5643
3503.99,-18.2719
3505.44,13.8525
3506.89,-31.1616
3508.34,2.97792
3509.79,-13.0987
3511.24,19.4698
3512.69,51.4715
3514.14,22.3609
3515.59,-31.6133
3517.04,-6.10568
3518.49,-31.0361
3519.94,-69.5218
3521.39,-47.7353
3522.84,-13.8083
3524.29,-7.24381
3525.74,-8.74134
3527.19,-17.7308
3528.64,-39.2651
3530.09,-17.7446
3531.54,-22.9736
3532.99,-29.2724
3534.45,8.663
3535.9,-13.2185
3537.35,64.8849
3538.8,-18.5045
3540.25,-22.3385
3541.7,-20.126
3543.15,-26.627
3544.6,-29.9257
3546.05,-10.3108
3547.5,-26.7617
3548.95,-15.3873
3550.4,-37.4698
3551.85,-15.1976
3553.3,-20.9256
3554.75,-55.0028
3556.2,6.45396
3557.65,-48.0883
3559.1,-47.3392
3560.55,-3.37029
3562,-16.9317
3563.45,28.5274
3564.9,12.7749
3566.35,-37.9561
3567.8,-20.6094
3569.25,32.0844
3570.7,-15.6998
3572.15,-48.6844
3573.6,-78.7914
3575.05,-22.2613
3576.5,5.46272
3577.96,12.8595
3579.41,-3.82937
3580.86,-48.8019
3582.31,-31.3737
3583.76,-47.6017
3585.21,-29.2503
3586.66,0.503755
3588.11,19.0864
3589.56,-42.8851
3591.01,-53.0399
3592.46,-46.2788
3593.91,-53.529
3595.36,-85.4289
3596.81,-85.5247
3598.26,-28.3603
3599.71,-59.8595
3601.16,-38.5695
3602.61,-23.227
3604.06,-29.3699
3605.51,-28.5751
3606.96,-44.1187
3608.41,-13.7631
3609.86,-61.3141
3611.31,-37.8006
3612.76,-22.274
3614.21,-37.2784
3615.66,-14.1112
3617.11,-37.3028
3618.56,-34.414
3620.01,-21.8407
3621.46,-8.86
3622.92,-23.3842
3624.37,-2.12464
3625.82,35.2296
3627.27,-48.6859
3628.72,-14.5854
3630.17,-3.5117
3631.62,1.13629
3633.07,-37.4435
3634.52,-45.5362
3635.97,-47.1893
3637.42,-18.3879
3638.87,-22.4382
3640.32,-3.8964
3641.77,-10.4243
3643.22,-2.87899
3644.67,-36.2235
3646.12,-21.4263
3647.57,-18.841
3649.02,-35.3597
3650.47,-31.4256
3651.92,-33.9172
3653.37,11.16
3654.82,-41.9997
3656.27,-15.6062
3657.72,-15.5039
3659.17,3.54219
3660.62,-44.4
3662.07,4.13331
3663.52,-2.88584
3664.97,-23.2816
3666.43,-38.725
3667.88,-19.0758
3669.33,-30.5572
3670.78,-3.29121
3672.23,-24.0894
3673.68,8.70872
3675.13,11.9736
3676.58,-27.6223
3678.03,-34.4514
3679.48,-26.0947
3680.93,-7.19911
3682.38,8.19981
3683.83,20.393
3685.28,-6.96974
3686.73,-9.79024
3688.18,-54.5542
3689.63,-43.2122
3691.08,-26.4916
3692.53,-47.2239
3693.98,8.69141
3695.43,-35.9116
3696.88,-5.8445
3698.33,-10.0142
3699.78,6.98557
3701.23,-41.8117
3702.68,53.3061
3704.13,-7.91921
3705.58,-10.7227
3707.03,-47.696
3708.48,-8.14082
3709.93,-7.54475
3711.39,-16.1687
3712.84,-34.8567
3714.29,8.2131
3715.74,-27.961
3717.19,5.84923
3718.64,-21.5285
3720.09,-17.4009
3721.54,-4.50149
3722.99,-45.5383
3724.44,-62.8407
3725.89,-21.3876
3727.34,15.7004
3728.79,-7.46514
3730.24,-10.2923
3731.69,1.75273
3733.14,-45.1324
3734.59,-35.7097
3736.04,-3.81945
3737.49,13.3391
3738.94,-27.5321
3740.39,-18.117
3741.84,20.1745
3743.29,10.8565
3744.74,-9.83594
3746.19,-25.5515
3747.64,22.9967
3749.09,12.6126
3750.54,2.81904
3751.99,-7.71
3753.44,9.27041
3754.89,2.77829
3756.35,-15.195
3757.8,14.8429
3759.25,-9.52609
3760.7,9.28837
3762.15,58.3279
3763.6,4.90276
3765.05,16.3155
3766.5,-9.16357
3767.95,30.3767
3769.4,-6.31496
3770.85,0.481007
3772.3,51.3448
3773.75,8.91617
3775.2,-3.56037
3776.65,-0.540917
3778.1,29.9879
3779.55,-9.75101
3781,-7.79913
3782.45,-11.1177
3783.9,13.9827
3785.35,28.6099
3786.8,17.1262
3788.25,24.2979
3789.7,-12.2043
3791.15,19.9467
3792.6,-46.7994
3794.05,39.6605
3795.5,35.1838
3796.95,18.8594
3798.4,8.06915
3799.85,10.2323
3801.31,44.4532
3802.76,17.0633
3804.21,-22.9459
3805.66,46.1771
3807.11,12.3682
3808.56,1.74496
3810.01,23.1398
3811.46,21.8472
3812.91,-2.8892
3814.36,2.35122
3815.81,53.9179
3817.26,47.8599
3818.71,26.2597
3820.16,18.4011
3821.61,22.9036
3823.06,31.3972
3824.51,38.9077
3825.96,45.4645
3827.41,24.2069
3828.86,72.8453
3830.31,24.3536
3831.76,14.4748
3833.21,55.2124
3834.66,26.8149
3836.11,18.8875
3837.56,-37.3591
3839.01,51.5494
3840.46,6.37685
3841.91,26.9342
3843.36,-6.41775
3844.82,0.373106
3846.27,56.1486
3847.72,85.2001
3849.17,64.505
3850.62,38.077
3852.07,39.045
3853.52,48.1483
3854.97,24.6403
3856.42,57.3493
3857.87,11.4811
3859.32,25.7397
3860.77,45.483
3862.22,4.66952
3863.67,29.2281
3865.12,30.8883
3866.57,36.9726
3868.02,8.07926
3869.47,77.8117
3870.92,18.5869
3872.37,81.505
3873.82,-11.7417
3875.27,25.938
3876.72,30.8659
3878.17,71.689
3879.62,23.5648
3881.07,76.7408
3882.52,86.6816
3883.97,70.8026
3885.42,26.32
3886.87,36.8051
3888.32,66.1488
3889.78,41.0351
3891.23,90.0339
3892.68,72.1243
3894.13,110.875
3895.58,137.352
3897.03,73.3174
3898.48,81.825
3899.93,107.962
3901.38,83.4478
3902.83,70.7315
3904.28,104.843
3905.73,62.6518
3907.18,64.8376
3908.63,76.3144
3910.08,73.2175
3911.53,43.2947
3912.98,153.763
3914.43,119.406
3915.88,125.162
3917.33,113.247
3918.78,102.938
3920.23,129.21
3921.68,121.753
3923.13,131.299
3924.58,86.6287
3926.03,92.7347
3927.48,125.915
3928.93,135.605
3930.38,138.593
3931.83,160.142
3933.28,109.167
3934.74,66.3599
3936.19,128.444
3937.64,205.426
3939.09,167.104
3940.54,147.89
3941.99,135.334
3943.44,153.569
3944.89,143.187
3946.34,153.398
3947.79,135.527
3949.24,136.314
3950.69,173.898
3952.14,155.172
3953.59,165.08
3955.04,189.816
3956.49,148.715
3957.94,157.154
3959.39,150.626
3960.84,165.947
3962.29,134.643
3963.74,181.641
3965.19,185.762
3966.64,217.406
3968.09,204.481
3969.54,196.496
3970.99,173.087
3972.44,221.395
3973.89,197.755
3975.34,190.491
3976.79,173.458
3978.25,216.175
3979.7,232.692
3981.15,200.863
3982.6,193.51
3984.05,228.752
3985.5,248.019
3986.95,215.124
3988.4,234.73
3989.85,245.706
3991.3,243.762
3992.75,254.243
3994.2,264.955
3995.65,215.156
3997.1,244.917
3998.55,237.846
4000,248.956
