-20,52.1948
-18.5482,64.5114
-17.0964,72.3501
-15.6446,64.2917
-14.1928,96.1602
-12.7411,106.942
-11.2893,112.617
-9.83749,133.311
-8.3857,172.498
-6.93391,260.817
-5.48212,147.718
-4.03034,147.718
-2.57855,147.718
-1.12676,147.718
0.325027,147.718
1.77681,147.718
3.2286,147.718
4.68039,147.718
6.13218,147.718
7.58397,426.395
9.03575,188.839
10.4875,168.576
11.9393,148.553
13.3911,129.03
14.8429,113.628
16.2947,109.24
17.7465,94.9638
19.1983,86.0331
20.6501,74.4393
22.1018,63.8895
23.5536,55.7092
25.0054,36.2245
26.4572,21.4063
27.909,11.8469
29.3608,5.25491
30.8126,-2.93934
32.2644,-8.03353
33.7161,-3.75144
35.1679,-6.41383
36.6197,-16.6892
38.0715,-10.927
39.5233,-19.0309
40.9751,-17.3325
42.4269,-8.40575
43.8787,-9.40862
45.3304,4.01265
46.7822,14.6116
48.234,40.6912
49.6858,99.434
51.1376,205.938
52.5894,409.379
54.0412,710.015
55.493,1060.02
56.9447,1447.62
58.3965,1823.04
59.8483,2119.76
61.3001,2351.89
62.7519,2527.61
64.2037,2668.37
65.6555,2773.98
67.1073,2866.22
68.559,2934.63
70.0108,2976.33
71.4626,3010.78
72.9144,3019.54
74.3662,3104.32
75.818,3155.74
77.2698,3174.59
78.7216,3257.98
80.1733,3341.56
81.6251,3410.87
83.0769,3481.97
84.5287,3573.78
85.9805,3530.87
87.4323,3408.21
88.8841,3267.96
90.3359,3138.84
91.7877,3016.51
93.2394,2781.34
94.6912,2658.43
96.143,2519.69
97.5948,2449.5
99.0466,2489.17
100.498,2370.41
101.95,2322.71
103.402,2281.15
104.854,2225.52
106.306,2193.39
107.757,2166
109.209,2163.18
110.661,2128.18
112.113,2059.8
113.564,2012.24
115.016,1994.91
116.468,2013.46
117.92,1987.5
119.372,1904.33
120.823,1873.71
122.275,1840.18
123.727,1778.81
125.179,1727.97
126.631,1698.01
128.082,1615.04
129.534,1620.42
130.986,1615.5
132.438,1598.03
133.889,1585.77
135.341,1552.09
136.793,1522.89
138.245,1515.88
139.697,1501.84
141.148,1483.42
142.6,1435.64
144.052,1387.93
145.504,1359.15
146.956,1340.48
148.407,1332.82
149.859,1331.74
151.311,1304.67
152.763,1286.68
154.215,1275.39
155.666,1263.3
157.118,1297.83
158.57,1292.7
160.022,1293.09
161.473,1302.4
162.925,1289.39
164.377,1277.63
165.829,1277.38
167.281,1290.37
168.732,1276.52
170.184,1245.09
171.636,1197.71
173.088,1145.98
174.54,1124.24
175.991,1123.45
177.443,1080.91
178.895,1087.35
180.347,1071.36
181.798,1060.05
183.25,1053.4
184.702,1029.51
186.154,1017.69
187.606,1015.4
189.057,1027.67
190.509,1042.63
191.961,1013.51
193.413,1007.3
194.865,990.462
196.316,976.769
197.768,999.206
199.22,983.159
200.672,970.614
202.124,962.516
203.575,949.273
205.027,947.049
206.479,947.958
207.931,960.647
209.382,945.739
210.834,938.562
212.286,953.084
213.738,977.175
215.19,982.389
216.641,974.995
218.093,960.858
219.545,953.257
220.997,934.325
222.449,925.004
223.9,948.909
225.352,948.702
226.804,929.701
228.256,929.859
229.707,962.203
231.159,966.529
232.611,963.516
234.063,948.432
235.515,962.096
236.966,943.527
238.418,943.619
239.87,933.348
241.322,915.438
242.774,931.006
244.225,890.963
245.677,910.509
247.129,930.055
248.581,928.781
250.033,927.076
251.484,873.616
252.936,895.609
254.388,888.087
255.84,878.837
257.291,914.986
258.743,901.631
260.195,907.475
261.647,887.335
263.099,859.601
264.55,866.777
266.002,880.787
267.454,880.43
268.906,883.749
270.358,876.213
271.809,856.002
273.261,872.798
274.713,854.547
276.165,828.897
277.616,810.051
279.068,809.066
280.52,815.422
281.972,818.926
283.424,814.251
284.875,805.109
286.327,785.274
287.779,774.127
289.231,773.846
290.683,794.07
292.134,789.007
293.586,761.863
295.038,739.134
296.49,783.143
297.941,785.765
299.393,758.233
300.845,739.324
302.297,747.564
303.749,716.157
305.2,718.387
306.652,707.224
308.104,699.24
309.556,706.088
311.008,703.437
312.459,706.614
313.911,713.926
315.363,707.312
316.815,689.44
318.267,660.454
319.718,665.237
321.17,679.623
322.622,670.508
324.074,665.22
325.525,680.566
326.977,676.522
328.429,662.898
329.881,665.396
331.333,683.338
332.784,702.426
334.236,702.663
335.688,673.605
337.14,655.573
338.592,647.846
340.043,644.483
341.495,662.712
342.947,636.282
344.399,632.789
345.85,644.236
347.302,648.641
348.754,635.858
350.206,632.757
351.658,655.033
353.109,651.003
354.561,642.856
356.013,653.526
357.465,651.541
358.917,657.769
360.368,646.446
361.82,632.056
363.272,619.745
364.724,596.026
366.176,607.896
367.627,617.001
369.079,620.665
370.531,624.793
371.983,632.234
373.434,634.541
374.886,626.417
376.338,616.438
377.79,618.826
379.242,629.43
380.693,621.917
382.145,646.586
383.597,629.511
385.049,602.637
386.501,593.71
387.952,603.219
389.404,608.039
390.856,585.429
392.308,594.177
393.759,618.887
395.211,626.846
396.663,619.434
398.115,587.251
399.567,608.713
401.018,637.324
402.47,628.749
403.922,584.28
405.374,609.834
406.826,590.079
408.277,596.158
409.729,612.944
411.181,624.523
412.633,620.971
414.085,594.852
415.536,567.947
416.988,580.023
418.44,610.434
419.892,635.976
421.343,612.515
422.795,605.767
424.247,601.829
425.699,588.129
427.151,574.03
428.602,594.041
430.054,594.915
431.506,586.757
432.958,587.355
434.41,587.247
435.861,582.311
437.313,575.739
438.765,588.299
440.217,595.82
441.668,605.111
443.12,608.586
444.572,583.92
446.024,592.125
447.476,583.915
448.927,569.76
450.379,569.469
451.831,579.181
453.283,571.884
454.735,593.672
456.186,586.625
457.638,577.291
459.09,582.951
460.542,599.787
461.993,580.238
463.445,586.561
464.897,578.746
466.349,588.175
467.801,601.92
469.252,560.823
470.704,557.831
472.156,587.824
473.608,615.928
475.06,616.754
476.511,589.821
477.963,561.13
479.415,570.994
480.867,592.485
482.319,593.255
483.77,576.949
485.222,574.959
486.674,560.38
488.126,581.704
489.577,615.455
491.029,612.571
492.481,575.148
493.933,554.146
495.385,579.887
496.836,570.138
498.288,565.678
499.74,579.911
501.192,591.041
502.644,561.428
504.095,565.892
505.547,556.73
506.999,556.835
508.451,545.033
509.902,535.274
511.354,562.625
512.806,547.946
514.258,565.358
515.71,566.13
517.161,550.168
518.613,553.477
520.065,573.795
521.517,565.086
522.969,561.334
524.42,553.421
525.872,548.401
527.324,551.251
528.776,578.708
530.228,559.825
531.679,563.489
533.131,575.708
534.583,579.897
536.035,585.967
537.486,571.775
538.938,561.843
540.39,564.76
541.842,552.867
543.294,553.021
544.745,568.196
546.197,568.672
547.649,558.77
549.101,558.041
550.553,561.119
552.004,558.582
553.456,569.155
554.908,552.317
556.36,548.656
557.811,563.873
559.263,575.908
560.715,569.818
562.167,569.026
563.619,576.915
565.07,532.857
566.522,534.49
567.974,552.725
569.426,557.704
570.878,546.799
572.329,554.386
573.781,557.755
575.233,552.835
576.685,547.626
578.137,555.819
579.588,557.627
581.04,543.279
582.492,542.967
583.944,539.351
585.395,541.072
586.847,555.705
588.299,548.081
589.751,543.897
591.203,540.767
592.654,547.169
594.106,563.474
595.558,563.71
597.01,539.358
598.462,543.259
599.913,538.789
601.365,544.589
602.817,561.502
604.269,565.612
605.72,546.009
607.172,588.887
608.624,567.892
610.076,562.286
611.528,557.159
612.979,540.663
614.431,536.799
615.883,559.939
617.335,564.184
618.787,570.483
620.238,578.535
621.69,583.584
623.142,569.729
624.594,549.603
626.046,537.539
627.497,572.121
628.949,568.766
630.401,569.949
631.853,591.093
633.304,576.714
634.756,541.215
636.208,572.233
637.66,578.426
639.112,592.535
640.563,603.608
642.015,607.044
643.467,592.781
644.919,604.033
646.371,591.69
647.822,579.992
649.274,588.898
650.726,596.718
652.178,585.324
653.629,592.439
655.081,581.304
656.533,594.632
657.985,593.572
659.437,573.779
660.888,601.58
662.34,623.068
663.792,606.822
665.244,605.912
666.696,604.356
668.147,597.837
669.599,607.784
671.051,575.602
672.503,600.718
673.954,599.969
675.406,593.173
676.858,593.263
678.31,605.875
679.762,603.67
681.213,612.013
682.665,605.861
684.117,600.274
685.569,607.291
687.021,614.295
688.472,591.44
689.924,582.357
691.376,600.129
692.828,595.132
694.28,611.231
695.731,608.182
697.183,580.686
698.635,613.326
700.087,582.262
701.538,587.047
702.99,596.258
704.442,603.098
705.894,623.729
707.346,623.384
708.797,613.918
710.249,589.588
711.701,619.712
713.153,644.878
714.605,631.609
716.056,616.076
717.508,602.521
718.96,605.099
720.412,603.453
721.863,616.546
723.315,619.136
724.767,603.092
726.219,590.531
727.671,628.976
729.122,609.9
730.574,615.495
732.026,626.671
733.478,617.98
734.93,610.572
736.381,613.196
737.833,613.034
739.285,614.478
740.737,621.907
742.189,630.074
743.64,634.914
745.092,629.376
746.544,618.654
747.996,641.756
749.447,636.404
750.899,628.203
752.351,621.87
753.803,621.11
755.255,620.633
756.706,618.265
758.158,634.7
759.61,613.797
761.062,607.421
762.514,619.137
763.965,622.816
765.417,626.935
766.869,628.361
768.321,627.413
769.772,642.973
771.224,645.318
772.676,633.003
774.128,626.576
775.58,634.015
777.031,628.74
778.483,630.809
779.935,631.166
781.387,621.132
782.839,639.955
784.29,657.919
785.742,629.109
787.194,655.494
788.646,639.999
790.098,643.139
791.549,643.209
793.001,651.96
794.453,677.469
795.905,660.054
797.356,646.259
798.808,652.748
800.26,655.132
801.712,650.528
803.164,640.653
804.615,652.664
806.067,670.927
807.519,648.42
808.971,641.963
810.423,652.949
811.874,651.559
813.326,646.658
814.778,654.859
816.23,683.055
817.681,691.778
819.133,649.58
820.585,668.574
822.037,685.133
823.489,680.649
824.94,659.591
826.392,665.346
827.844,673.65
829.296,660.419
830.748,646.114
832.199,662.549
833.651,683.4
835.103,672.227
836.555,687.97
838.007,700.567
839.458,712.953
840.91,707.586
842.362,689.794
843.814,680.478
845.265,676.709
846.717,682.573
848.169,691.258
849.621,692.905
851.073,712.855
852.524,716.022
853.976,710.986
855.428,715.918
856.88,729.932
858.332,738.709
859.783,718.902
861.235,726.32
862.687,734.412
864.139,726.959
865.59,738.181
867.042,722.735
868.494,706.337
869.946,722.006
871.398,719.107
872.849,696.551
874.301,682.556
875.753,699.06
877.205,700.423
878.657,714.195
880.108,692.38
881.56,725.371
883.012,709.7
884.464,685.642
885.915,703.236
887.367,713.565
888.819,712.444
890.271,732.557
891.723,743.281
893.174,724.491
894.626,729.957
896.078,747.697
897.53,728.898
898.982,706.203
900.433,718.627
901.885,735.133
903.337,723.669
904.789,718.592
906.241,731.528
907.692,747.427
909.144,741.317
910.596,742.424
912.048,771.943
913.499,767.062
914.951,765.517
916.403,764.097
917.855,768.485
919.307,765.402
920.758,745.649
922.21,770.415
923.662,758.318
925.114,754.974
926.566,756.955
928.017,756.685
929.469,754.382
930.921,763.156
932.373,777.527
933.824,776.919
935.276,762.707
936.728,758.736
938.18,784.354
939.632,806.53
941.083,790.045
942.535,760.116
943.987,785.757
945.439,760.034
946.891,751.409
948.342,756.625
949.794,768.716
951.246,773.855
952.698,745.833
954.15,746.907
955.601,780.552
957.053,762.218
958.505,760.183
959.957,773.519
961.408,779.122
962.86,773.134
964.312,780.139
965.764,775.007
967.216,780.18
968.667,798.776
970.119,795.259
971.571,790.407
973.023,781.886
974.475,756.662
975.926,754.075
977.378,779.129
978.83,778.211
980.282,792.55
981.733,766.547
983.185,749.668
984.637,773.819
986.089,803.079
987.541,776.103
988.992,802.9
990.444,790.855
991.896,796.92
993.348,773.174
994.8,781.085
996.251,796.693
997.703,771.57
999.155,798.57
1000.61,814.087
1002.06,781.714
1003.51,817.898
1004.96,802.754
1006.41,799.062
1007.87,820.735
1009.32,837.425
1010.77,847.536
1012.22,833.184
1013.67,798.162
1015.12,831.24
1016.58,860.4
1018.03,849.881
1019.48,853.198
1020.93,875.937
1022.38,866.686
1023.84,900.089
1025.29,872.409
1026.74,897.762
1028.19,890.561
1029.64,891.16
1031.09,901.574
1032.55,914.433
1034,904.404
1035.45,924.243
1036.9,922.607
1038.35,950.916
1039.8,951.961
1041.26,960.3
1042.71,969.791
1044.16,969.512
1045.61,986.362
1047.06,991.491
1048.52,1014.57
1049.97,982.211
1051.42,1020.13
1052.87,1017.28
1054.32,1039.82
1055.77,1046.38
1057.23,1039.72
1058.68,1049.74
1060.13,1101.17
1061.58,1096.31
1063.03,1108.16
1064.49,1138.23
1065.94,1130.64
1067.39,1122.52
1068.84,1111.22
1070.29,1132.06
1071.74,1165.02
1073.2,1165.8
1074.65,1162.58
1076.1,1163.07
1077.55,1175.54
1079,1194.42
1080.46,1221.97
1081.91,1231.09
1083.36,1184.52
1084.81,1215.27
1086.26,1175.27
1087.71,1201.18
1089.17,1205.15
1090.62,1203.55
1092.07,1192.32
1093.52,1199.51
1094.97,1199.63
1096.42,1196.43
1097.88,1150.54
1099.33,1183
1100.78,1171.06
1102.23,1188.79
1103.68,1180.29
1105.14,1160.08
1106.59,1166.16
1108.04,1176.39
1109.49,1196
1110.94,1177.27
1112.39,1141.48
1113.85,1155.26
1115.3,1151.23
1116.75,1142.6
1118.2,1135.63
1119.65,1139.86
1121.11,1135.46
1122.56,1111.75
1124.01,1083
1125.46,1109.9
1126.91,1092.54
1128.36,1108.88
1129.82,1127.93
1131.27,1111.05
1132.72,1078.17
1134.17,1074.62
1135.62,1080.09
1137.07,1093.46
1138.53,1058.1
1139.98,1072.59
1141.43,1067.52
1142.88,1066.5
1144.33,1074.93
1145.79,1068.51
1147.24,1037.11
1148.69,1047.82
1150.14,1044.91
1151.59,1062.32
1153.04,1074.11
1154.5,1059.37
1155.95,1095.76
1157.4,1101.9
1158.85,1065.2
1160.3,1071.03
1161.76,1083.59
1163.21,1085.06
1164.66,1049.15
1166.11,1047.78
1167.56,1059.9
1169.01,1081.83
1170.47,1058.94
1171.92,1055.61
1173.37,1085.27
1174.82,1092.7
1176.27,1101.09
1177.72,1092.72
1179.18,1104.93
1180.63,1126.78
1182.08,1108.74
1183.53,1102.4
1184.98,1101.22
1186.44,1088.21
1187.89,1090.31
1189.34,1104.4
1190.79,1111.69
1192.24,1115.46
1193.69,1101.83
1195.15,1118.79
1196.6,1131.81
1198.05,1134.61
1199.5,1139.53
1200.95,1139.79
1202.41,1162.03
1203.86,1134.03
1205.31,1143.2
1206.76,1152.64
1208.21,1165.92
1209.66,1147.88
1211.12,1131.98
1212.57,1127.72
1214.02,1132.81
1215.47,1157.25
1216.92,1125.11
1218.37,1125.09
1219.83,1171.57
1221.28,1160.19
1222.73,1187.9
1224.18,1181.72
1225.63,1176.42
1227.09,1181.22
1228.54,1191.33
1229.99,1211.56
1231.44,1184.59
1232.89,1170.06
1234.34,1163.17
1235.8,1185.04
1237.25,1241.2
1238.7,1220.36
1240.15,1193.96
1241.6,1211.68
1243.06,1237.27
1244.51,1227.35
1245.96,1211.73
1247.41,1218.81
1248.86,1309.09
1250.31,1295.23
1251.77,1279.51
1253.22,1298.46
1254.67,1312.65
1256.12,1316
1257.57,1332.66
1259.02,1332.66
1260.48,1307.91
1261.93,1385.51
1263.38,1406.16
1264.83,1400.48
1266.28,1458.15
1267.74,1455.27
1269.19,1457.74
1270.64,1465.06
1272.09,1485.36
1273.54,1518.58
1274.99,1531.48
1276.45,1544.82
1277.9,1573.25
1279.35,1598.61
1280.8,1655.74
1282.25,1689.18
1283.71,1717.04
1285.16,1769.17
1286.61,1799.15
1288.06,1800.64
1289.51,1861.03
1290.96,1906.49
1292.42,1988.67
1293.87,2039.09
1295.32,2076.48
1296.77,2136.14
1298.22,2204.41
1299.67,2267.93
1301.13,2378.3
1302.58,2480.51
1304.03,2518.04
1305.48,2645.35
1306.93,2748.86
1308.39,2860.8
1309.84,2931.98
1311.29,3089.41
1312.74,3192.89
1314.19,3387.35
1315.64,3543.15
1317.1,3721.75
1318.55,3919.51
1320,4024.56
1321.45,4111.9
1322.9,4272.78
1324.36,4435.21
1325.81,4619.44
1327.26,4740.06
1328.71,4747.54
1330.16,4842.74
1331.61,4915.45
1333.07,4881.62
1334.52,4855.09
1335.97,4942.59
1337.42,4867.77
1338.87,4742.29
1340.33,4700.31
1341.78,4593
1343.23,4409.7
1344.68,4280.96
1346.13,4119.05
1347.58,3978.81
1349.04,3816.46
1350.49,3640.45
1351.94,3472.59
1353.39,3313.18
1354.84,3146.54
1356.29,2995.79
1357.75,2970.13
1359.2,2788.43
1360.65,2692.7
1362.1,2579.33
1363.55,2503.89
1365.01,2468.9
1366.46,2374.98
1367.91,2241.14
1369.36,2225.24
1370.81,2159.31
1372.26,2078.46
1373.72,2073.32
1375.17,2034.08
1376.62,1987.64
1378.07,1945.32
1379.52,1910.78
1380.98,1849.11
1382.43,1822.8
1383.88,1809.86
1385.33,1778.61
1386.78,1751.76
1388.23,1732.52
1389.69,1741.82
1391.14,1667.78
1392.59,1741.15
1394.04,1637.23
1395.49,1663.71
1396.94,1670.07
1398.4,1654.82
1399.85,1647.89
1401.3,1654.57
1402.75,1633.71
1404.2,1633.12
1405.66,1628.3
1407.11,1646.94
1408.56,1647.66
1410.01,1661.88
1411.46,1649.56
1412.91,1629.7
1414.37,1640.57
1415.82,1637.95
1417.27,1631.61
1418.72,1629.8
1420.17,1660.2
1421.63,1662.29
1423.08,1636.7
1424.53,1631.25
1425.98,1624.06
1427.43,1690.85
1428.88,1689.52
1430.34,1643.42
1431.79,1656.26
1433.24,1678.41
1434.69,1691.14
1436.14,1705.98
1437.59,1695.76
1439.05,1696.07
1440.5,1725.16
1441.95,1745.69
1443.4,1727.38
1444.85,1760.84
1446.31,1724.77
1447.76,1742.99
1449.21,1792.91
1450.66,1857.78
1452.11,1839.25
1453.56,1798.13
1455.02,1835.39
1456.47,1882.59
1457.92,1874.46
1459.37,1884.9
1460.82,1898.18
1462.28,1915.74
1463.73,1963.62
1465.18,1955.1
1466.63,1990.95
1468.08,2034.65
1469.53,2074.73
1470.99,2100.15
1472.44,2095.89
1473.89,2105.38
1475.34,2130.31
1476.79,2170.38
1478.24,2240.31
1479.7,2329.21
1481.15,2338.55
1482.6,2316.78
1484.05,2377.06
1485.5,2428.59
1486.96,2404.1
1488.41,2448.15
1489.86,2540.78
1491.31,2622.54
1492.76,2656.74
1494.21,2693.51
1495.67,2752.75
1497.12,2828.78
1498.57,2884.01
1500.02,2940.72
1501.47,3058.03
1502.93,3175.74
1504.38,3242.82
1505.83,3346.01
1507.28,3432.21
1508.73,3547.16
1510.18,3647.2
1511.64,3782.6
1513.09,3948.68
1514.54,4100.95
1515.99,4268.96
1517.44,4472.14
1518.89,4630.55
1520.35,4880.11
1521.8,5244.66
1523.25,5480.25
1524.7,5821.1
1526.15,6222.61
1527.61,6658.27
1529.06,7117.16
1530.51,7548.93
1531.96,8115.54
1533.41,8748.54
1534.86,9490.6
1536.32,10320.3
1537.77,11230.6
1539.22,12354.3
1540.67,13520.8
1542.12,14499.5
1543.58,15815.5
1545.03,17140.9
1546.48,18481.9
1547.93,20080.7
1549.38,21646.9
1550.83,23209.1
1552.29,24702.2
1553.74,26176.5
1555.19,27781.1
1556.64,29068.9
1558.09,30301.6
1559.54,31483
1561,32398.2
1562.45,33098.2
1563.9,33574.1
1565.35,33675.3
1566.8,33387.9
1568.26,33139.4
1569.71,32436.8
1571.16,31282.8
1572.61,29937
1574.06,28470.2
1575.51,26958.7
1576.97,25273.5
1578.42,23531.2
1579.87,21928.5
1581.32,20315.2
1582.77,18663.4
1584.23,17215.5
1585.68,15880.8
1587.13,14548.2
1588.58,13252.9
1590.03,12307.7
1591.48,11250.7
1592.94,10427.9
1594.39,9696.37
1595.84,9148.52
1597.29,8594.51
1598.74,8108.93
1600.2,7572.15
1601.65,7130.65
1603.1,6809.54
1604.55,6490.82
1606,6160.2
1607.45,5850.11
1608.91,5563.12
1610.36,5217.15
1611.81,5033.61
1613.26,4756.49
1614.71,4519.78
1616.16,4287.06
1617.62,4051.05
1619.07,3928.09
1620.52,3771.39
1621.97,3632.27
1623.42,3480.07
1624.88,3329.73
1626.33,3217.95
1627.78,3079.56
1629.23,3002.13
1630.68,2954.87
1632.13,2821.36
1633.59,2767
1635.04,2593.1
1636.49,2609.73
1637.94,2538.33
1639.39,2450.14
1640.85,2359.27
1642.3,2342.49
1643.75,2299.34
1645.2,2275.83
1646.65,2229.61
1648.1,2203.31
1649.56,2177.07
1651.01,2075.59
1652.46,2020.73
1653.91,2015.18
1655.36,2002.71
1656.81,1983.68
1658.27,1931.15
1659.72,1891.51
1661.17,1942.49
1662.62,1818.19
1664.07,1861.67
1665.53,1803.49
1666.98,1804.98
1668.43,1807.71
1669.88,1720.91
1671.33,1710.21
1672.78,1699.62
1674.24,1693.56
1675.69,1665.42
1677.14,1645.92
1678.59,1640.89
1680.04,1651.62
1681.5,1611.12
1682.95,1552.66
1684.4,1577.58
1685.85,1594.5
1687.3,1546.03
1688.75,1536.21
1690.21,1518.22
1691.66,1504.16
1693.11,1494.61
1694.56,1475.18
1696.01,1465.89
1697.46,1451.19
1698.92,1442.85
1700.37,1415.05
1701.82,1424.12
1703.27,1412.05
1704.72,1415.1
1706.18,1428.8
1707.63,1418.6
1709.08,1404.38
1710.53,1389.87
1711.98,1398.12
1713.43,1405.21
1714.89,1393.44
1716.34,1390.94
1717.79,1372.34
1719.24,1361.97
1720.69,1410.34
1722.15,1375.2
1723.6,1415.6
1725.05,1389.51
1726.5,1371.42
1727.95,1382.58
1729.4,1415.68
1730.86,1390.72
1732.31,1395
1733.76,1366.31
1735.21,1398.75
1736.66,1407.66
1738.11,1397.97
1739.57,1369.25
1741.02,1341.39
1742.47,1358.94
1743.92,1323.5
1745.37,1302.3
1746.83,1332.52
1748.28,1314.14
1749.73,1320.4
1751.18,1330.77
1752.63,1250.53
1754.08,1290.41
1755.54,1290.79
1756.99,1299.12
1758.44,1267.68
1759.89,1281.1
1761.34,1238.03
1762.8,1272.09
1764.25,1255.7
1765.7,1241.46
1767.15,1240.57
1768.6,1198.92
1770.05,1217.6
1771.51,1233.94
1772.96,1222.3
1774.41,1210.81
1775.86,1207.53
1777.31,1178.74
1778.76,1169.41
1780.22,1200.77
1781.67,1185.88
1783.12,1162.47
1784.57,1213.4
1786.02,1208.73
1787.48,1192.45
1788.93,1117.77
1790.38,1185.97
1791.83,1201.92
1793.28,1180.89
1794.73,1184.58
1796.19,1133.43
1797.64,1143.18
1799.09,1144.89
1800.54,1135.5
1801.99,1116.14
1803.45,1158.15
1804.9,1154.47
1806.35,1141.05
1807.8,1168.91
1809.25,1174.77
1810.7,1150.5
1812.16,1131.75
1813.61,1135.06
1815.06,1106.58
1816.51,1089.96
1817.96,1126.22
1819.41,1124.08
1820.87,1135.51
1822.32,1129.03
1823.77,1116.92
1825.22,1106.07
1826.67,1133.69
1828.13,1151.48
1829.58,1159.23
1831.03,1166.04
1832.48,1138.44
1833.93,1180.32
1835.38,1134.03
1836.84,1168.46
1838.29,1146.5
1839.74,1166.25
1841.19,1174.21
1842.64,1171.3
1844.1,1206.11
1845.55,1187.3
1847,1180.82
1848.45,1184
1849.9,1194.96
1851.35,1182.87
1852.81,1203.56
1854.26,1217.67
1855.71,1219.34
1857.16,1213.64
1858.61,1206.4
1860.07,1227.45
1861.52,1237.67
1862.97,1238.56
1864.42,1203.5
1865.87,1204.61
1867.32,1198.87
1868.78,1182.05
1870.23,1197.54
1871.68,1206.23
1873.13,1181.79
1874.58,1189.37
1876.03,1188.78
1877.49,1196.54
1878.94,1150.42
1880.39,1188.68
1881.84,1188.69
1883.29,1174.75
1884.75,1151.48
1886.2,1138.87
1887.65,1156.17
1889.1,1136.51
1890.55,1140.32
1892,1115.55
1893.46,1112.86
1894.91,1109.26
1896.36,1119.32
1897.81,1105.42
1899.26,1108.28
1900.72,1118.73
1902.17,1087.86
1903.62,1079.42
1905.07,1074.72
1906.52,1048.1
1907.97,1070.7
1909.43,1082.7
1910.88,1054.7
1912.33,1090.02
1913.78,1087.9
1915.23,1052.26
1916.68,1021.14
1918.14,1063.14
1919.59,1041.85
1921.04,1057.89
1922.49,1023.06
1923.94,1046.26
1925.4,1020.95
1926.85,998.474
1928.3,1012.29
1929.75,1084
1931.2,1022.25
1932.65,1058.48
1934.11,1056.46
1935.56,1054.16
1937.01,1037.26
1938.46,1032.84
1939.91,1031.11
1941.37,1061.46
1942.82,1013.9
1944.27,1034.65
1945.72,1041.09
1947.17,1007.18
1948.62,1056.34
1950.08,1101.66
1951.53,1066.55
1952.98,1048.22
1954.43,1041.21
1955.88,1052.49
1957.33,1037.7
1958.79,1045.33
1960.24,1032.25
1961.69,1044.91
1963.14,1074.6
1964.59,1091.64
1966.05,1093.62
1967.5,1085.97
1968.95,1091.08
1970.4,1094.16
1971.85,1078.85
1973.3,1090.64
1974.76,1127.46
1976.21,1105.69
1977.66,1089.12
1979.11,1104.15
1980.56,1115.38
1982.02,1118.76
1983.47,1110.62
1984.92,1101.67
1986.37,1103.73
1987.82,1117.83
1989.27,1132.5
1990.73,1095.99
1992.18,1076.93
1993.63,1113.44
1995.08,1133.84
1996.53,1116.24
1997.98,1101.4
1999.44,1100.12
2000.89,1116.03
2002.34,1099.14
2003.79,1123.63
2005.24,1111.74
2006.7,1100.56
2008.15,1074.51
2009.6,1071.72
2011.05,1099.86
2012.5,1099.76
2013.95,1089.53
2015.41,1093.29
2016.86,1119.95
2018.31,1083.58
2019.76,1039.19
2021.21,1046.74
2022.67,1028.09
2024.12,1072.61
2025.57,1073.12
2027.02,1044.95
2028.47,1028.71
2029.92,1066.45
2031.38,1040.26
2032.83,1059.26
2034.28,1026.09
2035.73,1027.29
2037.18,1030.54
2038.63,1036.92
2040.09,1024.34
2041.54,1023.96
2042.99,1022.05
2044.44,987.623
2045.89,969.687
2047.35,984.971
2048.8,1024.83
2050.25,976.488
2051.7,978.273
2053.15,977.883
2054.6,985.753
2056.06,968.613
2057.51,990.348
2058.96,993.588
2060.41,967.465
2061.86,975.094
2063.32,978.919
2064.77,950.355
2066.22,966.636
2067.67,946.399
2069.12,960.382
2070.57,957.205
2072.03,952.332
2073.48,942.926
2074.93,968.91
2076.38,958.496
2077.83,953.697
2079.28,925.368
2080.74,923.37
2082.19,921.419
2083.64,919.838
2085.09,930.547
2086.54,917.917
2088,930.63
2089.45,938.088
2090.9,931.711
2092.35,937.517
2093.8,917.686
2095.25,943.394
2096.71,969.757
2098.16,933.255
2099.61,904.711
2101.06,937.548
2102.51,942.143
2103.97,944.596
2105.42,942.534
2106.87,938.163
2108.32,926.674
2109.77,921.464
2111.22,930.195
2112.68,949.511
2114.13,955.505
2115.58,954.721
2117.03,942.049
2118.48,955.262
2119.94,976.142
2121.39,973.258
2122.84,967.563
2124.29,948.122
2125.74,944.254
2127.19,943.789
2128.65,943.209
2130.1,963.115
2131.55,959.759
2133,960.125
2134.45,979.93
2135.9,982.588
2137.36,975.406
2138.81,966.39
2140.26,959.226
2141.71,962.354
2143.16,968.365
2144.62,969.099
2146.07,978.844
2147.52,1010.69
2148.97,1004.6
2150.42,982.809
2151.87,1001.73
2153.33,981.166
2154.78,989.772
2156.23,989.78
2157.68,995.64
2159.13,1007.87
2160.58,982.219
2162.04,979.616
2163.49,999.383
2164.94,998.906
2166.39,1006.76
2167.84,1008.19
2169.3,1037.47
2170.75,1041.24
2172.2,1026.6
2173.65,1021.38
2175.1,1009.92
2176.55,991.303
2178.01,1028.47
2179.46,1004.96
2180.91,997.84
2182.36,1034.36
2183.81,1085.63
2185.27,1035.17
2186.72,1045.53
2188.17,1032.12
2189.62,1051.86
2191.07,1059.3
2192.52,1041.92
2193.98,1069.4
2195.43,1040.04
2196.88,1035.05
2198.33,1072.34
2199.78,1084.29
2201.24,1059.94
2202.69,1063.28
2204.14,1025.24
2205.59,1063.87
2207.04,1019.16
2208.49,1087.86
2209.95,1064.3
2211.4,1063.66
2212.85,1032.38
2214.3,1037.54
2215.75,1081.12
2217.2,1065.31
2218.66,1065.51
2220.11,1036.08
2221.56,1073.61
2223.01,1047.29
2224.46,1055.62
2225.92,1051.72
2227.37,1029.63
2228.82,1026.94
2230.27,1042.27
2231.72,1078.86
2233.17,1076.76
2234.63,1081.47
2236.08,1068.08
2237.53,1056.47
2238.98,1069.29
2240.43,1103.19
2241.89,1074.91
2243.34,1085.83
2244.79,1087.52
2246.24,1108.88
2247.69,1121
2249.14,1116.26
2250.6,1117.64
2252.05,1113.42
2253.5,1120.71
2254.95,1140.7
2256.4,1142.69
2257.85,1111.02
2259.31,1113.59
2260.76,1121.53
2262.21,1113.44
2263.66,1131.68
2265.11,1153.68
2266.57,1154.48
2268.02,1153.75
2269.47,1139.73
2270.92,1129.99
2272.37,1154.52
2273.82,1156.85
2275.28,1178.62
2276.73,1152.14
2278.18,1178.27
2279.63,1179.28
2281.08,1176.28
2282.54,1185.81
2283.99,1206.93
2285.44,1193.02
2286.89,1202.08
2288.34,1199.76
2289.79,1183.01
2291.25,1243.32
2292.7,1186.84
2294.15,1205.24
2295.6,1201.59
2297.05,1227.32
2298.5,1216.16
2299.96,1215.06
2301.41,1233.62
2302.86,1220.73
2304.31,1235.61
2305.76,1262.76
2307.22,1248.45
2308.67,1272.35
2310.12,1266.78
2311.57,1247.78
2313.02,1272.3
2314.47,1287.58
2315.93,1262.88
2317.38,1292.67
2318.83,1295.58
2320.28,1271.08
2321.73,1287.76
2323.19,1304.32
2324.64,1296.27
2326.09,1322.49
2327.54,1337.29
2328.99,1339.47
2330.44,1350.87
2331.9,1372.45
2333.35,1364.85
2334.8,1352.47
2336.25,1335.34
2337.7,1343.01
2339.16,1367.33
2340.61,1394.85
2342.06,1406.19
2343.51,1413.27
2344.96,1420.14
2346.41,1429.82
2347.87,1406.05
2349.32,1461.53
2350.77,1416.73
2352.22,1485.49
2353.67,1479.1
2355.12,1493.56
2356.58,1505.76
2358.03,1492.88
2359.48,1492.37
2360.93,1507.27
2362.38,1551.67
2363.84,1572.96
2365.29,1588.43
2366.74,1610.09
2368.19,1608.39
2369.64,1600.43
2371.09,1622.9
2372.55,1661.51
2374,1678.55
2375.45,1691.56
2376.9,1678.13
2378.35,1726.59
2379.8,1731.6
2381.26,1746.88
2382.71,1811.85
2384.16,1837.45
2385.61,1896.85
2387.06,1934.85
2388.52,1969.32
2389.97,1994.1
2391.42,1978.65
2392.87,2003.82
2394.32,2068.29
2395.77,2095.93
2397.23,2165.43
2398.68,2164.24
2400.13,2264.99
2401.58,2294.42
2403.03,2307.25
2404.49,2322.17
2405.94,2375.53
2407.39,2380.26
2408.84,2441.41
2410.29,2467.6
2411.74,2529.27
2413.2,2580.28
2414.65,2586.91
2416.1,2603.13
2417.55,2619.18
2419,2632.12
2420.46,2685.16
2421.91,2721.98
2423.36,2677.33
2424.81,2677.66
2426.26,2699.57
2427.71,2691.28
2429.17,2736.47
2430.62,2781.01
2432.07,2787.15
2433.52,2672.26
2434.97,2681.56
2436.42,2624.2
2437.88,2686.67
2439.33,2668.56
2440.78,2683.89
2442.23,2614.71
2443.68,2620.9
2445.14,2620.65
2446.59,2578.28
2448.04,2584.78
2449.49,2588.47
2450.94,2558.05
2452.39,2515.68
2453.85,2533.96
2455.3,2533.38
2456.75,2487.94
2458.2,2453.96
2459.65,2445.56
2461.1,2460.25
2462.56,2459.73
2464.01,2425.15
2465.46,2387.17
2466.91,2404.24
2468.36,2394.17
2469.82,2393.12
2471.27,2436.42
2472.72,2391.95
2474.17,2423.43
2475.62,2351.86
2477.07,2307.71
2478.53,2365.11
2479.98,2342.24
2481.43,2365.78
2482.88,2387.48
2484.33,2342.26
2485.79,2343.02
2487.24,2347.64
2488.69,2331.99
2490.14,2380.42
2491.59,2341.65
2493.04,2377.92
2494.5,2387.35
2495.95,2406.2
2497.4,2357
2498.85,2406.52
2500.3,2392.03
2501.76,2386.4
2503.21,2421.45
2504.66,2410.72
2506.11,2405.7
2507.56,2467.56
2509.01,2454.55
2510.47,2459.09
2511.92,2476.03
2513.37,2532.2
2514.82,2521.84
2516.27,2542.05
2517.72,2555.45
2519.18,2585.5
2520.63,2581.05
2522.08,2624.89
2523.53,2623.01
2524.98,2646.76
2526.44,2713.72
2527.89,2726.01
2529.34,2728.8
2530.79,2772.78
2532.24,2808.32
2533.69,2824.98
2535.15,2825.8
2536.6,2856.03
2538.05,2886.82
2539.5,2870.26
2540.95,2953.9
2542.41,3012.11
2543.86,3052.78
2545.31,3105.76
2546.76,3152.98
2548.21,3205.76
2549.66,3258.12
2551.12,3304.99
2552.57,3284.44
2554.02,3385.52
2555.47,3428.93
2556.92,3569.55
2558.37,3553.85
2559.83,3729.97
2561.28,3709.05
2562.73,3768.37
2564.18,3889.13
2565.63,3924.04
2567.09,3993.82
2568.54,4132.99
2569.99,4229.87
2571.44,4368.88
2572.89,4366.17
2574.34,4418.19
2575.8,4578.97
2577.25,4701.81
2578.7,4870.66
2580.15,5009.75
2581.6,5106.72
2583.06,5216.78
2584.51,5418.1
2585.96,5552.42
2587.41,5755.77
2588.86,5951.81
2590.31,6074.88
2591.77,6204.65
2593.22,6421.41
2594.67,6712.5
2596.12,6989.54
2597.57,7225.71
2599.02,7495.65
2600.48,7750.93
2601.93,8016.16
2603.38,8298.84
2604.83,8581.8
2606.28,8862.47
2607.74,9291.8
2609.19,9578.59
2610.64,10043.6
2612.09,10423.9
2613.54,10849
2614.99,11212.3
2616.45,11609.8
2617.9,12194.7
2619.35,12548.6
2620.8,13106.4
2622.25,13695.4
2623.71,14166.3
2625.16,14577.3
2626.61,15256.7
2628.06,15771.9
2629.51,16340
2630.96,16941.4
2632.42,17436.4
2633.87,17952.9
2635.32,18535.1
2636.77,18968.3
2638.22,19631.3
2639.68,20014.1
2641.13,20365.5
2642.58,20905.3
2644.03,21269.7
2645.48,21702
2646.93,21850.7
2648.39,22098.6
2649.84,22700.7
2651.29,22615
2652.74,22798.3
2654.19,22928.6
2655.64,22897.4
2657.1,22973.9
2658.55,23058.1
2660,22872.3
2661.45,22588.5
2662.9,22367.7
2664.36,22195.4
2665.81,21894.4
2667.26,21442.2
2668.71,20908
2670.16,20588.6
2671.61,20138.6
2673.07,19711
2674.52,19028.6
2675.97,18643.2
2677.42,18198.6
2678.87,17684.5
2680.32,17064.6
2681.78,16494.8
2683.23,15948.8
2684.68,15392.7
2686.13,14754.1
2687.58,14282.8
2689.04,13749
2690.49,13145.6
2691.94,12718
2693.39,12245.2
2694.84,11729.2
2696.29,11198.6
2697.75,10742
2699.2,10302.9
2700.65,9857.89
2702.1,9428.46
2703.55,9154.36
2705.01,8834.17
2706.46,8431.48
2707.91,8046.01
2709.36,7699.67
2710.81,7428.96
2712.26,7198.39
2713.72,6919.26
2715.17,6644.58
2716.62,6427.92
2718.07,6208.7
2719.52,6000.45
2720.98,5827.27
2722.43,5575.68
2723.88,5370.37
2725.33,5230.02
2726.78,5123.43
2728.23,4887.29
2729.69,4781.52
2731.14,4632.94
2732.59,4476.74
2734.04,4362.48
2735.49,4211.18
2736.94,4085.58
2738.4,3992.01
2739.85,3964.21
2741.3,3879.07
2742.75,3756.42
2744.2,3690.06
2745.66,3577.02
2747.11,3519.51
2748.56,3459.14
2750.01,3361.11
2751.46,3318.08
2752.91,3250.39
2754.37,3217.84
2755.82,3128.2
2757.27,3069.63
2758.72,3033.56
2760.17,2935.09
2761.63,2913.52
2763.08,2853.03
2764.53,2798.8
2765.98,2807.76
2767.43,2757.93
2768.88,2757.74
2770.34,2716.61
2771.79,2686.26
2773.24,2628.83
2774.69,2572.6
2776.14,2516.37
2777.59,2546.74
2779.05,2492.08
2780.5,2465.85
2781.95,2441.23
2783.4,2440.18
2784.85,2396.1
2786.31,2379.45
2787.76,2354.85
2789.21,2313.78
2790.66,2347.71
2792.11,2265.9
2793.56,2239.59
2795.02,2198.87
2796.47,2233.2
2797.92,2211.73
2799.37,2175.18
2800.82,2168.08
2802.28,2141.54
2803.73,2103.52
2805.18,2126.81
2806.63,2112.2
2808.08,2092.66
2809.53,2082.08
2810.99,2095.18
2812.44,2049
2813.89,2039.97
2815.34,2031.36
2816.79,2013.23
2818.24,2002.64
2819.7,2017.34
2821.15,2003.5
2822.6,1947.64
2824.05,1934.8
2825.5,1960.47
2826.96,1916.66
2828.41,1970.45
2829.86,1912.48
2831.31,1890.92
2832.76,1905.85
2834.21,1909.76
2835.67,1903.11
2837.12,1876.37
2838.57,1876.74
2840.02,1894.29
2841.47,1859.18
2842.93,1916.67
2844.38,1837.94
2845.83,1889.99
2847.28,1858.15
2848.73,1829.45
2850.18,1859.8
2851.64,1867.84
2853.09,1863.5
2854.54,1809.38
2855.99,1833.3
2857.44,1796.22
2858.9,1795.64
2860.35,1853.35
2861.8,1806.72
2863.25,1832.41
2864.7,1855.45
2866.15,1863.6
2867.61,1859.61
2869.06,1845.65
2870.51,1857.36
2871.96,1852.56
2873.41,1873.68
2874.86,1874.69
2876.32,1886.24
2877.77,1861.54
2879.22,1877.56
2880.67,1856.96
2882.12,1875.28
2883.58,1874.92
2885.03,1852.72
2886.48,1872.02
2887.93,1867.41
2889.38,1861
2890.83,1884.96
2892.29,1898.08
2893.74,1898.58
2895.19,1890.92
2896.64,1876.44
2898.09,1846.48
2899.54,1849.67
2901,1838.18
2902.45,1872.33
2903.9,1847.21
2905.35,1864.22
2906.8,1805.46
2908.26,1809.36
2909.71,1836.42
2911.16,1817.01
2912.61,1810.85
2914.06,1857.73
2915.51,1803.93
2916.97,1818.26
2918.42,1778.96
2919.87,1770.12
2921.32,1776.19
2922.77,1770.89
2924.23,1742.88
2925.68,1733.93
2927.13,1722.59
2928.58,1723.1
2930.03,1662.68
2931.48,1677.61
2932.94,1649.98
2934.39,1661.27
2935.84,1635.91
2937.29,1624
2938.74,1621.89
2940.2,1568.43
2941.65,1593.22
2943.1,1592.8
2944.55,1554.39
2946,1580.35
2947.45,1551.97
2948.91,1516.68
2950.36,1514.86
2951.81,1494.82
2953.26,1472.8
2954.71,1463.23
2956.16,1484.79
2957.62,1414.84
2959.07,1422.24
2960.52,1389.07
2961.97,1434.59
2963.42,1416.89
2964.88,1395.26
2966.33,1386.13
2967.78,1396.01
2969.23,1401.86
2970.68,1350.3
2972.13,1370.86
2973.59,1374.54
2975.04,1366.84
2976.49,1346.34
2977.94,1317.79
2979.39,1343.54
2980.84,1293.66
2982.3,1321.56
2983.75,1304.83
2985.2,1322.49
2986.65,1300.38
2988.1,1295.35
2989.56,1256.3
2991.01,1260.5
2992.46,1274.06
2993.91,1232.9
2995.36,1244.49
2996.81,1251.06
2998.27,1264.88
2999.72,1269.03
3001.17,1249.53
3002.62,1237.38
3004.07,1250.73
3005.53,1247.77
3006.98,1206.44
3008.43,1193.38
3009.88,1217.2
3011.33,1180.07
3012.78,1204.72
3014.24,1219.19
3015.69,1187.08
3017.14,1212.21
3018.59,1181.96
3020.04,1260.39
3021.5,1242.07
3022.95,1245.3
3024.4,1219.28
3025.85,1233.56
3027.3,1194.15
3028.75,1172.08
3030.21,1234.76
3031.66,1194.83
3033.11,1238.74
3034.56,1216.91
3036.01,1192.32
3037.46,1181.8
3038.92,1200.07
3040.37,1185.39
3041.82,1189.3
3043.27,1174.21
3044.72,1197.21
3046.18,1186.52
3047.63,1185.53
3049.08,1191.07
3050.53,1219.88
3051.98,1208.53
3053.43,1219.94
3054.89,1222.33
3056.34,1186.65
3057.79,1231.65
3059.24,1214.61
3060.69,1204.9
3062.15,1198.69
3063.6,1238.42
3065.05,1246.23
3066.5,1218.96
3067.95,1285.81
3069.4,1240.45
3070.86,1237.42
3072.31,1236.19
3073.76,1270.19
3075.21,1233.5
3076.66,1278.78
3078.11,1292.88
3079.57,1280.39
3081.02,1282.69
3082.47,1295.91
3083.92,1333.01
3085.37,1340.16
3086.83,1367.53
3088.28,1323.62
3089.73,1350.34
3091.18,1383.03
3092.63,1370.52
3094.08,1392.77
3095.54,1388.68
3096.99,1391.59
3098.44,1423.14
3099.89,1429.64
3101.34,1464.72
3102.8,1502.35
3104.25,1495.33
3105.7,1532.82
3107.15,1543.95
3108.6,1575.72
3110.05,1601.39
3111.51,1637.22
3112.96,1659.48
3114.41,1647.23
3115.86,1650.52
3117.31,1677.09
3118.76,1760.65
3120.22,1776.6
3121.67,1799.34
3123.12,1773.76
3124.57,1797.86
3126.02,1825.78
3127.48,1802.35
3128.93,1793.9
3130.38,1882.29
3131.83,1858.36
3133.28,1891.48
3134.73,1924.95
3136.19,1918.81
3137.64,1888.36
3139.09,1941.72
3140.54,1931.62
3141.99,1959.27
3143.45,1954.39
3144.9,1957.16
3146.35,1993.46
3147.8,1994.97
3149.25,1985.29
3150.7,2002.01
3152.16,1981.26
3153.61,2054.43
3155.06,2038.44
3156.51,2085.3
3157.96,2127.59
3159.42,2075.4
3160.87,2056.47
3162.32,2039.88
3163.77,2090.35
3165.22,2099.17
3166.67,2090.91
3168.13,2113.61
3169.58,2121.77
3171.03,2161.24
3172.48,2214.04
3173.93,2231.93
3175.38,2215.68
3176.84,2230.11
3178.29,2284.44
3179.74,2355.27
3181.19,2333.19
3182.64,2319.53
3184.1,2356.26
3185.55,2377.81
3187,2384.56
3188.45,2410.23
3189.9,2493.42
3191.35,2413.26
3192.81,2507.35
3194.26,2487.21
3195.71,2494.21
3197.16,2540.42
3198.61,2524.03
3200.06,2503.16
3201.52,2556.81
3202.97,2473.27
3204.42,2414.64
3205.87,2423.85
3207.32,2449.75
3208.78,2407.47
3210.23,2367.64
3211.68,2300.32
3213.13,2307.42
3214.58,2253.28
3216.03,2210.64
3217.49,2124.79
3218.94,2103.26
3220.39,2060.96
3221.84,1974.45
3223.29,1925.2
3224.75,1857.76
3226.2,1847.29
3227.65,1779.29
3229.1,1723.26
3230.55,1667.68
3232,1646.86
3233.46,1676.67
3234.91,1564.32
3236.36,1553.09
3237.81,1517.6
3239.26,1494.4
3240.72,1433.42
3242.17,1431.09
3243.62,1404.08
3245.07,1375.73
3246.52,1308.4
3247.97,1253.83
3249.43,1261.74
3250.88,1247.96
3252.33,1233.63
3253.78,1219.9
3255.23,1205.05
3256.68,1233.04
3258.14,1202.97
3259.59,1171.56
3261.04,1174.38
3262.49,1154.22
3263.94,1130.13
3265.4,1105.07
3266.85,1172.07
3268.3,1132.44
3269.75,1117.87
3271.2,1121.85
3272.65,1100.16
3274.11,1115.97
3275.56,1083.18
3277.01,1089.23
3278.46,1072.79
3279.91,1070.19
3281.37,1083.84
3282.82,1064.61
3284.27,1038.29
3285.72,1074.36
3287.17,1073.42
3288.62,1032.62
3290.08,1049.65
3291.53,1060.68
3292.98,1049.86
3294.43,1040.17
3295.88,1051.59
3297.33,1046.89
3298.79,1015.72
3300.24,1018.69
3301.69,1005.72
3303.14,1021.98
3304.59,1044.55
3306.05,1049.03
3307.5,1038.17
3308.95,1032.2
3310.4,1011
3311.85,1012.36
3313.3,1040.08
3314.76,1002.55
3316.21,1039.94
3317.66,1012.72
3319.11,1004.95
3320.56,1032.51
3322.02,1045.53
3323.47,992.016
3324.92,1028.64
3326.37,1020.97
3327.82,1005.7
3329.27,1008.27
3330.73,987.146
3332.18,997.798
3333.63,975.56
3335.08,996.921
3336.53,1004.38
3337.98,1011.15
3339.44,1054.84
3340.89,1025.71
3342.34,1033.94
3343.79,1057.85
3345.24,1010.76
3346.7,1006.17
3348.15,1020.04
3349.6,969.182
3351.05,1005.14
3352.5,1005.14
3353.95,981.693
3355.41,1031.39
3356.86,1056.6
3358.31,1022.68
3359.76,1035.78
3361.21,1001.09
3362.67,1004.83
3364.12,1006.62
3365.57,999.495
3367.02,998.116
3368.47,999.241
3369.92,1024.17
3371.38,1002.87
3372.83,1009.66
3374.28,999.379
3375.73,968.87
3377.18,1026.23
3378.63,1012.92
3380.09,1014.12
3381.54,975.995
3382.99,1010.18
3384.44,1008.79
3385.89,1018.07
3387.35,1014.83
3388.8,1012.51
3390.25,1024.39
3391.7,1009.95
3393.15,1019.5
3394.6,997.936
3396.06,1008.02
3397.51,1013.67
3398.96,1025.53
3400.41,996.76
3401.86,1014.71
3403.32,1015.27
3404.77,999.886
3406.22,1036.37
3407.67,1046.9
3409.12,1000.56
3410.57,1000.55
3412.03,1000.07
3413.48,988.931
3414.93,1000.66
3416.38,1001.62
3417.83,1002.9
3419.28,994.332
3420.74,1007.39
3422.19,1006.65
3423.64,1020.18
3425.09,995.78
3426.54,998.3
3428,981.797
3429.45,1014.02
3430.9,1040.07
3432.35,1023.32
3433.8,1004.11
3435.25,995.938
3436.71,997.891
3438.16,1022.02
3439.61,1004.92
3441.06,989.448
3442.51,1018.28
3443.97,984.731
3445.42,976.598
3446.87,1003.2
3448.32,990.129
3449.77,1023.95
3451.22,1008.85
3452.68,1019.12
3454.13,1005.46
3455.58,1010.74
3457.03,1035.66
3458.48,995.959
3459.94,995.472
3461.39,1038.79
3462.84,1024.7
3464.29,999.617
3465.74,993.481
3467.19,1018.02
3468.65,985.813
3470.1,1017.18
3471.55,1020.87
3473,1009.41
3474.45,1016.75
3475.9,1038.76
3477.36,1026.73
3478.81,1011.61
3480.26,1018.85
3481.71,1021.66
3483.16,1049.68
3484.62,981.984
3486.07,1003.17
3487.52,1043.82
3488.97,1037.84
3490.42,1007.28
3491.87,1021.3
3493.33,1023.8
3494.78,1033.23
3496.23,1026.1
3497.68,1042.81
3499.13,1018.95
3500.58,1021.63
3502.04,997.752
3503.49,1003.92
3504.94,1028.48
3506.39,1040.71
3507.84,1008.99
3509.3,1004.3
3510.75,1017.1
3512.2,1022.86
3513.65,1019.98
3515.1,1044.34
3516.55,1047.9
3518.01,1056.99
3519.46,1036.48
3520.91,1088.01
3522.36,1026.13
3523.81,1041.89
3525.27,1039.77
3526.72,1021.47
3528.17,1024.72
3529.62,1032.74
3531.07,1003.51
3532.52,1021.98
3533.98,1010.95
3535.43,1024.03
3536.88,1030.6
3538.33,1038.49
3539.78,1039.4
3541.24,1009.1
3542.69,1064.3
3544.14,1044.13
3545.59,1045.7
3547.04,1056.9
3548.49,1013.93
3549.95,1050.32
3551.4,1038.26
3552.85,1022.77
3554.3,1048.19
3555.75,1026.16
3557.2,994.436
3558.66,1022.39
3560.11,1016.25
3561.56,1024.75
3563.01,1043.69
3564.46,1017.82
3565.92,1055.89
3567.37,1048.16
3568.82,1019.37
3570.27,1088.1
3571.72,1060.72
3573.17,1001.72
3574.63,1012.65
3576.08,1027.24
3577.53,1017.56
3578.98,1063.51
3580.43,1040.8
3581.89,1027.75
3583.34,1023.21
3584.79,1043.56
3586.24,1040.03
3587.69,1023.64
3589.14,1057.68
3590.6,1020.11
3592.05,1004.84
3593.5,1028.49
3594.95,1027.02
3596.4,1041.59
3597.85,1049.64
3599.31,1031.09
3600.76,1051.58
3602.21,1024.02
3603.66,1035.35
3605.11,1059.63
3606.57,991.5
3608.02,987.955
3609.47,1032.34
3610.92,1058.15
3612.37,1071.58
3613.82,1025.54
3615.28,1045.76
3616.73,1048.64
3618.18,1015.77
3619.63,1046.88
3621.08,1032.16
3622.54,1034.35
3623.99,1061.86
3625.44,1022.95
3626.89,1095.68
3628.34,1006.06
3629.79,1028.32
3631.25,1020.69
3632.7,1053.32
3634.15,1069.73
3635.6,1077.22
3637.05,1054.64
3638.5,1048.68
3639.96,1097.4
3641.41,1079.37
3642.86,1050.7
3644.31,1039.54
3645.76,1047.83
3647.22,1027.75
3648.67,1088.52
3650.12,1072.74
3651.57,1071.18
3653.02,1047.43
3654.47,1046.65
3655.93,1055.19
3657.38,1045.73
3658.83,1036.2
3660.28,1083.93
3661.73,1097.39
3663.19,1068.03
3664.64,1090.22
3666.09,1091.99
3667.54,1064.55
3668.99,1102.26
3670.44,1086.82
3671.9,1102.36
3673.35,1104.65
3674.8,1102.03
3676.25,1096.52
3677.7,1077.75
3679.16,1094.65
3680.61,1078.45
3682.06,1103.21
3683.51,1112.34
3684.96,1075.56
3686.41,1089.78
3687.87,1079.19
3689.32,1068.47
3690.77,1095.17
3692.22,1093.12
3693.67,1114.1
3695.12,1089.57
3696.58,1082.66
3698.03,1101.09
3699.48,1089.69
3700.93,1107.89
3702.38,1116.23
3703.84,1107.1
3705.29,1106.46
3706.74,1107.66
3708.19,1096.53
3709.64,1059.95
3711.09,1076.6
3712.55,1089.98
3714,1112.86
3715.45,1091.26
3716.9,1102.34
3718.35,1103.05
3719.8,1114.15
3721.26,1073.81
3722.71,1097.97
3724.16,1114.56
3725.61,1133.61
3727.06,1121.21
3728.52,1117.66
3729.97,1126.7
3731.42,1123.84
3732.87,1112.04
3734.32,1068.48
3735.77,1143.84
3737.23,1131.59
3738.68,1144.12
3740.13,1132.58
3741.58,1096.51
3743.03,1099.54
3744.49,1113.32
3745.94,1140.41
3747.39,1123.17
3748.84,1121.03
3750.29,1173.03
3751.74,1137.41
3753.2,1134.82
3754.65,1145.19
3756.1,1123.02
3757.55,1144.55
3759,1166.6
3760.46,1081.09
3761.91,1135.97
3763.36,1125.3
3764.81,1147.81
3766.26,1151.45
3767.71,1162.54
3769.17,1176.16
3770.62,1139.19
3772.07,1172.49
3773.52,1118.71
3774.97,1156.11
3776.42,1142.16
3777.88,1110
3779.33,1133.02
3780.78,1186.16
3782.23,1168.12
3783.68,1173.41
3785.14,1131.59
3786.59,1168.52
3788.04,1159.66
3789.49,1152.67
3790.94,1187.36
3792.39,1187.41
3793.85,1188.81
3795.3,1182.49
3796.75,1150.96
3798.2,1169.9
3799.65,1171.36
3801.1,1183.82
3802.56,1189.64
3804.01,1156.92
3805.46,1185.4
3806.91,1132.24
3808.36,1175.33
3809.82,1213.83
3811.27,1234.6
3812.72,1214.72
3814.17,1205.5
3815.62,1188.42
3817.07,1181.17
3818.53,1199.69
3819.98,1189.74
3821.43,1190.33
3822.88,1197.36
3824.33,1190.48
3825.79,1216.71
3827.24,1215.95
3828.69,1197.19
3830.14,1199.16
3831.59,1189.87
3833.04,1233.72
3834.5,1221.23
3835.95,1177.75
3837.4,1230.47
3838.85,1196.02
3840.3,1176.31
3841.76,1230.14
3843.21,1223.22
3844.66,1210.16
3846.11,1190.44
3847.56,1188.34
3849.01,1204.59
3850.47,1231.53
3851.92,1225.1
3853.37,1251.94
3854.82,1221.71
3856.27,1215.67
3857.72,1231.89
3859.18,1243.02
3860.63,1255.31
3862.08,1215.05
3863.53,1225.27
3864.98,1216.53
3866.44,1254.66
3867.89,1254.73
3869.34,1262.43
3870.79,1245.56
3872.24,1257.89
3873.69,1262.16
3875.15,1260.64
3876.6,1283.67
3878.05,1250.64
3879.5,1238.13
3880.95,1281.02
3882.41,1265.14
3883.86,1282.79
3885.31,1304.56
3886.76,1338.13
3888.21,1274.39
3889.66,1294.06
3891.12,1295.81
3892.57,1314.76
3894.02,1320.72
3895.47,1301.75
3896.92,1277.47
3898.37,1290.37
3899.83,1300.45
3901.28,1342.02
3902.73,1329.57
3904.18,1358.04
3905.63,1378.03
3907.09,1334.48
3908.54,1325.02
3909.99,1335.13
3911.44,1371.19
3912.89,1329.55
3914.34,1334.1
3915.8,1325.99
3917.25,1318.38
3918.7,1360.3
3920.15,1375.64
3921.6,1382.78
3923.06,1367.09
3924.51,1379.26
3925.96,1355.38
3927.41,1328.43
3928.86,1372.28
3930.31,1376.26
3931.77,1384.95
3933.22,1375.9
3934.67,1382.05
3936.12,1402.56
3937.57,1376.92
3939.02,1416.59
3940.48,1403.51
3941.93,1361.97
3943.38,1387.54
3944.83,1426.74
3946.28,1422.11
3947.74,1457.72
3949.19,1416.57
3950.64,1460.43
3952.09,1448.86
3953.54,1480.7
3954.99,1434.07
3956.45,1407.76
3957.9,1435.84
3959.35,1508.44
3960.8,1499.65
3962.25,1483.01
3963.71,1518.83
3965.16,1473.88
3966.61,1516.46
3968.06,1492.78
3969.51,1498.85
3970.96,1511.82
3972.42,1522.58
3973.87,1492.59
3975.32,1525.8
3976.77,1515.55
3978.22,1522.57
3979.68,1552.34
3981.13,1549.37
3982.58,1533.29
3984.03,1556.86
3985.48,1531.29
3986.93,1553.34
3988.39,1529.94
3989.84,1511.52
3991.29,1609.3
3992.74,1582.28
3994.19,1522.32
3995.64,1567.33
3997.1,1587.02
3998.55,1591.77
4000,1564.62
