-20,70.5878
-18.5482,69.9835
-17.0964,67.9976
-15.6446,72.0691
-14.1928,76.0299
-12.7411,81.4078
-11.2893,86.2033
-9.83749,90.7643
-8.3857,94.9075
-6.93391,123.228
-5.48212,574.651
-4.03034,5220.26
-2.57855,18670.8
-1.12676,33329.2
0.325027,44617.4
1.77681,42426.9
3.2286,27206.6
4.68039,7869.02
6.13218,1341.82
7.58397,242.698
9.03575,151.432
10.4875,140.878
11.9393,140.093
13.3911,139.505
14.8429,137.636
16.2947,135.431
17.7465,132.019
19.1983,125.782
20.6501,120.423
22.1018,114.369
23.5536,109.931
25.0054,106.782
26.4572,100.111
27.909,92.1999
29.3608,85.6766
30.8126,75.9213
32.2644,74.1924
33.7161,73.0309
35.1679,71.9741
36.6197,71.9745
38.0715,69.1282
39.5233,69.0636
40.9751,71.855
42.4269,75.0718
43.8787,75.4201
45.3304,82.4956
46.7822,97.2068
48.234,120.009
49.6858,166.448
51.1376,258.441
52.5894,437.562
54.0412,683.935
55.493,987.959
56.9447,1316.27
58.3965,1689.9
59.8483,1991.42
61.3001,2261.76
62.7519,2469.18
64.2037,2616.05
65.6555,2668.33
67.1073,2750.86
68.559,2811.42
70.0108,2841.68
71.4626,2863.17
72.9144,2876.15
74.3662,2898.88
75.818,2950.48
77.2698,2984.81
78.7216,3049.04
80.1733,3150.87
81.6251,3208.83
83.0769,3279.04
84.5287,3323.68
85.9805,3304.84
87.4323,3225.2
88.8841,3114.83
90.3359,2982.2
91.7877,2829.52
93.2394,2673.75
94.6912,2541.9
96.143,2405.09
97.5948,2289.44
99.0466,2224.8
100.498,2196.63
101.95,2136.61
103.402,2077.63
104.854,2051.49
106.306,2037.48
107.757,2005.86
109.209,1965.61
110.661,1919.01
112.113,1894.99
113.564,1893.41
115.016,1861.66
116.468,1817.35
117.92,1792.31
119.372,1777.55
120.823,1728.26
122.275,1743.15
123.727,1708.32
125.179,1656.42
126.631,1631.31
128.082,1629.46
129.534,1587.33
130.986,1560.16
132.438,1543.24
133.889,1517.35
135.341,1489.3
136.793,1455.18
138.245,1434.49
139.697,1434.53
141.148,1438.23
142.6,1422.85
144.052,1423.65
145.504,1419.17
146.956,1407.26
148.407,1379.85
149.859,1350.91
151.311,1327.69
152.763,1331.7
154.215,1332.43
155.666,1320.25
157.118,1263.21
158.57,1237.73
160.022,1234.99
161.473,1233.59
162.925,1212.15
164.377,1219.98
165.829,1224.19
167.281,1211.66
168.732,1190.63
170.184,1204.89
171.636,1179.32
173.088,1149.21
174.54,1140.16
175.991,1143.8
177.443,1089.25
178.895,1097.88
180.347,1097.87
181.798,1086.62
183.25,1058.95
184.702,1076.72
186.154,1070.34
187.606,1061.01
189.057,1043.75
190.509,1026.91
191.961,1011.52
193.413,1021.27
194.865,1041.15
196.316,1042.4
197.768,1025.24
199.22,1020.61
200.672,1021.87
202.124,1030.01
203.575,1019.26
205.027,989.289
206.479,986.21
207.931,994.772
209.382,991.561
210.834,993.559
212.286,1015.1
213.738,1004.32
215.19,992.65
216.641,1004.48
218.093,1021.93
219.545,1031.59
220.997,1031.67
222.449,985.255
223.9,997.153
225.352,1010.09
226.804,1006.1
228.256,976.787
229.707,981.228
231.159,995.514
232.611,996.038
234.063,1002.94
235.515,1000.81
236.966,1008.79
238.418,1006.13
239.87,1001.36
241.322,997.34
242.774,988.123
244.225,985.373
245.677,986.08
247.129,990.564
248.581,979.558
250.033,957.622
251.484,969.939
252.936,946.095
254.388,932.686
255.84,942.757
257.291,958.657
258.743,941.659
260.195,937.794
261.647,935.351
263.099,939.158
264.55,939.404
266.002,922.606
267.454,929.983
268.906,938.157
270.358,940.875
271.809,928.117
273.261,906.824
274.713,915.375
276.165,915.483
277.616,909.381
279.068,900.293
280.52,898.334
281.972,891.089
283.424,867.572
284.875,854.385
286.327,860.378
287.779,865.223
289.231,865.137
290.683,870.078
292.134,864.985
293.586,844.624
295.038,821.641
296.49,839.938
297.941,838.784
299.393,832.948
300.845,829.338
302.297,824.756
303.749,821.967
305.2,808.05
306.652,808.2
308.104,803.964
309.556,786.006
311.008,797.685
312.459,814.082
313.911,794.756
315.363,787.511
316.815,796.016
318.267,764.957
319.718,787.855
321.17,783.926
322.622,786.269
324.074,789.953
325.525,779.091
326.977,789.588
328.429,790.419
329.881,761.713
331.333,741.77
332.784,762.277
334.236,754.678
335.688,737.016
337.14,758.099
338.592,766.021
340.043,750.738
341.495,745.046
342.947,757.518
344.399,753.319
345.85,743.592
347.302,743.276
348.754,751.628
350.206,744.721
351.658,736.798
353.109,737.027
354.561,741.978
356.013,740.803
357.465,716.605
358.917,720.254
360.368,723.094
361.82,722.638
363.272,725.703
364.724,734.187
366.176,721.043
367.627,711.004
369.079,712.676
370.531,724.501
371.983,728.534
373.434,709.612
374.886,712.971
376.338,717.19
377.79,717.742
379.242,712.928
380.693,718.404
382.145,692.97
383.597,704.804
385.049,719.867
386.501,730.268
387.952,733.139
389.404,722.974
390.856,711.797
392.308,712.651
393.759,717.049
395.211,718.293
396.663,703.867
398.115,724.898
399.567,716.765
401.018,705.488
402.47,700.703
403.922,712.731
405.374,712.323
406.826,715.052
408.277,713.802
409.729,711.539
411.181,713.439
412.633,726.017
414.085,715.85
415.536,703.562
416.988,707.224
418.44,716.405
419.892,713.279
421.343,736.202
422.795,710.685
424.247,700.891
425.699,702.713
427.151,705.404
428.602,699.957
430.054,689.467
431.506,712.792
432.958,716.601
434.41,709.446
435.861,714.037
437.313,691.792
438.765,691.031
440.217,718.501
441.668,730.827
443.12,716.78
444.572,683.916
446.024,708.314
447.476,696.619
448.927,693.114
450.379,694.058
451.831,695.474
453.283,701.404
454.735,680.808
456.186,687.784
457.638,697.679
459.09,705.151
460.542,707.432
461.993,705.451
463.445,704.957
464.897,692.842
466.349,694.286
467.801,699.505
469.252,681.772
470.704,684.125
472.156,694.648
473.608,705.302
475.06,702.261
476.511,683.12
477.963,678.2
479.415,693.143
480.867,701.583
482.319,696.86
483.77,682.141
485.222,671.46
486.674,692.111
488.126,703.757
489.577,691.502
491.029,684.94
492.481,683.483
493.933,665.921
495.385,668.401
496.836,668.455
498.288,679.322
499.74,679.047
501.192,668.597
502.644,663.594
504.095,670.106
505.547,676.726
506.999,682.144
508.451,680.651
509.902,670.208
511.354,682.9
512.806,667.691
514.258,670.489
515.71,675.255
517.161,678.244
518.613,669.402
520.065,648.299
521.517,674.803
522.969,674.573
524.42,662.045
525.872,651.031
527.324,660.679
528.776,662.068
530.228,672.055
531.679,684.728
533.131,674.434
534.583,661.441
536.035,666.545
537.486,689.154
538.938,682.209
540.39,665.907
541.842,663.515
543.294,669.61
544.745,675.867
546.197,675.074
547.649,670.365
549.101,662.572
550.553,675.346
552.004,684.653
553.456,668.92
554.908,671.248
556.36,659.288
557.811,660.591
559.263,664.036
560.715,673.384
562.167,676.433
563.619,698.112
565.07,679.196
566.522,676.092
567.974,679.715
569.426,670.488
570.878,657.832
572.329,670.319
573.781,656.033
575.233,667.819
576.685,676.864
578.137,676.361
579.588,661.123
581.04,652.818
582.492,665.443
583.944,659.116
585.395,660.672
586.847,665.93
588.299,664.227
589.751,660.477
591.203,659.257
592.654,653.214
594.106,661.639
595.558,673.24
597.01,667.771
598.462,655.934
599.913,667.247
601.365,649.554
602.817,647.703
604.269,663.826
605.72,662.247
607.172,677.091
608.624,681.251
610.076,682.918
611.528,671.013
612.979,658.593
614.431,661.215
615.883,650.66
617.335,657.662
618.787,666.07
620.238,680.234
621.69,676.231
623.142,653.446
624.594,671.929
626.046,669.301
627.497,677.428
628.949,672.127
630.401,675.945
631.853,681.611
633.304,660.051
634.756,653.6
636.208,670.194
637.66,673.934
639.112,676.283
640.563,681.381
642.015,677.869
643.467,669.883
644.919,674.188
646.371,686.256
647.822,690.981
649.274,689.074
650.726,688.153
652.178,698.069
653.629,672.506
655.081,674.745
656.533,687.363
657.985,694.219
659.437,692.661
660.888,701.652
662.34,689.024
663.792,679.909
665.244,686.923
666.696,687.268
668.147,686.449
669.599,709.341
671.051,713.445
672.503,691.395
673.954,690.207
675.406,689.216
676.858,682.686
678.31,696.639
679.762,714.831
681.213,700.917
682.665,686.735
684.117,684.892
685.569,697.185
687.021,719.038
688.472,719.075
689.924,706.167
691.376,700.129
692.828,705.962
694.28,713.89
695.731,705.047
697.183,703.863
698.635,688.687
700.087,689.885
701.538,693.345
702.99,695.068
704.442,691.44
705.894,698.003
707.346,716.654
708.797,722.493
710.249,705.872
711.701,709.594
713.153,709.935
714.605,696.773
716.056,700.093
717.508,701.475
718.96,717.834
720.412,707.371
721.863,699.954
723.315,703.654
724.767,708.705
726.219,709.072
727.671,710.213
729.122,691.39
730.574,689.597
732.026,695.935
733.478,712.343
734.93,722.985
736.381,715.696
737.833,696.182
739.285,703.369
740.737,705.314
742.189,707.972
743.64,714.928
745.092,710.756
746.544,709.057
747.996,718.812
749.447,707.586
750.899,717.594
752.351,718.942
753.803,700.747
755.255,710.936
756.706,701.475
758.158,700.502
759.61,720.919
761.062,727.697
762.514,729.796
763.965,722.883
765.417,709.452
766.869,710.634
768.321,720.36
769.772,717.398
771.224,721.822
772.676,726.135
774.128,708.583
775.58,713.288
777.031,702.375
778.483,715.375
779.935,704.358
781.387,700.678
782.839,711.13
784.29,717.547
785.742,724.329
787.194,739.525
788.646,728.501
790.098,733.222
791.549,735.558
793.001,730.164
794.453,738.88
795.905,729.651
797.356,712.138
798.808,714.049
800.26,707.686
801.712,716.058
803.164,735.383
804.615,736.815
806.067,744.398
807.519,725.195
808.971,731.253
810.423,730.473
811.874,730.987
813.326,724.624
814.778,736.694
816.23,738.678
817.681,738.902
819.133,727.855
820.585,741.258
822.037,742.919
823.489,734.268
824.94,729.793
826.392,744.986
827.844,752.888
829.296,757.846
830.748,760.438
832.199,762.652
833.651,751.198
835.103,753.642
836.555,755.85
838.007,755.145
839.458,750.077
840.91,756.427
842.362,761.953
843.814,766.624
845.265,750.255
846.717,747.207
848.169,771.678
849.621,791.645
851.073,794.807
852.524,786.768
853.976,784.428
855.428,778.34
856.88,781.943
858.332,778.516
859.783,786.606
861.235,788.619
862.687,780.829
864.139,773.901
865.59,769.967
867.042,773.583
868.494,764.908
869.946,764.12
871.398,779.386
872.849,771.791
874.301,749.582
875.753,757.311
877.205,762.081
878.657,773.548
880.108,768.048
881.56,769.892
883.012,770.821
884.464,774.939
885.915,776.841
887.367,779.356
888.819,774.283
890.271,795.183
891.723,785.968
893.174,802.384
894.626,797.609
896.078,785.036
897.53,791.766
898.982,793.191
900.433,788.261
901.885,803.024
903.337,779.069
904.789,786.976
906.241,805.823
907.692,808.397
909.144,793.161
910.596,789.466
912.048,805.926
913.499,806.331
914.951,808.737
916.403,808.814
917.855,807.437
919.307,815.509
920.758,818.357
922.21,815.61
923.662,823.04
925.114,826.07
926.566,825.352
928.017,816.21
929.469,810.416
930.921,821.489
932.373,821.671
933.824,820.675
935.276,819.917
936.728,846.097
938.18,837.936
939.632,825.259
941.083,834.025
942.535,802.739
943.987,829.606
945.439,834.969
946.891,820.903
948.342,820.248
949.794,820.071
951.246,822.214
952.698,827.184
954.15,821.263
955.601,827.669
957.053,831.357
958.505,824.534
959.957,836.534
961.408,831.203
962.86,811.863
964.312,815.53
965.764,846.251
967.216,822.724
968.667,826.687
970.119,834.387
971.571,833.317
973.023,822.166
974.475,821.221
975.926,839.84
977.378,839.175
978.83,826.543
980.282,831.974
981.733,828.688
983.185,839.463
984.637,849.9
986.089,839.698
987.541,841.474
988.992,835.298
990.444,839.858
991.896,848.044
993.348,833.464
994.8,839.89
996.251,864.312
997.703,863.842
999.155,849.142
1000.61,868.729
1002.06,867.248
1003.51,870.427
1004.96,864.13
1006.41,868.636
1007.87,867.169
1009.32,886.243
1010.77,890.26
1012.22,873.068
1013.67,900.973
1015.12,877.31
1016.58,890.39
1018.03,897.009
1019.48,900.777
1020.93,903.22
1022.38,893.581
1023.84,903.723
1025.29,927.387
1026.74,940.728
1028.19,936.744
1029.64,939.356
1031.09,958.079
1032.55,964.231
1034,950.544
1035.45,960.891
1036.9,974.228
1038.35,969.211
1039.8,969.821
1041.26,977.249
1042.71,985.224
1044.16,1009.33
1045.61,1013.85
1047.06,993.837
1048.52,1001.2
1049.97,1030.31
1051.42,1014.09
1052.87,1028.14
1054.32,1045.45
1055.77,1026.04
1057.23,1027.28
1058.68,1065.95
1060.13,1054.4
1061.58,1085.38
1063.03,1079.32
1064.49,1085.52
1065.94,1105.54
1067.39,1118.98
1068.84,1111.23
1070.29,1121.51
1071.74,1136.54
1073.2,1131.93
1074.65,1158.34
1076.1,1152.52
1077.55,1186.33
1079,1181.95
1080.46,1175.07
1081.91,1185.83
1083.36,1197.94
1084.81,1174.95
1086.26,1206.95
1087.71,1201.96
1089.17,1179.09
1090.62,1186.02
1092.07,1193.09
1093.52,1166.41
1094.97,1151.35
1096.42,1200.41
1097.88,1204.7
1099.33,1164.94
1100.78,1169.83
1102.23,1170.75
1103.68,1166.21
1105.14,1170.71
1106.59,1162.37
1108.04,1146.14
1109.49,1137.38
1110.94,1163.08
1112.39,1154.73
1113.85,1148.32
1115.3,1127.46
1116.75,1119.72
1118.2,1116.44
1119.65,1113.53
1121.11,1122.8
1122.56,1107.9
1124.01,1114.73
1125.46,1077.83
1126.91,1097.26
1128.36,1077.42
1129.82,1073.65
1131.27,1083.9
1132.72,1092.94
1134.17,1092.22
1135.62,1080.07
1137.07,1076.88
1138.53,1071.19
1139.98,1073.73
1141.43,1071.48
1142.88,1057.01
1144.33,1068.8
1145.79,1081.01
1147.24,1059.7
1148.69,1041.25
1150.14,1069.25
1151.59,1072.8
1153.04,1079.48
1154.5,1070.19
1155.95,1068.91
1157.4,1069.45
1158.85,1062.99
1160.3,1068.31
1161.76,1080.02
1163.21,1064.5
1164.66,1070.85
1166.11,1073.84
1167.56,1061.45
1169.01,1058.48
1170.47,1070.67
1171.92,1083.21
1173.37,1075.33
1174.82,1078.39
1176.27,1070.57
1177.72,1082.79
1179.18,1091.93
1180.63,1107.17
1182.08,1100.12
1183.53,1084.71
1184.98,1083.7
1186.44,1084.46
1187.89,1087.87
1189.34,1100.28
1190.79,1087.23
1192.24,1108.74
1193.69,1086.95
1195.15,1099.57
1196.6,1106.3
1198.05,1114.49
1199.5,1115.92
1200.95,1121.22
1202.41,1132.24
1203.86,1119.6
1205.31,1132.85
1206.76,1144.49
1208.21,1140.33
1209.66,1128.37
1211.12,1122.37
1212.57,1129.96
1214.02,1136.74
1215.47,1136.58
1216.92,1127.77
1218.37,1155.13
1219.83,1157.24
1221.28,1150.96
1222.73,1165.8
1224.18,1156.66
1225.63,1137.46
1227.09,1132.9
1228.54,1161.32
1229.99,1178.08
1231.44,1149.56
1232.89,1143.2
1234.34,1182.6
1235.8,1176.42
1237.25,1172.3
1238.7,1187.19
1240.15,1195.01
1241.6,1188.5
1243.06,1190.34
1244.51,1210.58
1245.96,1208.65
1247.41,1229.74
1248.86,1246.37
1250.31,1236.11
1251.77,1219.79
1253.22,1234.97
1254.67,1247.77
1256.12,1261.2
1257.57,1288.74
1259.02,1299.01
1260.48,1301.2
1261.93,1320.02
1263.38,1297.21
1264.83,1342.06
1266.28,1339.31
1267.74,1334.57
1269.19,1356.41
1270.64,1382.56
1272.09,1397.87
1273.54,1416.16
1274.99,1427.03
1276.45,1443.24
1277.9,1459.78
1279.35,1504.72
1280.8,1472.84
1282.25,1512.36
1283.71,1547.36
1285.16,1574.8
1286.61,1596.88
1288.06,1619.36
1289.51,1665.59
1290.96,1722.5
1292.42,1715.84
1293.87,1776.06
1295.32,1821.39
1296.77,1855.22
1298.22,1923.07
1299.67,1993.91
1301.13,2056.33
1302.58,2103.18
1304.03,2148.22
1305.48,2221.75
1306.93,2316.51
1308.39,2385.15
1309.84,2511.47
1311.29,2604.99
1312.74,2698.21
1314.19,2830.73
1315.64,2962.14
1317.1,3073.71
1318.55,3203.56
1320,3347.25
1321.45,3463.47
1322.9,3601.62
1324.36,3750.79
1325.81,3902.42
1327.26,4065.84
1328.71,4135.66
1330.16,4210.19
1331.61,4329.08
1333.07,4415.3
1334.52,4464.58
1335.97,4541.48
1337.42,4517.06
1338.87,4490.88
1340.33,4420.96
1341.78,4382.95
1343.23,4260.39
1344.68,4124.66
1346.13,4023.05
1347.58,3907.17
1349.04,3766.87
1350.49,3611.98
1351.94,3437.6
1353.39,3317.58
1354.84,3199.94
1356.29,3003.76
1357.75,2903.17
1359.2,2783.96
1360.65,2685.38
1362.1,2566.16
1363.55,2453.59
1365.01,2391.76
1366.46,2307.1
1367.91,2195.88
1369.36,2148.93
1370.81,2075.46
1372.26,2007.03
1373.72,1998.27
1375.17,1948.65
1376.62,1916.94
1378.07,1863.58
1379.52,1816.2
1380.98,1784.75
1382.43,1751.28
1383.88,1740.14
1385.33,1713.51
1386.78,1680.12
1388.23,1680.07
1389.69,1647.36
1391.14,1622.65
1392.59,1625.24
1394.04,1623.18
1395.49,1589.51
1396.94,1567.15
1398.4,1558.06
1399.85,1554.53
1401.3,1552.21
1402.75,1545.16
1404.2,1550.23
1405.66,1552.09
1407.11,1528.07
1408.56,1538.95
1410.01,1523.5
1411.46,1539.66
1412.91,1551.12
1414.37,1523.18
1415.82,1528.81
1417.27,1536.43
1418.72,1545.86
1420.17,1545.31
1421.63,1545.85
1423.08,1552.71
1424.53,1551.53
1425.98,1542.71
1427.43,1584.32
1428.88,1545.93
1430.34,1572.09
1431.79,1570.34
1433.24,1580.48
1434.69,1575.74
1436.14,1592.04
1437.59,1618.42
1439.05,1614.38
1440.5,1630.02
1441.95,1618.48
1443.4,1619.65
1444.85,1618.55
1446.31,1635.15
1447.76,1633.9
1449.21,1639.54
1450.66,1663.73
1452.11,1691.87
1453.56,1708.27
1455.02,1718.09
1456.47,1711.36
1457.92,1709.75
1459.37,1747.7
1460.82,1776.22
1462.28,1787.38
1463.73,1779.15
1465.18,1831.63
1466.63,1805.2
1468.08,1845.5
1469.53,1865.84
1470.99,1867.84
1472.44,1882.39
1473.89,1905.03
1475.34,1942.82
1476.79,2000.02
1478.24,2011.53
1479.7,2017.8
1481.15,2067.89
1482.6,2095.17
1484.05,2129.38
1485.5,2180.63
1486.96,2203.23
1488.41,2238.09
1489.86,2273.5
1491.31,2315.36
1492.76,2342.94
1494.21,2359.49
1495.67,2443.75
1497.12,2549.05
1498.57,2576.96
1500.02,2605.19
1501.47,2675.29
1502.93,2763.06
1504.38,2763.28
1505.83,2892.83
1507.28,2940.13
1508.73,3057.21
1510.18,3164.78
1511.64,3267.27
1513.09,3388.44
1514.54,3483.19
1515.99,3635.3
1517.44,3825.83
1518.89,3985.41
1520.35,4115.89
1521.8,4272.32
1523.25,4499.21
1524.7,4737.81
1526.15,5102.65
1527.61,5353.21
1529.06,5744.27
1530.51,6113.22
1531.96,6557.51
1533.41,7068.99
1534.86,7595.61
1536.32,8201.75
1537.77,8929.54
1539.22,9717.1
1540.67,10570.2
1542.12,11444.1
1543.58,12591.2
1545.03,13753.6
1546.48,15061.6
1547.93,16324
1549.38,17665.1
1550.83,19050.5
1552.29,20569.4
1553.74,22034.4
1555.19,23466.7
1556.64,24975.7
1558.09,26372.6
1559.54,27639.6
1561,28768.5
1562.45,29681.3
1563.9,30249.9
1565.35,30645.1
1566.8,30720.5
1568.26,30512.2
1569.71,29724
1571.16,28758.1
1572.61,27594.9
1574.06,26195.9
1575.51,24701
1576.97,23110.4
1578.42,21514.3
1579.87,19990.2
1581.32,18472.7
1582.77,17041.6
1584.23,15715.4
1585.68,14428.1
1587.13,13356.4
1588.58,12234.4
1590.03,11234.3
1591.48,10355.8
1592.94,9506.21
1594.39,8897
1595.84,8355.42
1597.29,7781.8
1598.74,7392.73
1600.2,7006.16
1601.65,6621.49
1603.1,6263.45
1604.55,5961.68
1606,5663.39
1607.45,5378.07
1608.91,5140.74
1610.36,4918.01
1611.81,4691.82
1613.26,4412.79
1614.71,4202.7
1616.16,4008.21
1617.62,3809.74
1619.07,3648.55
1620.52,3449.34
1621.97,3345.7
1623.42,3215.03
1624.88,3071.1
1626.33,2978.82
1627.78,2863.32
1629.23,2765.17
1630.68,2674.09
1632.13,2561.58
1633.59,2510.06
1635.04,2484.93
1636.49,2436.44
1637.94,2350.4
1639.39,2266.01
1640.85,2240.87
1642.3,2191.64
1643.75,2148.9
1645.2,2102.16
1646.65,2092.79
1648.1,2069.2
1649.56,2039.5
1651.01,1978.46
1652.46,1950.18
1653.91,1919.33
1655.36,1891.89
1656.81,1887.88
1658.27,1835.65
1659.72,1789.76
1661.17,1781.51
1662.62,1762.15
1664.07,1729.88
1665.53,1723.33
1666.98,1723.16
1668.43,1679.61
1669.88,1633.24
1671.33,1624.37
1672.78,1619.38
1674.24,1575.44
1675.69,1545.44
1677.14,1559.07
1678.59,1560.41
1680.04,1535.02
1681.5,1511.33
1682.95,1509.54
1684.4,1514.09
1685.85,1502.2
1687.3,1487.34
1688.75,1469.36
1690.21,1451.2
1691.66,1440.2
1693.11,1403.52
1694.56,1421.27
1696.01,1426.43
1697.46,1403.83
1698.92,1395.19
1700.37,1378.61
1701.82,1371.46
1703.27,1369.06
1704.72,1379.89
1706.18,1380.34
1707.63,1371.35
1709.08,1355.17
1710.53,1362.28
1711.98,1356.13
1713.43,1326.46
1714.89,1335.59
1716.34,1334.72
1717.79,1336.14
1719.24,1320.04
1720.69,1333.77
1722.15,1363.11
1723.6,1334.01
1725.05,1350.14
1726.5,1332.8
1727.95,1311.58
1729.4,1325.16
1730.86,1324.92
1732.31,1342.42
1733.76,1354.3
1735.21,1310.02
1736.66,1297.8
1738.11,1312.83
1739.57,1305.03
1741.02,1286
1742.47,1292.61
1743.92,1298.18
1745.37,1276.19
1746.83,1264.17
1748.28,1266.67
1749.73,1277.27
1751.18,1283.76
1752.63,1268.99
1754.08,1245.31
1755.54,1270.69
1756.99,1273.84
1758.44,1254.68
1759.89,1220.68
1761.34,1240.83
1762.8,1229.61
1764.25,1221.52
1765.7,1213.59
1767.15,1224.8
1768.6,1229.74
1770.05,1226.46
1771.51,1213.5
1772.96,1182.02
1774.41,1179.55
1775.86,1188.36
1777.31,1191.21
1778.76,1174
1780.22,1157.7
1781.67,1177.37
1783.12,1189.2
1784.57,1179.56
1786.02,1148.85
1787.48,1151.95
1788.93,1174.3
1790.38,1152.42
1791.83,1138.8
1793.28,1166.7
1794.73,1196.89
1796.19,1143.32
1797.64,1122.65
1799.09,1142.27
1800.54,1134.82
1801.99,1133.9
1803.45,1145.32
1804.9,1146.55
1806.35,1144.75
1807.8,1149.35
1809.25,1140.7
1810.7,1127.14
1812.16,1120.44
1813.61,1120.27
1815.06,1121.41
1816.51,1114.51
1817.96,1126.43
1819.41,1133.43
1820.87,1123.19
1822.32,1111.27
1823.77,1125.74
1825.22,1131.84
1826.67,1151.57
1828.13,1115.52
1829.58,1142.64
1831.03,1132.45
1832.48,1123.66
1833.93,1118.78
1835.38,1102.6
1836.84,1156.46
1838.29,1145.29
1839.74,1167.92
1841.19,1174.17
1842.64,1167.4
1844.1,1176.07
1845.55,1170.38
1847,1174.96
1848.45,1170.87
1849.9,1162.23
1851.35,1179.01
1852.81,1204.2
1854.26,1205.93
1855.71,1199.71
1857.16,1216.31
1858.61,1220.33
1860.07,1198.14
1861.52,1188.03
1862.97,1186.13
1864.42,1199.09
1865.87,1204.66
1867.32,1235.99
1868.78,1216.17
1870.23,1187.06
1871.68,1175.56
1873.13,1193.3
1874.58,1164.79
1876.03,1158.98
1877.49,1194.81
1878.94,1172.72
1880.39,1145.65
1881.84,1151.02
1883.29,1162.86
1884.75,1159.73
1886.2,1157.83
1887.65,1132.51
1889.1,1118.52
1890.55,1129.3
1892,1132.87
1893.46,1113
1894.91,1116.31
1896.36,1120.64
1897.81,1103.85
1899.26,1098.11
1900.72,1091.41
1902.17,1089.82
1903.62,1085.29
1905.07,1092.45
1906.52,1073.03
1907.97,1070.54
1909.43,1086.22
1910.88,1075.52
1912.33,1078.23
1913.78,1066.51
1915.23,1077.56
1916.68,1077.75
1918.14,1055.47
1919.59,1064.95
1921.04,1034.8
1922.49,1062.62
1923.94,1058.08
1925.4,1064.46
1926.85,1067.84
1928.3,1050.74
1929.75,1023.21
1931.2,1058.52
1932.65,1070.24
1934.11,1062.92
1935.56,1067.63
1937.01,1044.02
1938.46,1061.66
1939.91,1059.32
1941.37,1069.79
1942.82,1070.06
1944.27,1071.71
1945.72,1091.36
1947.17,1072.66
1948.62,1071.32
1950.08,1058.97
1951.53,1066.06
1952.98,1069.79
1954.43,1070.95
1955.88,1058.25
1957.33,1082.65
1958.79,1092.13
1960.24,1061.48
1961.69,1048.48
1963.14,1070.97
1964.59,1068
1966.05,1082.66
1967.5,1086.66
1968.95,1085.09
1970.4,1098.93
1971.85,1098.66
1973.3,1094.95
1974.76,1108.03
1976.21,1102.87
1977.66,1098.27
1979.11,1099.68
1980.56,1091.12
1982.02,1104.59
1983.47,1093.13
1984.92,1087.63
1986.37,1101.54
1987.82,1117.17
1989.27,1113.52
1990.73,1107.61
1992.18,1105.22
1993.63,1107.34
1995.08,1110.6
1996.53,1128.32
1997.98,1091.82
1999.44,1091.64
2000.89,1138.27
2002.34,1094.61
2003.79,1109.68
2005.24,1102.08
2006.7,1128.35
2008.15,1102.53
2009.6,1119.43
2011.05,1115.01
2012.5,1111.67
2013.95,1121.7
2015.41,1096.8
2016.86,1077.86
2018.31,1077.57
2019.76,1073.41
2021.21,1068.49
2022.67,1059.51
2024.12,1049.45
2025.57,1080.62
2027.02,1071.82
2028.47,1079.25
2029.92,1038.68
2031.38,1057.39
2032.83,1063.67
2034.28,1060.46
2035.73,1035.49
2037.18,1044.69
2038.63,1032.12
2040.09,1029.29
2041.54,1004.39
2042.99,1027.32
2044.44,1033.93
2045.89,1019.7
2047.35,1008.85
2048.8,1019.42
2050.25,1012.93
2051.7,1014.3
2053.15,1027.62
2054.6,1015
2056.06,988.263
2057.51,1004.88
2058.96,999.911
2060.41,989.712
2061.86,995.072
2063.32,1002.67
2064.77,992.814
2066.22,982.533
2067.67,983.749
2069.12,998.133
2070.57,976.586
2072.03,994.391
2073.48,990.838
2074.93,980.236
2076.38,973.76
2077.83,990.135
2079.28,992.413
2080.74,978.793
2082.19,974.047
2083.64,990.401
2085.09,1004.59
2086.54,995.181
2088,983.668
2089.45,977.558
2090.9,960.805
2092.35,956.921
2093.8,965.402
2095.25,971.394
2096.71,960.839
2098.16,985.255
2099.61,995.654
2101.06,999.702
2102.51,997.997
2103.97,993.011
2105.42,971.617
2106.87,967.57
2108.32,965.33
2109.77,957.174
2111.22,959.317
2112.68,957.083
2114.13,963.102
2115.58,957.235
2117.03,963.716
2118.48,980.142
2119.94,973.636
2121.39,992.921
2122.84,979.572
2124.29,986.583
2125.74,992.807
2127.19,995.853
2128.65,1018.95
2130.1,988.101
2131.55,981.315
2133,992.706
2134.45,987.031
2135.9,986.075
2137.36,996.54
2138.81,983.317
2140.26,977.961
2141.71,962.234
2143.16,993.174
2144.62,996.126
2146.07,989.343
2147.52,984.755
2148.97,988.293
2150.42,1003.76
2151.87,987.71
2153.33,1018.77
2154.78,1011.69
2156.23,1003.06
2157.68,996.4
2159.13,1005.87
2160.58,1015.7
2162.04,1009.26
2163.49,1041.77
2164.94,1036.11
2166.39,1011.29
2167.84,1017.47
2169.3,1016.03
2170.75,1024.01
2172.2,1026.24
2173.65,1024.01
2175.1,1037.49
2176.55,1048.39
2178.01,1045.18
2179.46,1024.36
2180.91,1041.95
2182.36,1047.82
2183.81,1060.09
2185.27,1053.38
2186.72,1066.67
2188.17,1074.99
2189.62,1054.36
2191.07,1055.45
2192.52,1063.62
2193.98,1063.02
2195.43,1049.58
2196.88,1061.96
2198.33,1061.29
2199.78,1045.15
2201.24,1047.32
2202.69,1062.29
2204.14,1075.19
2205.59,1036.75
2207.04,1076.11
2208.49,1066.01
2209.95,1063.55
2211.4,1086.1
2212.85,1067.19
2214.3,1061.28
2215.75,1045.31
2217.2,1064.81
2218.66,1066.13
2220.11,1086.1
2221.56,1081.43
2223.01,1067.86
2224.46,1081.49
2225.92,1089
2227.37,1087.57
2228.82,1048.95
2230.27,1094.41
2231.72,1055.91
2233.17,1056.37
2234.63,1086.93
2236.08,1088.24
2237.53,1082.43
2238.98,1074.03
2240.43,1109.77
2241.89,1085.68
2243.34,1099.65
2244.79,1082.9
2246.24,1105.85
2247.69,1102.05
2249.14,1101.65
2250.6,1093.76
2252.05,1097.86
2253.5,1083.87
2254.95,1096.26
2256.4,1099.74
2257.85,1123.32
2259.31,1123.75
2260.76,1120.39
2262.21,1110.73
2263.66,1127.04
2265.11,1130.25
2266.57,1123.96
2268.02,1125.25
2269.47,1150.88
2270.92,1144.28
2272.37,1131.04
2273.82,1141.74
2275.28,1148.12
2276.73,1145.46
2278.18,1130.14
2279.63,1149.85
2281.08,1158.17
2282.54,1146.9
2283.99,1162.56
2285.44,1165.25
2286.89,1169.8
2288.34,1169.05
2289.79,1148.12
2291.25,1175.19
2292.7,1183.53
2294.15,1172.5
2295.6,1183.16
2297.05,1207.63
2298.5,1206.72
2299.96,1159.21
2301.41,1175.79
2302.86,1194.58
2304.31,1208.06
2305.76,1213.91
2307.22,1190.63
2308.67,1210.44
2310.12,1198.96
2311.57,1225.35
2313.02,1228.74
2314.47,1232.5
2315.93,1231.94
2317.38,1231.81
2318.83,1224.18
2320.28,1231.71
2321.73,1225.3
2323.19,1242.74
2324.64,1245.06
2326.09,1243.82
2327.54,1253.93
2328.99,1266.03
2330.44,1266.82
2331.9,1272.78
2333.35,1301.51
2334.8,1289.96
2336.25,1301.69
2337.7,1291.89
2339.16,1299.89
2340.61,1320.06
2342.06,1326.2
2343.51,1314.88
2344.96,1343.48
2346.41,1323.02
2347.87,1313.17
2349.32,1336.62
2350.77,1357.84
2352.22,1389.59
2353.67,1358.72
2355.12,1362.23
2356.58,1366.48
2358.03,1403.37
2359.48,1395.1
2360.93,1430.19
2362.38,1402.02
2363.84,1415.29
2365.29,1436.68
2366.74,1462.77
2368.19,1438.47
2369.64,1478.14
2371.09,1473.29
2372.55,1494.06
2374,1506.44
2375.45,1518.12
2376.9,1547.55
2378.35,1560.21
2379.8,1560.62
2381.26,1585.46
2382.71,1582.07
2384.16,1603.62
2385.61,1650.09
2387.06,1693.26
2388.52,1697.11
2389.97,1676.63
2391.42,1689.64
2392.87,1765.99
2394.32,1796.67
2395.77,1863.99
2397.23,1864.39
2398.68,1873.22
2400.13,1894.9
2401.58,1944.59
2403.03,1962.57
2404.49,2012.84
2405.94,2043.9
2407.39,2065.68
2408.84,2103.55
2410.29,2156.06
2411.74,2160.03
2413.2,2182.98
2414.65,2223.43
2416.1,2241.92
2417.55,2279.1
2419,2298.9
2420.46,2315.38
2421.91,2304.6
2423.36,2324.57
2424.81,2363.84
2426.26,2379.78
2427.71,2337.25
2429.17,2362.27
2430.62,2396.26
2432.07,2371.48
2433.52,2349.11
2434.97,2379.12
2436.42,2371.76
2437.88,2365.52
2439.33,2343.25
2440.78,2349.53
2442.23,2315.02
2443.68,2300.29
2445.14,2289.71
2446.59,2267.47
2448.04,2245.52
2449.49,2233.1
2450.94,2268.31
2452.39,2227.98
2453.85,2250.84
2455.3,2226.61
2456.75,2167.05
2458.2,2140.22
2459.65,2135.61
2461.1,2161.23
2462.56,2131.2
2464.01,2113.33
2465.46,2140.95
2466.91,2118.67
2468.36,2092.6
2469.82,2094.35
2471.27,2062.56
2472.72,2071.3
2474.17,2077.37
2475.62,2061.97
2477.07,2111.26
2478.53,2077.18
2479.98,2067.1
2481.43,2038.12
2482.88,2057.77
2484.33,2076.28
2485.79,2070.82
2487.24,2048.03
2488.69,2034.96
2490.14,2047.03
2491.59,2066.29
2493.04,2068.48
2494.5,2034.63
2495.95,2103.46
2497.4,2069.95
2498.85,2069.27
2500.3,2054.99
2501.76,2099.74
2503.21,2075.59
2504.66,2066.97
2506.11,2110.94
2507.56,2084
2509.01,2098.79
2510.47,2103.73
2511.92,2113.5
2513.37,2138.82
2514.82,2139.35
2516.27,2151.5
2517.72,2154.95
2519.18,2196.64
2520.63,2202.59
2522.08,2223.48
2523.53,2246.38
2524.98,2232.8
2526.44,2251.02
2527.89,2259.33
2529.34,2278.67
2530.79,2336.44
2532.24,2358.47
2533.69,2376.3
2535.15,2418.17
2536.6,2424.72
2538.05,2425.18
2539.5,2456.48
2540.95,2507.61
2542.41,2514.31
2543.86,2528.53
2545.31,2576.12
2546.76,2627.47
2548.21,2661.17
2549.66,2682.8
2551.12,2736.6
2552.57,2781.3
2554.02,2799.79
2555.47,2860.41
2556.92,2873.56
2558.37,2926.47
2559.83,2957.17
2561.28,3049.27
2562.73,3081.41
2564.18,3143.72
2565.63,3200.11
2567.09,3282.62
2568.54,3338.67
2569.99,3383.14
2571.44,3436.22
2572.89,3482.48
2574.34,3606.07
2575.8,3693.74
2577.25,3759.93
2578.7,3845.84
2580.15,3920.83
2581.6,4060.51
2583.06,4183.02
2584.51,4220.08
2585.96,4343.15
2587.41,4480.63
2588.86,4583.13
2590.31,4700.65
2591.77,4866.45
2593.22,5024.35
2594.67,5145.17
2596.12,5281.89
2597.57,5465.96
2599.02,5701.5
2600.48,5884.49
2601.93,6034.56
2603.38,6288.01
2604.83,6528.9
2606.28,6724.31
2607.74,6900.19
2609.19,7220.8
2610.64,7560.27
2612.09,7831.57
2613.54,8144.28
2614.99,8397.58
2616.45,8731.27
2617.9,9115.26
2619.35,9461.46
2620.8,9728.4
2622.25,10073.7
2623.71,10534.9
2625.16,10945.5
2626.61,11376.8
2628.06,11813.3
2629.51,12276.3
2630.96,12733.6
2632.42,13155.1
2633.87,13608.7
2635.32,14105.3
2636.77,14461.9
2638.22,14926.5
2639.68,15386.5
2641.13,15764
2642.58,16174.4
2644.03,16634.9
2645.48,16934.4
2646.93,17320.2
2648.39,17764.1
2649.84,17837
2651.29,18154.1
2652.74,18385.8
2654.19,18546.1
2655.64,18737.1
2657.1,18806.7
2658.55,18821.7
2660,18797.8
2661.45,18754.7
2662.9,18536.7
2664.36,18512.5
2665.81,18264.6
2667.26,18091.3
2668.71,17877
2670.16,17506.1
2671.61,17115
2673.07,16703
2674.52,16472.8
2675.97,15940.1
2677.42,15505.4
2678.87,15040.1
2680.32,14617.4
2681.78,14189.2
2683.23,13769.5
2684.68,13239
2686.13,12714.4
2687.58,12205.6
2689.04,11725.5
2690.49,11307.8
2691.94,10889.5
2693.39,10361.2
2694.84,10018.2
2696.29,9600.46
2697.75,9203.95
2699.2,8806.97
2700.65,8478.01
2702.1,8142.25
2703.55,7733.92
2705.01,7415.85
2706.46,7073.58
2707.91,6804.56
2709.36,6634.81
2710.81,6315.77
2712.26,5994.59
2713.72,5816.58
2715.17,5656.21
2716.62,5445.6
2718.07,5218.33
2719.52,4986.95
2720.98,4830.65
2722.43,4662.76
2723.88,4536.83
2725.33,4380.97
2726.78,4224.28
2728.23,4084.75
2729.69,3957.66
2731.14,3851.48
2732.59,3771.86
2734.04,3662.33
2735.49,3555.08
2736.94,3468.61
2738.4,3390.34
2739.85,3293.96
2741.3,3229.01
2742.75,3149.87
2744.2,3110.03
2745.66,2994.31
2747.11,2967.17
2748.56,2891.98
2750.01,2837.22
2751.46,2770.68
2752.91,2704.12
2754.37,2662.41
2755.82,2654.52
2757.27,2586.23
2758.72,2541.27
2760.17,2520.69
2761.63,2467.46
2763.08,2411.4
2764.53,2448.47
2765.98,2344.27
2767.43,2355.96
2768.88,2300.28
2770.34,2247.81
2771.79,2231.66
2773.24,2203.37
2774.69,2220.33
2776.14,2226.11
2777.59,2146.25
2779.05,2172.05
2780.5,2088.9
2781.95,2046.28
2783.4,2082.37
2784.85,2025.83
2786.31,1976.13
2787.76,1981.66
2789.21,1962.32
2790.66,1968.7
2792.11,1965.77
2793.56,1919.39
2795.02,1924.64
2796.47,1871.72
2797.92,1846.77
2799.37,1862.69
2800.82,1821.22
2802.28,1831.43
2803.73,1800.17
2805.18,1807.08
2806.63,1824.89
2808.08,1799.2
2809.53,1766.43
2810.99,1770.71
2812.44,1718.97
2813.89,1751.61
2815.34,1738.81
2816.79,1720.12
2818.24,1709.46
2819.7,1684.47
2821.15,1667.43
2822.6,1684.85
2824.05,1620.23
2825.5,1625.22
2826.96,1640.31
2828.41,1658.55
2829.86,1631.21
2831.31,1643.03
2832.76,1621.95
2834.21,1594.05
2835.67,1618.7
2837.12,1612.25
2838.57,1584.21
2840.02,1624.17
2841.47,1588.27
2842.93,1596.3
2844.38,1565.4
2845.83,1584.81
2847.28,1577.89
2848.73,1571.58
2850.18,1557.48
2851.64,1594.72
2853.09,1580.92
2854.54,1576.87
2855.99,1559.11
2857.44,1544.33
2858.9,1523.26
2860.35,1575.88
2861.8,1535.69
2863.25,1572.26
2864.7,1580.93
2866.15,1570.16
2867.61,1557.89
2869.06,1554.22
2870.51,1591.97
2871.96,1558.49
2873.41,1525.24
2874.86,1562.73
2876.32,1537.98
2877.77,1591.59
2879.22,1577.04
2880.67,1562.67
2882.12,1529.12
2883.58,1529.36
2885.03,1548.35
2886.48,1575.75
2887.93,1573.09
2889.38,1607.44
2890.83,1576.88
2892.29,1578.25
2893.74,1565.1
2895.19,1586.66
2896.64,1579.17
2898.09,1551.01
2899.54,1580.11
2901,1572.06
2902.45,1577.89
2903.9,1581.87
2905.35,1607.61
2906.8,1593.28
2908.26,1573.71
2909.71,1565.76
2911.16,1550.94
2912.61,1573.94
2914.06,1581.51
2915.51,1566.19
2916.97,1569.34
2918.42,1538.38
2919.87,1550.58
2921.32,1505.92
2922.77,1532.25
2924.23,1505.29
2925.68,1496.74
2927.13,1504.87
2928.58,1513.12
2930.03,1478.85
2931.48,1495.75
2932.94,1452.75
2934.39,1438.77
2935.84,1426.86
2937.29,1412.71
2938.74,1442.72
2940.2,1429.54
2941.65,1371.55
2943.1,1351.56
2944.55,1371.15
2946,1351.79
2947.45,1343.65
2948.91,1346.93
2950.36,1322.61
2951.81,1314.92
2953.26,1296.54
2954.71,1261.24
2956.16,1284.17
2957.62,1260.15
2959.07,1235.53
2960.52,1241.24
2961.97,1231.94
2963.42,1228.26
2964.88,1205.46
2966.33,1218.89
2967.78,1211.29
2969.23,1191.56
2970.68,1193.98
2972.13,1191.56
2973.59,1194.65
2975.04,1186.7
2976.49,1159.67
2977.94,1164.56
2979.39,1135.19
2980.84,1149.04
2982.3,1142.39
2983.75,1146.53
2985.2,1123.11
2986.65,1123
2988.1,1130.88
2989.56,1109.49
2991.01,1110.07
2992.46,1121.71
2993.91,1095.19
2995.36,1107.59
2996.81,1131.71
2998.27,1102.91
2999.72,1095.86
3001.17,1072.67
3002.62,1065.56
3004.07,1066.57
3005.53,1093.6
3006.98,1077.16
3008.43,1084.66
3009.88,1089.87
3011.33,1075.98
3012.78,1078.93
3014.24,1071.23
3015.69,1080.82
3017.14,1069.47
3018.59,1064.83
3020.04,1043.61
3021.5,1070.26
3022.95,1067.28
3024.4,1055.98
3025.85,1051.59
3027.3,1053.98
3028.75,1080.7
3030.21,1051.05
3031.66,1052.42
3033.11,1060.97
3034.56,1041.88
3036.01,1038.29
3037.46,1057.63
3038.92,1057.77
3040.37,1039.27
3041.82,1055.91
3043.27,1031.65
3044.72,1055.34
3046.18,1037.58
3047.63,1046.28
3049.08,1041.69
3050.53,1070.26
3051.98,1060.5
3053.43,1054.49
3054.89,1057.16
3056.34,1077.97
3057.79,1064.36
3059.24,1046.62
3060.69,1051.77
3062.15,1065.15
3063.6,1045.35
3065.05,1047.61
3066.5,1078.42
3067.95,1074.12
3069.4,1088.25
3070.86,1090.44
3072.31,1095.11
3073.76,1069.05
3075.21,1079.86
3076.66,1107.54
3078.11,1099.41
3079.57,1096.64
3081.02,1119.51
3082.47,1110.94
3083.92,1117.38
3085.37,1121.56
3086.83,1156.6
3088.28,1132.9
3089.73,1134.77
3091.18,1157.75
3092.63,1180.11
3094.08,1192.67
3095.54,1176.49
3096.99,1195.76
3098.44,1254.92
3099.89,1218.92
3101.34,1256.08
3102.8,1256.87
3104.25,1264.54
3105.7,1288.29
3107.15,1291.04
3108.6,1320.36
3110.05,1344.91
3111.51,1306.29
3112.96,1349.91
3114.41,1378.79
3115.86,1397.17
3117.31,1417.32
3118.76,1436.36
3120.22,1480.5
3121.67,1452.81
3123.12,1476.62
3124.57,1522.06
3126.02,1516.66
3127.48,1515.02
3128.93,1528.7
3130.38,1546.72
3131.83,1580.88
3133.28,1593.63
3134.73,1585.8
3136.19,1617.04
3137.64,1629.07
3139.09,1618.97
3140.54,1639.56
3141.99,1633.87
3143.45,1630.49
3144.9,1676.19
3146.35,1661.1
3147.8,1643.8
3149.25,1695.61
3150.7,1656.86
3152.16,1672.1
3153.61,1650.48
3155.06,1682.88
3156.51,1673.31
3157.96,1677.27
3159.42,1646.74
3160.87,1686.42
3162.32,1683.66
3163.77,1660.12
3165.22,1691.4
3166.67,1715.67
3168.13,1688.67
3169.58,1690.01
3171.03,1745.01
3172.48,1730.64
3173.93,1734.95
3175.38,1741.88
3176.84,1777.47
3178.29,1798.18
3179.74,1853.78
3181.19,1792.08
3182.64,1819.65
3184.1,1877.8
3185.55,1848.53
3187,1847.84
3188.45,1879.56
3189.9,1951.82
3191.35,1946.84
3192.81,1958.49
3194.26,1921.77
3195.71,1972.59
3197.16,2002.94
3198.61,1991.8
3200.06,1987.38
3201.52,2009.22
3202.97,2018.69
3204.42,2002.86
3205.87,1970.92
3207.32,1962.88
3208.78,1949.38
3210.23,1936.48
3211.68,1880.46
3213.13,1835.72
3214.58,1840.46
3216.03,1804.61
3217.49,1798.1
3218.94,1784.56
3220.39,1712.39
3221.84,1687.24
3223.29,1624.77
3224.75,1586.36
3226.2,1555.64
3227.65,1521.9
3229.1,1501.86
3230.55,1451.11
3232,1398.17
3233.46,1375.74
3234.91,1338.18
3236.36,1298.31
3237.81,1265.3
3239.26,1258.25
3240.72,1220.15
3242.17,1204.71
3243.62,1157.21
3245.07,1144.87
3246.52,1127.45
3247.97,1120.93
3249.43,1102.54
3250.88,1064.64
3252.33,1043.47
3253.78,1053.89
3255.23,1028.94
3256.68,1021.21
3258.14,1009.58
3259.59,969.229
3261.04,974.63
3262.49,959.714
3263.94,947.786
3265.4,966.731
3266.85,941.133
3268.3,955.23
3269.75,924.914
3271.2,946.903
3272.65,935.008
3274.11,910.623
3275.56,893.025
3277.01,931.094
3278.46,925.384
3279.91,915.82
3281.37,901.093
3282.82,894.605
3284.27,898.997
3285.72,904.154
3287.17,886.391
3288.62,884.607
3290.08,909.058
3291.53,904.552
3292.98,889.2
3294.43,884.94
3295.88,890.508
3297.33,898.645
3298.79,878.571
3300.24,853.033
3301.69,851.813
3303.14,855.505
3304.59,881.142
3306.05,861.788
3307.5,853.123
3308.95,851.508
3310.4,862.271
3311.85,890.706
3313.3,871.615
3314.76,864.043
3316.21,861.96
3317.66,858.866
3319.11,842.269
3320.56,853.393
3322.02,865.736
3323.47,868.045
3324.92,855.742
3326.37,842.135
3327.82,836.025
3329.27,856.633
3330.73,849.735
3332.18,830.706
3333.63,837.445
3335.08,832.969
3336.53,847.765
3337.98,864.791
3339.44,855.122
3340.89,854.833
3342.34,841.723
3343.79,848.373
3345.24,848
3346.7,838.341
3348.15,837.979
3349.6,836.488
3351.05,851.754
3352.5,842.347
3353.95,846.627
3355.41,860.988
3356.86,828.812
3358.31,840.118
3359.76,834.546
3361.21,828.923
3362.67,838.42
3364.12,804.846
3365.57,843.802
3367.02,836.075
3368.47,832.995
3369.92,843.445
3371.38,837.983
3372.83,859.622
3374.28,835.535
3375.73,826.945
3377.18,829.307
3378.63,841.754
3380.09,824.67
3381.54,810.141
3382.99,818.362
3384.44,826.527
3385.89,834.153
3387.35,827.29
3388.8,839.189
3390.25,838.569
3391.7,831.545
3393.15,828.207
3394.6,835.049
3396.06,843.999
3397.51,809.951
3398.96,819.619
3400.41,815.563
3401.86,810.38
3403.32,832.417
3404.77,846.525
3406.22,852.462
3407.67,824.609
3409.12,822.154
3410.57,820.509
3412.03,831.586
3413.48,821.277
3414.93,835.435
3416.38,814.146
3417.83,822.867
3419.28,836.275
3420.74,830.441
3422.19,844.768
3423.64,829.288
3425.09,825.304
3426.54,823.358
3428,808.99
3429.45,811.078
3430.9,811.292
3432.35,811.178
3433.8,806.329
3435.25,789.363
3436.71,808.055
3438.16,822.244
3439.61,817.148
3441.06,825.65
3442.51,813.031
3443.97,821.01
3445.42,839.698
3446.87,810.802
3448.32,809.193
3449.77,811.065
3451.22,810.734
3452.68,821.209
3454.13,808.048
3455.58,801.576
3457.03,806.137
3458.48,808.793
3459.94,787.719
3461.39,797.272
3462.84,791.558
3464.29,807.614
3465.74,817.742
3467.19,829.342
3468.65,805.623
3470.1,815.689
3471.55,805.434
3473,800.437
3474.45,815.364
3475.9,801.508
3477.36,797.704
3478.81,780.171
3480.26,789.607
3481.71,816.552
3483.16,813.786
3484.62,829.168
3486.07,813.186
3487.52,821.726
3488.97,826.125
3490.42,841.06
3491.87,791.766
3493.33,806.388
3494.78,820.078
3496.23,802.266
3497.68,799.031
3499.13,815.424
3500.58,821.583
3502.04,807.447
3503.49,825.386
3504.94,812.801
3506.39,821.85
3507.84,810.457
3509.3,785.488
3510.75,817.745
3512.2,810.323
3513.65,810.412
3515.1,816.219
3516.55,841.814
3518.01,832.147
3519.46,823.272
3520.91,806.232
3522.36,812.626
3523.81,828.785
3525.27,785.399
3526.72,796.741
3528.17,803.308
3529.62,813.141
3531.07,825.018
3532.52,814.087
3533.98,832.959
3535.43,811.394
3536.88,824.128
3538.33,814.112
3539.78,812.611
3541.24,817.444
3542.69,792.129
3544.14,817.926
3545.59,829.603
3547.04,795.927
3548.49,804.885
3549.95,806.529
3551.4,807.628
3552.85,785.951
3554.3,806.677
3555.75,800.333
3557.2,811.055
3558.66,787.875
3560.11,798.205
3561.56,809.066
3563.01,793.386
3564.46,805.582
3565.92,816.174
3567.37,805.807
3568.82,811.433
3570.27,804.336
3571.72,813.122
3573.17,798.372
3574.63,810.268
3576.08,818.248
3577.53,786.754
3578.98,796.332
3580.43,802.524
3581.89,811.728
3583.34,822.432
3584.79,808.736
3586.24,801.936
3587.69,804.543
3589.14,804.631
3590.6,808.227
3592.05,795.212
3593.5,795.383
3594.95,808.3
3596.4,791.38
3597.85,802.038
3599.31,797.614
3600.76,798.141
3602.21,797.245
3603.66,805.229
3605.11,804.023
3606.57,800.904
3608.02,811.301
3609.47,800.131
3610.92,805.043
3612.37,809.296
3613.82,800.037
3615.28,806.559
3616.73,796.704
3618.18,787.749
3619.63,818.593
3621.08,783.549
3622.54,800.017
3623.99,784.789
3625.44,807.815
3626.89,818.101
3628.34,800.851
3629.79,806.077
3631.25,802.709
3632.7,810.963
3634.15,792.813
3635.6,796.817
3637.05,824.388
3638.5,812.44
3639.96,825.622
3641.41,790.755
3642.86,792.484
3644.31,806.085
3645.76,791.861
3647.22,796.411
3648.67,803.071
3650.12,782.708
3651.57,807.354
3653.02,798.629
3654.47,805.575
3655.93,799.46
3657.38,778.56
3658.83,821.58
3660.28,808.969
3661.73,803.617
3663.19,798.221
3664.64,804.001
3666.09,814.616
3667.54,821.639
3668.99,799.106
3670.44,789.889
3671.9,817.388
3673.35,831.74
3674.8,820.95
3676.25,805.942
3677.7,819.482
3679.16,812.169
3680.61,821.882
3682.06,802.124
3683.51,806.698
3684.96,809.013
3686.41,824.517
3687.87,801.507
3689.32,797.746
3690.77,792.626
3692.22,831.245
3693.67,799.446
3695.12,802.245
3696.58,827.736
3698.03,794.256
3699.48,800.907
3700.93,817.777
3702.38,824.102
3703.84,806.306
3705.29,822.722
3706.74,820.716
3708.19,814
3709.64,798.093
3711.09,797.451
3712.55,807.457
3714,806.255
3715.45,825.713
3716.9,822.725
3718.35,810.14
3719.8,824.867
3721.26,803.133
3722.71,820.316
3724.16,820.533
3725.61,828.468
3727.06,831.419
3728.52,837.218
3729.97,834.559
3731.42,845.715
3732.87,816.427
3734.32,825.301
3735.77,816.143
3737.23,828.493
3738.68,827.696
3740.13,818.933
3741.58,811.089
3743.03,852.376
3744.49,828.651
3745.94,822.129
3747.39,826.338
3748.84,821.166
3750.29,823.656
3751.74,821.592
3753.2,818.1
3754.65,817.508
3756.1,834.54
3757.55,819.28
3759,829.604
3760.46,844.989
3761.91,828.767
3763.36,839.59
3764.81,839.991
3766.26,814.672
3767.71,827.08
3769.17,836.32
3770.62,837.683
3772.07,837.104
3773.52,834.642
3774.97,816.583
3776.42,826.445
3777.88,820.809
3779.33,843.625
3780.78,836.237
3782.23,834.175
3783.68,843.886
3785.14,815.135
3786.59,823.358
3788.04,836.842
3789.49,853.199
3790.94,860.371
3792.39,833.086
3793.85,830.846
3795.3,836.211
3796.75,839.709
3798.2,846.741
3799.65,817.551
3801.1,821.917
3802.56,840.529
3804.01,840.769
3805.46,859.797
3806.91,841.611
3808.36,851.472
3809.82,835.382
3811.27,825.573
3812.72,835.977
3814.17,851.701
3815.62,852.628
3817.07,856.49
3818.53,847.339
3819.98,846.174
3821.43,849.58
3822.88,845.523
3824.33,867.259
3825.79,861.766
3827.24,844.511
3828.69,845.558
3830.14,824.325
3831.59,852.021
3833.04,846.857
3834.5,845.499
3835.95,831.366
3837.4,830.276
3838.85,865.852
3840.3,835.807
3841.76,851.387
3843.21,849.781
3844.66,848.186
3846.11,848.266
3847.56,838.569
3849.01,870.594
3850.47,868.66
3851.92,870.141
3853.37,858.524
3854.82,883.325
3856.27,873.106
3857.72,877.486
3859.18,857.477
3860.63,868.832
3862.08,858.434
3863.53,874.2
3864.98,901.905
3866.44,878.639
3867.89,876.334
3869.34,864.437
3870.79,854.495
3872.24,881.811
3873.69,888.418
3875.15,873.177
3876.6,878.559
3878.05,878.482
3879.5,882.576
3880.95,904.556
3882.41,888.305
3883.86,873.616
3885.31,873.204
3886.76,894.123
3888.21,882.898
3889.66,886.1
3891.12,890.111
3892.57,861.652
3894.02,897.72
3895.47,890.706
3896.92,913.97
3898.37,883.266
3899.83,881.512
3901.28,899.315
3902.73,895.841
3904.18,901.914
3905.63,922.496
3907.09,877.847
3908.54,912.182
3909.99,915.709
3911.44,919.002
3912.89,941.089
3914.34,920.469
3915.8,915.822
3917.25,942.284
3918.7,924.812
3920.15,899.997
3921.6,931.045
3923.06,898.266
3924.51,895.75
3925.96,917.127
3927.41,940.664
3928.86,930.332
3930.31,943.22
3931.77,949.8
3933.22,950.465
3934.67,951.728
3936.12,951.882
3937.57,941.443
3939.02,914.067
3940.48,951.059
3941.93,981.46
3943.38,981.332
3944.83,951.345
3946.28,971.62
3947.74,984.431
3949.19,996.138
3950.64,980.627
3952.09,985.414
3953.54,955.427
3954.99,983.301
3956.45,978.112
3957.9,971.618
3959.35,993.247
3960.8,978.448
3962.25,993.245
3963.71,982.8
3965.16,976.147
3966.61,987.995
3968.06,993.892
3969.51,993.936
3970.96,1015.06
3972.42,999.434
3973.87,1000.99
3975.32,1015.2
3976.77,1015.89
3978.22,1003.58
3979.68,1024.72
3981.13,1015.08
3982.58,1023.53
3984.03,1036.59
3985.48,1040.7
3986.93,1016.2
3988.39,1039.34
3989.84,1042.21
3991.29,1023.32
3992.74,1040.23
3994.19,1027.18
3995.64,1032.27
3997.1,1049.35
3998.55,1043.31
4000,1046.13
