-20,76.8455
-18.5482,75.6422
-17.0964,73.8075
-15.6446,77.0276
-14.1928,76.3625
-12.7411,81.7816
-11.2893,89.5203
-9.83749,99.0977
-8.3857,111.966
-6.93391,137.309
-5.48212,104.055
-4.03034,104.055
-2.57855,104.055
-1.12676,104.055
0.325027,104.055
1.77681,104.055
3.2286,104.055
4.68039,104.055
6.13218,104.055
7.58397,245.25
9.03575,125.923
10.4875,108.641
11.9393,101.495
13.3911,100.69
14.8429,100.67
16.2947,99.0814
17.7465,95.6017
19.1983,93.1
20.6501,92.1246
22.1018,91.2209
23.5536,83.732
25.0054,82.2921
26.4572,83.0101
27.909,80.8064
29.3608,76.4543
30.8126,73.5786
32.2644,72.2097
33.7161,70.1513
35.1679,69.1303
36.6197,71.2264
38.0715,78.7053
39.5233,74.1715
40.9751,77.0956
42.4269,83.1722
43.8787,87.8431
45.3304,95.6429
46.7822,109.67
48.234,126.21
49.6858,161.965
51.1376,245.392
52.5894,382.348
54.0412,601.123
55.493,898.52
56.9447,1258.54
58.3965,1648.16
59.8483,2000.97
61.3001,2266.02
62.7519,2490.09
64.2037,2721.38
65.6555,2763.09
67.1073,2858.24
68.559,2964.9
70.0108,3025.64
71.4626,3031.57
72.9144,3091.33
74.3662,3123.66
75.818,3109.65
77.2698,3103
78.7216,3171.79
80.1733,3272.2
81.6251,3343.49
83.0769,3411.62
84.5287,3436.5
85.9805,3507.85
87.4323,3499.29
88.8841,3449.8
90.3359,3371.4
91.7877,3262.02
93.2394,3142.02
94.6912,3056.98
96.143,2995.92
97.5948,2934.52
99.0466,2774.05
100.498,2719.45
101.95,2619.66
103.402,2549.48
104.854,2503.21
106.306,2452.19
107.757,2395.29
109.209,2324.89
110.661,2269.64
112.113,2235.73
113.564,2192.18
115.016,2106.01
116.468,2050.48
117.92,2021.77
119.372,1993.74
120.823,1922.08
122.275,1900.93
123.727,1873.09
125.179,1818.81
126.631,1750.27
128.082,1695.24
129.534,1690.44
130.986,1667.96
132.438,1643.3
133.889,1639.97
135.341,1604.52
136.793,1567.48
138.245,1566.99
139.697,1558.48
141.148,1488.96
142.6,1493.28
144.052,1488.42
145.504,1485.45
146.956,1468.34
148.407,1405.96
149.859,1439.29
151.311,1392.23
152.763,1346.53
154.215,1323.9
155.666,1324.92
157.118,1286.92
158.57,1293.9
160.022,1292.77
161.473,1274.19
162.925,1276.91
164.377,1250.06
165.829,1227.94
167.281,1214.45
168.732,1197.03
170.184,1194.11
171.636,1171.36
173.088,1174.1
174.54,1181.68
175.991,1194.74
177.443,1169.14
178.895,1138.81
180.347,1127.37
181.798,1120.93
183.25,1116.25
184.702,1100.1
186.154,1096.51
187.606,1104.3
189.057,1093.13
190.509,1059.1
191.961,1069.24
193.413,1041.44
194.865,1009.72
196.316,1004.07
197.768,1013.94
199.22,1002.61
200.672,1005.59
202.124,1001.54
203.575,1016.19
205.027,1021.31
206.479,974.651
207.931,997.749
209.382,1001.1
210.834,999.228
212.286,993.378
213.738,994.689
215.19,975.074
216.641,986.197
218.093,987.699
219.545,973.175
220.997,969.827
222.449,974.845
223.9,984.23
225.352,981.353
226.804,970.971
228.256,938.272
229.707,944.67
231.159,966.019
232.611,974.841
234.063,981.965
235.515,985.424
236.966,970.995
238.418,959.748
239.87,954.092
241.322,953.165
242.774,943.95
244.225,958.403
245.677,948.846
247.129,943.272
248.581,936.81
250.033,919.102
251.484,909.491
252.936,925.163
254.388,924.558
255.84,922.254
257.291,945.311
258.743,935.61
260.195,896.951
261.647,897.246
263.099,913.209
264.55,894.565
266.002,909.755
267.454,879.26
268.906,890.63
270.358,909.322
271.809,912.339
273.261,892.761
274.713,903.623
276.165,886.411
277.616,861.767
279.068,855.844
280.52,831.083
281.972,844.104
283.424,843.592
284.875,834.414
286.327,833.542
287.779,837.66
289.231,842.693
290.683,843.398
292.134,821.717
293.586,802.146
295.038,812.655
296.49,795.522
297.941,787.156
299.393,775.875
300.845,779.458
302.297,785.466
303.749,766.578
305.2,771.824
306.652,753.037
308.104,737.998
309.556,750.866
311.008,739.905
312.459,750.434
313.911,754.726
315.363,736.458
316.815,714.772
318.267,762.806
319.718,740.251
321.17,737.215
322.622,725.62
324.074,714.289
325.525,721.254
326.977,713.706
328.429,700.672
329.881,699.6
331.333,709.464
332.784,709.561
334.236,701.907
335.688,696.095
337.14,715.046
338.592,720.174
340.043,712.535
341.495,711.294
342.947,706.335
344.399,685.744
345.85,690.351
347.302,707.279
348.754,710.002
350.206,687.979
351.658,692.92
353.109,677.762
354.561,679.61
356.013,716.762
357.465,712.315
358.917,697.794
360.368,697.352
361.82,681.458
363.272,663.603
364.724,681.719
366.176,687.028
367.627,662.828
369.079,667.516
370.531,689.844
371.983,711.563
373.434,711.817
374.886,695.656
376.338,699.381
377.79,702.944
379.242,695.177
380.693,675.026
382.145,690.299
383.597,689.948
385.049,675.493
386.501,669.846
387.952,678.156
389.404,671.231
390.856,670.826
392.308,681.419
393.759,684.24
395.211,679.601
396.663,670.649
398.115,674.818
399.567,677.095
401.018,686.455
402.47,692.776
403.922,679.646
405.374,665.297
406.826,663.753
408.277,684.036
409.729,688.255
411.181,673.315
412.633,694.465
414.085,662.423
415.536,681.44
416.988,684.794
418.44,675.418
419.892,674.253
421.343,677.023
422.795,682.739
424.247,684.611
425.699,682.63
427.151,674.486
428.602,678.701
430.054,662.874
431.506,670.272
432.958,670.504
434.41,664.005
435.861,658.871
437.313,655.016
438.765,652.258
440.217,649.044
441.668,649.057
443.12,648.266
444.572,645.663
446.024,675.722
447.476,633.625
448.927,635.57
450.379,650.888
451.831,645.476
453.283,661.062
454.735,672.449
456.186,649.868
457.638,644.109
459.09,657.641
460.542,662.73
461.993,646.682
463.445,650.04
464.897,661.337
466.349,670.244
467.801,668.074
469.252,648.485
470.704,655.019
472.156,651.052
473.608,659.396
475.06,675.057
476.511,681.748
477.963,652.144
479.415,613.303
480.867,624.861
482.319,641.024
483.77,653.846
485.222,672.647
486.674,644.354
488.126,647.602
489.577,652.384
491.029,649.407
492.481,651.793
493.933,641.534
495.385,623.797
496.836,626.923
498.288,641.055
499.74,649.621
501.192,654.297
502.644,639.992
504.095,642.19
505.547,644.703
506.999,626.829
508.451,618.341
509.902,642.123
511.354,641.315
512.806,623.495
514.258,629.978
515.71,612.586
517.161,609.128
518.613,640.739
520.065,618.897
521.517,623.247
522.969,647.079
524.42,653.938
525.872,640.484
527.324,615.524
528.776,625.833
530.228,602.433
531.679,627.197
533.131,644.073
534.583,640.701
536.035,634.744
537.486,630.784
538.938,627.92
540.39,627.052
541.842,612.081
543.294,606.923
544.745,638.214
546.197,638.272
547.649,641.417
549.101,640.654
550.553,631.72
552.004,630.091
553.456,621.618
554.908,633.189
556.36,624.485
557.811,629.741
559.263,628.404
560.715,628.64
562.167,630.425
563.619,614.638
565.07,589.834
566.522,617.652
567.974,630.691
569.426,618.198
570.878,627.056
572.329,608.217
573.781,613.995
575.233,621.941
576.685,621.705
578.137,623.957
579.588,630.808
581.04,624.113
582.492,623.089
583.944,626.231
585.395,618.472
586.847,606.886
588.299,629.952
589.751,648.285
591.203,632.276
592.654,628.662
594.106,628.556
595.558,632.938
597.01,624.807
598.462,598.545
599.913,639.869
601.365,630.695
602.817,632.657
604.269,639.742
605.72,625.248
607.172,612.875
608.624,635.202
610.076,631.141
611.528,626.109
612.979,631.146
614.431,621.999
615.883,640.103
617.335,636.818
618.787,638.374
620.238,625.011
621.69,620.24
623.142,636.842
624.594,649.52
626.046,637.632
627.497,634.006
628.949,636.913
630.401,633.05
631.853,635.215
633.304,628.981
634.756,647.771
636.208,647.704
637.66,649.082
639.112,643.064
640.563,639.564
642.015,641.079
643.467,648.488
644.919,666.602
646.371,643.067
647.822,631.551
649.274,647.865
650.726,670.199
652.178,658.605
653.629,657.231
655.081,652.762
656.533,650.371
657.985,646.115
659.437,648.165
660.888,674.274
662.34,666.543
663.792,654.179
665.244,651.385
666.696,657.723
668.147,652.537
669.599,679.669
671.051,660.565
672.503,662.55
673.954,666.129
675.406,676.673
676.858,676.946
678.31,684.155
679.762,681.947
681.213,681.842
682.665,691.297
684.117,675.929
685.569,665.676
687.021,676.303
688.472,673.61
689.924,674.515
691.376,682.088
692.828,671.28
694.28,667.622
695.731,672.131
697.183,678.238
698.635,674.825
700.087,665.783
701.538,688.409
702.99,680.015
704.442,664.318
705.894,669.028
707.346,711.775
708.797,684.436
710.249,674.758
711.701,689.669
713.153,677.144
714.605,673.285
716.056,682.526
717.508,684.584
718.96,682.596
720.412,675.571
721.863,662.014
723.315,654.19
724.767,670.429
726.219,701.118
727.671,669.307
729.122,678.494
730.574,672.752
732.026,663.448
733.478,664.715
734.93,670.613
736.381,691.501
737.833,672.732
739.285,676.848
740.737,672.394
742.189,670.024
743.64,655.734
745.092,666.117
746.544,662.625
747.996,635.205
749.447,672.878
750.899,679.727
752.351,680.046
753.803,694.547
755.255,685.779
756.706,679.15
758.158,669.879
759.61,674.421
761.062,674.239
762.514,670.305
763.965,693.847
765.417,692.32
766.869,677.493
768.321,680.618
769.772,672.807
771.224,667.277
772.676,665.609
774.128,684.244
775.58,714.296
777.031,692.696
778.483,675.349
779.935,677.657
781.387,677.67
782.839,665.045
784.29,672.937
785.742,662.839
787.194,693.116
788.646,691.108
790.098,691.644
791.549,680.703
793.001,683.818
794.453,693.008
795.905,677.169
797.356,684.699
798.808,703.446
800.26,712.564
801.712,695.505
803.164,697.671
804.615,688.751
806.067,693.949
807.519,699.949
808.971,716.792
810.423,717.907
811.874,702.606
813.326,701.233
814.778,696.519
816.23,699.78
817.681,701.105
819.133,706.197
820.585,708.42
822.037,700.598
823.489,701.104
824.94,701.653
826.392,729.513
827.844,727.334
829.296,714.329
830.748,701.522
832.199,713.282
833.651,727.634
835.103,719.739
836.555,727.837
838.007,732.231
839.458,724.655
840.91,725.909
842.362,726.228
843.814,735.927
845.265,733.208
846.717,724.263
848.169,716.575
849.621,749.975
851.073,746.335
852.524,743.294
853.976,748.157
855.428,754.269
856.88,748.214
858.332,745.425
859.783,759.651
861.235,766.967
862.687,760.102
864.139,759.113
865.59,771.44
867.042,795.319
868.494,766.27
869.946,744.002
871.398,747.062
872.849,756.48
874.301,757.703
875.753,761.635
877.205,733.132
878.657,733.799
880.108,745.181
881.56,744.73
883.012,746.502
884.464,746.75
885.915,736.767
887.367,729.033
888.819,747.001
890.271,752.783
891.723,750.256
893.174,768.062
894.626,776.807
896.078,760.141
897.53,748.345
898.982,781.355
900.433,762.492
901.885,749.549
903.337,758.665
904.789,778.173
906.241,790.249
907.692,787.03
909.144,773.767
910.596,772.076
912.048,781.232
913.499,782.709
914.951,804.821
916.403,796.584
917.855,797.376
919.307,815.191
920.758,765.987
922.21,769.163
923.662,795.64
925.114,784.743
926.566,790.169
928.017,813.716
929.469,821.945
930.921,819.087
932.373,817.991
933.824,789.005
935.276,817.391
936.728,799.788
938.18,806.48
939.632,806.682
941.083,798.341
942.535,813.069
943.987,794.816
945.439,818.284
946.891,824.795
948.342,823.685
949.794,815.169
951.246,815.982
952.698,804.268
954.15,799.919
955.601,830.957
957.053,830.142
958.505,803.298
959.957,779.713
961.408,795.46
962.86,823.306
964.312,795.478
965.764,797.124
967.216,787.1
968.667,815.559
970.119,807.307
971.571,809.6
973.023,806.52
974.475,799.15
975.926,797.606
977.378,818.341
978.83,820.665
980.282,815.583
981.733,799.469
983.185,786.805
984.637,789.663
986.089,804.413
987.541,828.269
988.992,827.933
990.444,817.549
991.896,809.731
993.348,808.769
994.8,810.332
996.251,805.261
997.703,814.16
999.155,828.333
1000.61,836.389
1002.06,841.406
1003.51,858.805
1004.96,832.451
1006.41,840.894
1007.87,841.912
1009.32,820.808
1010.77,820.991
1012.22,874.917
1013.67,871.391
1015.12,858.525
1016.58,854.703
1018.03,867.98
1019.48,866.906
1020.93,861.018
1022.38,866.468
1023.84,890.916
1025.29,887.645
1026.74,869.51
1028.19,890.706
1029.64,891.429
1031.09,898.9
1032.55,904.77
1034,920.58
1035.45,924.333
1036.9,931.878
1038.35,931.143
1039.8,943.539
1041.26,942.42
1042.71,940.135
1044.16,958.619
1045.61,970.297
1047.06,987.113
1048.52,980.262
1049.97,1006.49
1051.42,965.162
1052.87,951.425
1054.32,996.362
1055.77,1021.32
1057.23,1019.89
1058.68,1042.75
1060.13,1080.12
1061.58,1040.43
1063.03,1046.36
1064.49,1061.66
1065.94,1086.2
1067.39,1091.32
1068.84,1075.63
1070.29,1069.65
1071.74,1113.14
1073.2,1119.8
1074.65,1124.17
1076.1,1167.05
1077.55,1158.04
1079,1139
1080.46,1158.44
1081.91,1162.96
1083.36,1149.15
1084.81,1131.14
1086.26,1130.07
1087.71,1161.89
1089.17,1176.77
1090.62,1155.6
1092.07,1142.88
1093.52,1134.51
1094.97,1145.22
1096.42,1128.29
1097.88,1120.04
1099.33,1125.98
1100.78,1132.59
1102.23,1126.3
1103.68,1128.47
1105.14,1120.1
1106.59,1098.83
1108.04,1095.49
1109.49,1104.69
1110.94,1077.16
1112.39,1097.91
1113.85,1071.41
1115.3,1076.11
1116.75,1080.88
1118.2,1089.94
1119.65,1093.57
1121.11,1055.77
1122.56,1043.96
1124.01,1058.15
1125.46,1034.14
1126.91,1057.5
1128.36,1039.08
1129.82,1031.4
1131.27,1034.7
1132.72,1028.54
1134.17,1028.24
1135.62,1023.57
1137.07,1024.69
1138.53,1017.77
1139.98,982.018
1141.43,996.684
1142.88,1021.77
1144.33,1023.77
1145.79,1018.44
1147.24,1014.88
1148.69,1028.06
1150.14,996.358
1151.59,1025.01
1153.04,1015.64
1154.5,1015.32
1155.95,1039
1157.4,1020.15
1158.85,984.123
1160.3,1010.97
1161.76,980.717
1163.21,968.888
1164.66,959.274
1166.11,1003.51
1167.56,1020.44
1169.01,1016.72
1170.47,1019.8
1171.92,1007.66
1173.37,990.33
1174.82,1031.82
1176.27,1042.83
1177.72,1018.68
1179.18,1044.36
1180.63,1037.57
1182.08,1051.5
1183.53,1044.74
1184.98,1037.24
1186.44,1036.27
1187.89,1038.23
1189.34,1051.54
1190.79,1040.32
1192.24,1041.44
1193.69,1063.56
1195.15,1041.41
1196.6,1051.7
1198.05,1057.5
1199.5,1043.81
1200.95,1047.16
1202.41,1056.22
1203.86,1079.42
1205.31,1046.21
1206.76,1087.85
1208.21,1076.44
1209.66,1058.67
1211.12,1056.48
1212.57,1071.01
1214.02,1072.95
1215.47,1057.59
1216.92,1057.53
1218.37,1078.09
1219.83,1064.42
1221.28,1085.98
1222.73,1088.91
1224.18,1100.85
1225.63,1105.99
1227.09,1098.48
1228.54,1093.44
1229.99,1091.91
1231.44,1157.26
1232.89,1104.64
1234.34,1110.36
1235.8,1119.18
1237.25,1121.37
1238.7,1131.51
1240.15,1140.74
1241.6,1154.23
1243.06,1157.28
1244.51,1159.51
1245.96,1178.74
1247.41,1156.09
1248.86,1206.05
1250.31,1182.81
1251.77,1169.36
1253.22,1178.43
1254.67,1201.83
1256.12,1229.75
1257.57,1239.81
1259.02,1220.03
1260.48,1234.15
1261.93,1254.62
1263.38,1206.93
1264.83,1238.39
1266.28,1278.72
1267.74,1319.59
1269.19,1326.98
1270.64,1325.82
1272.09,1334
1273.54,1346.66
1274.99,1377.78
1276.45,1396.03
1277.9,1429.25
1279.35,1382.6
1280.8,1435.3
1282.25,1473.84
1283.71,1508.77
1285.16,1528.41
1286.61,1527.19
1288.06,1539.7
1289.51,1588.26
1290.96,1640.81
1292.42,1683.52
1293.87,1682.8
1295.32,1778.21
1296.77,1764.78
1298.22,1805.12
1299.67,1892.99
1301.13,1977.18
1302.58,2030.26
1304.03,2105.31
1305.48,2218.64
1306.93,2275.79
1308.39,2364.61
1309.84,2468.43
1311.29,2533.71
1312.74,2642.95
1314.19,2777.37
1315.64,2892.46
1317.1,2980.95
1318.55,3113.32
1320,3256.64
1321.45,3353.76
1322.9,3523.01
1324.36,3626.14
1325.81,3741.26
1327.26,3872.66
1328.71,3933.22
1330.16,4075.71
1331.61,4077.08
1333.07,4065.12
1334.52,4122.55
1335.97,4106.37
1337.42,4035.62
1338.87,4024.84
1340.33,3966.81
1341.78,3887.32
1343.23,3672.82
1344.68,3619.38
1346.13,3483.78
1347.58,3358.83
1349.04,3241.92
1350.49,3102.84
1351.94,2969.19
1353.39,2838.17
1354.84,2725.18
1356.29,2566.99
1357.75,2515.33
1359.2,2483.04
1360.65,2368.01
1362.1,2274.37
1363.55,2196.63
1365.01,2127.49
1366.46,2060.62
1367.91,2002.73
1369.36,1965.41
1370.81,1891.08
1372.26,1851.84
1373.72,1818.17
1375.17,1789.1
1376.62,1759.98
1378.07,1709.96
1379.52,1701.45
1380.98,1682.32
1382.43,1660.02
1383.88,1649.39
1385.33,1611.37
1386.78,1545.95
1388.23,1552.47
1389.69,1563.9
1391.14,1546.45
1392.59,1514.3
1394.04,1550.8
1395.49,1551.51
1396.94,1519.39
1398.4,1500.68
1399.85,1477.6
1401.3,1476.21
1402.75,1482.18
1404.2,1474.95
1405.66,1473.37
1407.11,1509.14
1408.56,1510.06
1410.01,1435.38
1411.46,1486.06
1412.91,1523.17
1414.37,1508.73
1415.82,1493.97
1417.27,1493.46
1418.72,1507.92
1420.17,1526.1
1421.63,1526.67
1423.08,1506.96
1424.53,1527.87
1425.98,1529.91
1427.43,1540.75
1428.88,1523.68
1430.34,1549.22
1431.79,1569.7
1433.24,1597.5
1434.69,1617.97
1436.14,1619.7
1437.59,1607.28
1439.05,1598.91
1440.5,1626.39
1441.95,1627.2
1443.4,1644.83
1444.85,1652.63
1446.31,1662.89
1447.76,1702.83
1449.21,1694.07
1450.66,1693.58
1452.11,1704.24
1453.56,1735.32
1455.02,1750.88
1456.47,1760.02
1457.92,1762.19
1459.37,1758.99
1460.82,1792.99
1462.28,1814.97
1463.73,1814.14
1465.18,1881.07
1466.63,1902.02
1468.08,1939.5
1469.53,1962.37
1470.99,1988.92
1472.44,1981.04
1473.89,1999.38
1475.34,2051.53
1476.79,2059
1478.24,2109.42
1479.7,2105.92
1481.15,2191.26
1482.6,2182.28
1484.05,2238.42
1485.5,2289.24
1486.96,2317.92
1488.41,2363.73
1489.86,2416.55
1491.31,2457.07
1492.76,2542.43
1494.21,2606.29
1495.67,2607.38
1497.12,2653.44
1498.57,2754.28
1500.02,2851.99
1501.47,2882.13
1502.93,2906.24
1504.38,2972.26
1505.83,3056.03
1507.28,3199.3
1508.73,3263.3
1510.18,3375.52
1511.64,3499.7
1513.09,3647.7
1514.54,3801.29
1515.99,3907.58
1517.44,4033.3
1518.89,4320.02
1520.35,4477.11
1521.8,4660.84
1523.25,4955.74
1524.7,5206.25
1526.15,5569.64
1527.61,5915.74
1529.06,6245.01
1530.51,6738.21
1531.96,7213.43
1533.41,7740.18
1534.86,8326.84
1536.32,8949.8
1537.77,9735.25
1539.22,10527.6
1540.67,11583.8
1542.12,12699.6
1543.58,13864.1
1545.03,15269.8
1546.48,16554.7
1547.93,18034.8
1549.38,19426.8
1550.83,21076.4
1552.29,22741.3
1553.74,24469.9
1555.19,26083.1
1556.64,27693.6
1558.09,29300.4
1559.54,30887.6
1561,32347.5
1562.45,33690.2
1563.9,34702.5
1565.35,35635.8
1566.8,36248.4
1568.26,36436
1569.71,36316.9
1571.16,35359.2
1572.61,34214.8
1574.06,32965.7
1575.51,31398.7
1576.97,29518.9
1578.42,27591.8
1579.87,25591.3
1581.32,23494.8
1582.77,21573
1584.23,19752.4
1585.68,18029.8
1587.13,16460.1
1588.58,14915.9
1590.03,13623.6
1591.48,12340.9
1592.94,11360.9
1594.39,10502.3
1595.84,9766.45
1597.29,9089.46
1598.74,8416.64
1600.2,7875.73
1601.65,7416.84
1603.1,7010.97
1604.55,6543.5
1606,6197.53
1607.45,5894.48
1608.91,5550.48
1610.36,5254.58
1611.81,4917.66
1613.26,4665.78
1614.71,4426.74
1616.16,4198.11
1617.62,3981.9
1619.07,3852.46
1620.52,3676.25
1621.97,3540.58
1623.42,3420.09
1624.88,3276.18
1626.33,3147.36
1627.78,3065.72
1629.23,2976.15
1630.68,2839.09
1632.13,2744.42
1633.59,2652.42
1635.04,2583.3
1636.49,2479.85
1637.94,2436.55
1639.39,2383.11
1640.85,2386.89
1642.3,2312.45
1643.75,2269.93
1645.2,2191.41
1646.65,2134.05
1648.1,2085.57
1649.56,2047.91
1651.01,2029.89
1652.46,2019.64
1653.91,1968.66
1655.36,1915.23
1656.81,1904
1658.27,1915.19
1659.72,1903.66
1661.17,1844.9
1662.62,1807.91
1664.07,1787.88
1665.53,1771.98
1666.98,1680.3
1668.43,1704.1
1669.88,1691.02
1671.33,1620.38
1672.78,1622.07
1674.24,1635.34
1675.69,1625.44
1677.14,1585.8
1678.59,1555.9
1680.04,1577.09
1681.5,1564.46
1682.95,1543.18
1684.4,1527.95
1685.85,1498.65
1687.3,1502.07
1688.75,1501.49
1690.21,1447.41
1691.66,1471.9
1693.11,1405.26
1694.56,1441.68
1696.01,1396.03
1697.46,1415.45
1698.92,1364.89
1700.37,1366.93
1701.82,1382.61
1703.27,1372.81
1704.72,1327.29
1706.18,1340.43
1707.63,1380.82
1709.08,1361.29
1710.53,1340.44
1711.98,1342.62
1713.43,1324.35
1714.89,1329.35
1716.34,1315.61
1717.79,1356.24
1719.24,1336.44
1720.69,1319.24
1722.15,1326.08
1723.6,1316.74
1725.05,1339.47
1726.5,1340.86
1727.95,1336.92
1729.4,1313.64
1730.86,1309.2
1732.31,1302.62
1733.76,1283.13
1735.21,1308.52
1736.66,1325.8
1738.11,1303.49
1739.57,1288.17
1741.02,1297.53
1742.47,1304.23
1743.92,1276.05
1745.37,1245.18
1746.83,1258.1
1748.28,1299.53
1749.73,1289.98
1751.18,1288.5
1752.63,1236.75
1754.08,1279.6
1755.54,1264.22
1756.99,1217.5
1758.44,1235.46
1759.89,1225.55
1761.34,1197.52
1762.8,1215.98
1764.25,1197.83
1765.7,1189.04
1767.15,1183.77
1768.6,1166.44
1770.05,1148.55
1771.51,1138.72
1772.96,1150.15
1774.41,1149.32
1775.86,1142.21
1777.31,1146.99
1778.76,1133.06
1780.22,1130.8
1781.67,1113.22
1783.12,1112.58
1784.57,1124.89
1786.02,1118.73
1787.48,1133.26
1788.93,1123.19
1790.38,1088.49
1791.83,1081.26
1793.28,1115.25
1794.73,1077.27
1796.19,1097.37
1797.64,1081.04
1799.09,1108.41
1800.54,1080.67
1801.99,1085.7
1803.45,1076.9
1804.9,1061.49
1806.35,1056.83
1807.8,1063.1
1809.25,1071.59
1810.7,1061.59
1812.16,1066.86
1813.61,1064.69
1815.06,1037.82
1816.51,1038.34
1817.96,1046.52
1819.41,1037.88
1820.87,1032.36
1822.32,1045.53
1823.77,1055.4
1825.22,1034.09
1826.67,1024.04
1828.13,1072.19
1829.58,1063.54
1831.03,1064.91
1832.48,1060.05
1833.93,1058.82
1835.38,1064.25
1836.84,1070.5
1838.29,1061.14
1839.74,1053.6
1841.19,1101.11
1842.64,1075.12
1844.1,1059.21
1845.55,1072.12
1847,1080.79
1848.45,1098.04
1849.9,1091.04
1851.35,1094.49
1852.81,1090.08
1854.26,1095.49
1855.71,1083.99
1857.16,1085.19
1858.61,1123.33
1860.07,1089.66
1861.52,1107.6
1862.97,1124.44
1864.42,1107.72
1865.87,1108.92
1867.32,1122.42
1868.78,1109.07
1870.23,1105.08
1871.68,1077.12
1873.13,1113.9
1874.58,1092.76
1876.03,1107.22
1877.49,1111.44
1878.94,1060.46
1880.39,1061.83
1881.84,1044.21
1883.29,1058.03
1884.75,1076.08
1886.2,1029.52
1887.65,995.117
1889.1,1024.72
1890.55,1045.33
1892,1035.2
1893.46,1018.86
1894.91,1007.14
1896.36,1012.78
1897.81,1024.64
1899.26,1010.88
1900.72,984.754
1902.17,988.652
1903.62,1001.92
1905.07,1013.77
1906.52,999.856
1907.97,980.169
1909.43,985.836
1910.88,988.151
1912.33,980.592
1913.78,970.75
1915.23,946.132
1916.68,954.821
1918.14,950.593
1919.59,942.517
1921.04,936.919
1922.49,964.688
1923.94,953.614
1925.4,931.509
1926.85,969.068
1928.3,957.767
1929.75,933.415
1931.2,969.973
1932.65,962.566
1934.11,929.613
1935.56,966.508
1937.01,935.07
1938.46,953.718
1939.91,967.842
1941.37,963.473
1942.82,953.467
1944.27,966.6
1945.72,963.732
1947.17,973.918
1948.62,968.55
1950.08,984.588
1951.53,966.642
1952.98,963.701
1954.43,978.711
1955.88,978.747
1957.33,969.215
1958.79,971.398
1960.24,979.963
1961.69,976.328
1963.14,975.212
1964.59,970.82
1966.05,971.508
1967.5,988.637
1968.95,997.395
1970.4,991.431
1971.85,992.031
1973.3,988.553
1974.76,991.691
1976.21,998.742
1977.66,1023.3
1979.11,1011.92
1980.56,1007.74
1982.02,1004.85
1983.47,990.413
1984.92,988.383
1986.37,1012.3
1987.82,1042.25
1989.27,1024.94
1990.73,990.442
1992.18,1004.59
1993.63,1018.11
1995.08,1023.56
1996.53,1021.09
1997.98,1025.15
1999.44,996.473
2000.89,968.151
2002.34,970.277
2003.79,959.073
2005.24,1003.8
2006.7,988.342
2008.15,1015.35
2009.6,979.027
2011.05,960.354
2012.5,986.468
2013.95,992.22
2015.41,986.512
2016.86,965.254
2018.31,963.304
2019.76,980.525
2021.21,949.471
2022.67,959.023
2024.12,965.342
2025.57,925.125
2027.02,923.292
2028.47,954.332
2029.92,947.867
2031.38,951.52
2032.83,949.028
2034.28,905.969
2035.73,925.235
2037.18,916.538
2038.63,916.631
2040.09,880.805
2041.54,896.121
2042.99,904.989
2044.44,898.11
2045.89,889.08
2047.35,900.326
2048.8,885.312
2050.25,897.965
2051.7,900.04
2053.15,875.555
2054.6,868.748
2056.06,877.227
2057.51,876.275
2058.96,857.402
2060.41,855.671
2061.86,849.34
2063.32,867.892
2064.77,863.033
2066.22,856.052
2067.67,854.645
2069.12,845.402
2070.57,863.661
2072.03,860.551
2073.48,867.073
2074.93,881.666
2076.38,867.221
2077.83,840.425
2079.28,844.271
2080.74,854.33
2082.19,853.896
2083.64,856.435
2085.09,861.311
2086.54,843.585
2088,838.182
2089.45,852.008
2090.9,841.443
2092.35,842.266
2093.8,821.338
2095.25,819.253
2096.71,826.917
2098.16,823.888
2099.61,822.925
2101.06,832.172
2102.51,818.855
2103.97,828.299
2105.42,833.396
2106.87,806.318
2108.32,810.506
2109.77,813.225
2111.22,817.309
2112.68,842.112
2114.13,846.417
2115.58,826.941
2117.03,839.68
2118.48,839.533
2119.94,843.567
2121.39,844.681
2122.84,844.718
2124.29,856.405
2125.74,857.305
2127.19,843.539
2128.65,834.453
2130.1,841.51
2131.55,858.915
2133,869.324
2134.45,856.364
2135.9,887.428
2137.36,872.094
2138.81,841.588
2140.26,849.44
2141.71,856.734
2143.16,843.172
2144.62,844.287
2146.07,856.885
2147.52,865.638
2148.97,873.942
2150.42,870.326
2151.87,860.907
2153.33,867.126
2154.78,855.047
2156.23,869.679
2157.68,885.323
2159.13,867.504
2160.58,884.941
2162.04,892.086
2163.49,900.475
2164.94,875.592
2166.39,868.826
2167.84,888.482
2169.3,901.905
2170.75,900.201
2172.2,907.944
2173.65,909.901
2175.1,897.119
2176.55,901.738
2178.01,898.277
2179.46,913.292
2180.91,898.526
2182.36,919.465
2183.81,916.59
2185.27,898.648
2186.72,900.864
2188.17,896.78
2189.62,903.249
2191.07,914.303
2192.52,939.086
2193.98,912.903
2195.43,933.323
2196.88,937.749
2198.33,907.146
2199.78,916.349
2201.24,911.907
2202.69,945.545
2204.14,929.461
2205.59,875.733
2207.04,903.236
2208.49,931.612
2209.95,936.418
2211.4,934.761
2212.85,933.031
2214.3,939.231
2215.75,934.83
2217.2,919.235
2218.66,941.11
2220.11,910.853
2221.56,968.818
2223.01,933.927
2224.46,926.728
2225.92,909.191
2227.37,946.991
2228.82,933.503
2230.27,954.493
2231.72,944.858
2233.17,946.769
2234.63,952.326
2236.08,930.712
2237.53,948.762
2238.98,947.664
2240.43,917.736
2241.89,937.301
2243.34,951.845
2244.79,944.927
2246.24,944.167
2247.69,944.732
2249.14,954.824
2250.6,972.369
2252.05,972.283
2253.5,972.398
2254.95,984.048
2256.4,973.407
2257.85,973.597
2259.31,974.929
2260.76,988.841
2262.21,979.181
2263.66,988.355
2265.11,975.639
2266.57,964.291
2268.02,954.443
2269.47,980.501
2270.92,983.159
2272.37,1009.73
2273.82,1002.65
2275.28,999.286
2276.73,986.631
2278.18,990.773
2279.63,1035.29
2281.08,1027.88
2282.54,973.988
2283.99,1002.31
2285.44,1006.77
2286.89,1005.08
2288.34,1011.88
2289.79,1039.62
2291.25,1027.89
2292.7,1039.37
2294.15,1022.19
2295.6,1020.99
2297.05,1023.1
2298.5,1059.16
2299.96,1019.66
2301.41,1032.42
2302.86,1049.72
2304.31,1050.81
2305.76,1068.26
2307.22,1080.07
2308.67,1090.57
2310.12,1059.29
2311.57,1054.31
2313.02,1074.13
2314.47,1068.47
2315.93,1138.46
2317.38,1125.88
2318.83,1109.64
2320.28,1081.95
2321.73,1107.89
2323.19,1117.97
2324.64,1113.84
2326.09,1110.15
2327.54,1117.88
2328.99,1124.6
2330.44,1099.42
2331.9,1103.63
2333.35,1126.7
2334.8,1127.05
2336.25,1134.64
2337.7,1143.41
2339.16,1121.85
2340.61,1125.49
2342.06,1153.31
2343.51,1183.08
2344.96,1201.77
2346.41,1191.97
2347.87,1182.71
2349.32,1169.07
2350.77,1176.28
2352.22,1163.28
2353.67,1182.88
2355.12,1209.23
2356.58,1234.58
2358.03,1207.19
2359.48,1233.6
2360.93,1231.66
2362.38,1247
2363.84,1281.6
2365.29,1307.74
2366.74,1295.21
2368.19,1285.9
2369.64,1315.92
2371.09,1318.52
2372.55,1319.45
2374,1318.12
2375.45,1329.86
2376.9,1360.98
2378.35,1386.95
2379.8,1404.73
2381.26,1437.07
2382.71,1445.26
2384.16,1435.49
2385.61,1453.03
2387.06,1490.27
2388.52,1498.89
2389.97,1543.9
2391.42,1584.86
2392.87,1567.27
2394.32,1610.29
2395.77,1616.44
2397.23,1652.23
2398.68,1664.95
2400.13,1695.36
2401.58,1791.64
2403.03,1785.57
2404.49,1816.03
2405.94,1877.39
2407.39,1880
2408.84,1945.94
2410.29,1947.75
2411.74,1972.55
2413.2,2010.9
2414.65,2008.92
2416.1,2052.81
2417.55,2106.06
2419,2153.13
2420.46,2189.15
2421.91,2190.63
2423.36,2174.05
2424.81,2180.4
2426.26,2185.28
2427.71,2229.87
2429.17,2251.58
2430.62,2231.23
2432.07,2285.38
2433.52,2259.05
2434.97,2309.36
2436.42,2249.01
2437.88,2289.29
2439.33,2260.74
2440.78,2209.64
2442.23,2237.35
2443.68,2240.16
2445.14,2243
2446.59,2199.59
2448.04,2170.61
2449.49,2158.64
2450.94,2134.05
2452.39,2124.3
2453.85,2135.87
2455.3,2122.19
2456.75,2121.13
2458.2,2070.54
2459.65,2075.81
2461.1,2061.27
2462.56,2069.69
2464.01,2023.8
2465.46,2041.78
2466.91,1996.28
2468.36,1991.91
2469.82,1952.82
2471.27,1998.69
2472.72,1979.27
2474.17,1963.39
2475.62,1974.83
2477.07,1938.32
2478.53,1945.66
2479.98,1935.6
2481.43,1942.39
2482.88,1956.02
2484.33,1956.91
2485.79,1941.93
2487.24,1920.81
2488.69,1981.64
2490.14,1959.34
2491.59,1974.38
2493.04,1937.72
2494.5,1937.14
2495.95,1946.18
2497.4,1941
2498.85,1953.09
2500.3,1961.02
2501.76,1978.65
2503.21,1948.22
2504.66,2006.78
2506.11,1961.04
2507.56,2029.54
2509.01,2037.61
2510.47,2022.53
2511.92,2023.11
2513.37,2010.3
2514.82,2011.06
2516.27,2028.81
2517.72,2045.41
2519.18,2086.34
2520.63,2105.43
2522.08,2150.09
2523.53,2113.01
2524.98,2160.26
2526.44,2155.47
2527.89,2174.02
2529.34,2160.36
2530.79,2190.3
2532.24,2245.47
2533.69,2256.82
2535.15,2247.65
2536.6,2312.83
2538.05,2324.5
2539.5,2362.97
2540.95,2333.65
2542.41,2373.78
2543.86,2448.8
2545.31,2499.01
2546.76,2478
2548.21,2513.46
2549.66,2567.66
2551.12,2609.54
2552.57,2683.13
2554.02,2709.68
2555.47,2710.51
2556.92,2759.81
2558.37,2804.02
2559.83,2885.67
2561.28,2885.07
2562.73,2902.2
2564.18,2980.94
2565.63,3066.4
2567.09,3086.89
2568.54,3182
2569.99,3242.5
2571.44,3330.37
2572.89,3383.47
2574.34,3448.55
2575.8,3579.91
2577.25,3551.81
2578.7,3657.91
2580.15,3783.16
2581.6,3840.71
2583.06,3931.97
2584.51,4110.28
2585.96,4149.54
2587.41,4294.28
2588.86,4406.47
2590.31,4533.38
2591.77,4752.34
2593.22,4828.07
2594.67,4945.19
2596.12,5134.09
2597.57,5289.33
2599.02,5509.32
2600.48,5672.5
2601.93,5766.26
2603.38,6004.62
2604.83,6189.1
2606.28,6386.1
2607.74,6707.16
2609.19,6928.39
2610.64,7162.52
2612.09,7417.21
2613.54,7638.81
2614.99,7997.61
2616.45,8363.19
2617.9,8698.3
2619.35,8969.22
2620.8,9332.46
2622.25,9731.96
2623.71,10127.5
2625.16,10628.5
2626.61,10994.6
2628.06,11403
2629.51,11863
2630.96,12239.8
2632.42,12740.7
2633.87,13282
2635.32,13587.8
2636.77,14141.2
2638.22,14648.8
2639.68,15037.2
2641.13,15474.3
2642.58,15934
2644.03,16320
2645.48,16744.2
2646.93,17170.6
2648.39,17629.2
2649.84,17699.3
2651.29,17835.5
2652.74,18274
2654.19,18604.6
2655.64,18608.5
2657.1,18878
2658.55,18939.7
2660,18958.5
2661.45,18887.1
2662.9,18768.9
2664.36,18615.1
2665.81,18504.4
2667.26,18301.1
2668.71,18095.8
2670.16,17894.3
2671.61,17453.6
2673.07,17095.6
2674.52,16701.7
2675.97,16335.1
2677.42,15831.7
2678.87,15387.8
2680.32,14889.2
2681.78,14424.6
2683.23,13935
2684.68,13473.5
2686.13,12988.6
2687.58,12436.3
2689.04,12018.9
2690.49,11667.6
2691.94,11195.1
2693.39,10689.2
2694.84,10277.4
2696.29,9783.9
2697.75,9359.74
2699.2,9012.39
2700.65,8599.15
2702.1,8263.19
2703.55,7865.54
2705.01,7485.6
2706.46,7264.33
2707.91,6992.9
2709.36,6694.6
2710.81,6388.43
2712.26,6145.28
2713.72,5840.78
2715.17,5638.02
2716.62,5369.8
2718.07,5211
2719.52,5064.77
2720.98,4886.97
2722.43,4672.68
2723.88,4520.96
2725.33,4368.79
2726.78,4149.83
2728.23,4120.34
2729.69,3969.79
2731.14,3850.86
2732.59,3666.15
2734.04,3560.53
2735.49,3473.2
2736.94,3409.47
2738.4,3288.54
2739.85,3224.36
2741.3,3088.48
2742.75,3081.38
2744.2,3042.64
2745.66,2891.13
2747.11,2861.45
2748.56,2811.43
2750.01,2760.43
2751.46,2720.37
2752.91,2648.49
2754.37,2597.02
2755.82,2558.26
2757.27,2506.79
2758.72,2482.43
2760.17,2430.58
2761.63,2355.28
2763.08,2332.3
2764.53,2319.24
2765.98,2291.54
2767.43,2221.94
2768.88,2242.97
2770.34,2225.58
2771.79,2158.3
2773.24,2123.32
2774.69,2118.58
2776.14,2066.23
2777.59,2058.2
2779.05,2019.94
2780.5,2041.51
2781.95,1927.31
2783.4,1933.8
2784.85,1918.56
2786.31,1897.45
2787.76,1884.29
2789.21,1894.01
2790.66,1888.63
2792.11,1869.85
2793.56,1824.01
2795.02,1754.98
2796.47,1797.02
2797.92,1779.4
2799.37,1746.49
2800.82,1768.28
2802.28,1764.67
2803.73,1736.67
2805.18,1701.03
2806.63,1689.41
2808.08,1691.55
2809.53,1675.95
2810.99,1701.63
2812.44,1662.6
2813.89,1673.17
2815.34,1630.53
2816.79,1632.06
2818.24,1612.26
2819.7,1605.66
2821.15,1611.4
2822.6,1572.09
2824.05,1556.44
2825.5,1570.48
2826.96,1540.92
2828.41,1544.58
2829.86,1525.94
2831.31,1540.04
2832.76,1525.08
2834.21,1525.9
2835.67,1523.43
2837.12,1514.49
2838.57,1500.8
2840.02,1503.66
2841.47,1509.57
2842.93,1487.19
2844.38,1514.51
2845.83,1514.54
2847.28,1525.87
2848.73,1476.82
2850.18,1476.03
2851.64,1475.83
2853.09,1457.05
2854.54,1475.72
2855.99,1487.43
2857.44,1431.74
2858.9,1448.02
2860.35,1454.04
2861.8,1485.1
2863.25,1473.19
2864.7,1478.04
2866.15,1481.41
2867.61,1477.18
2869.06,1492.39
2870.51,1470.52
2871.96,1510.79
2873.41,1454.71
2874.86,1507.35
2876.32,1464.33
2877.77,1479.18
2879.22,1474.16
2880.67,1471.65
2882.12,1490.11
2883.58,1491.26
2885.03,1508.89
2886.48,1531.16
2887.93,1492.06
2889.38,1513.34
2890.83,1508.73
2892.29,1500.29
2893.74,1510.57
2895.19,1491.77
2896.64,1500.29
2898.09,1530.94
2899.54,1491.86
2901,1514.28
2902.45,1485.13
2903.9,1474.21
2905.35,1452.66
2906.8,1458.41
2908.26,1500.44
2909.71,1507.09
2911.16,1473.45
2912.61,1480.2
2914.06,1457.08
2915.51,1479.39
2916.97,1466.45
2918.42,1419.1
2919.87,1442.71
2921.32,1444.16
2922.77,1409.23
2924.23,1407.59
2925.68,1410.23
2927.13,1395.73
2928.58,1404.45
2930.03,1390.76
2931.48,1367.48
2932.94,1375.75
2934.39,1352.54
2935.84,1345.04
2937.29,1322.36
2938.74,1317.65
2940.2,1337.02
2941.65,1283.93
2943.1,1255.65
2944.55,1270.42
2946,1277.98
2947.45,1228.64
2948.91,1222.01
2950.36,1213.94
2951.81,1214.13
2953.26,1208.08
2954.71,1187.77
2956.16,1160.99
2957.62,1178.65
2959.07,1176.29
2960.52,1155.87
2961.97,1124.31
2963.42,1102.83
2964.88,1116.84
2966.33,1141.47
2967.78,1124.38
2969.23,1133.76
2970.68,1109.13
2972.13,1105.27
2973.59,1066.82
2975.04,1062.42
2976.49,1060.09
2977.94,1100.18
2979.39,1076.09
2980.84,1052.11
2982.3,1060.73
2983.75,1022.24
2985.2,1030
2986.65,1047.91
2988.1,1035.18
2989.56,1047.85
2991.01,1048.9
2992.46,989.663
2993.91,1016.45
2995.36,971.865
2996.81,989.59
2998.27,1008.19
2999.72,999.202
3001.17,1001.42
3002.62,999.281
3004.07,1013.88
3005.53,992.851
3006.98,1012.97
3008.43,1001.33
3009.88,999.642
3011.33,957.134
3012.78,962.196
3014.24,940.565
3015.69,943.076
3017.14,964.247
3018.59,979.742
3020.04,958.662
3021.5,942.75
3022.95,971.518
3024.4,978.207
3025.85,948.492
3027.3,972.6
3028.75,959.273
3030.21,950.215
3031.66,958.527
3033.11,965.207
3034.56,958.392
3036.01,970.266
3037.46,956.274
3038.92,992.027
3040.37,988.119
3041.82,986.724
3043.27,954.465
3044.72,967.033
3046.18,963.314
3047.63,952.067
3049.08,935.048
3050.53,966.938
3051.98,983.963
3053.43,949.674
3054.89,945.594
3056.34,967.592
3057.79,966.544
3059.24,982.229
3060.69,971.588
3062.15,1003.34
3063.6,971.225
3065.05,987.477
3066.5,982.456
3067.95,978.649
3069.4,978.058
3070.86,993.937
3072.31,1017.76
3073.76,997.632
3075.21,987.273
3076.66,988.789
3078.11,1009.52
3079.57,1016.16
3081.02,1006.34
3082.47,1016.08
3083.92,1024.01
3085.37,1042.74
3086.83,1056.19
3088.28,1073.4
3089.73,1081.8
3091.18,1070.9
3092.63,1057.75
3094.08,1080.73
3095.54,1116.99
3096.99,1139.46
3098.44,1120.82
3099.89,1147.69
3101.34,1148.89
3102.8,1193
3104.25,1216.51
3105.7,1182.85
3107.15,1203.65
3108.6,1194.13
3110.05,1281.6
3111.51,1272.37
3112.96,1273.91
3114.41,1305.74
3115.86,1336.7
3117.31,1338.34
3118.76,1376.08
3120.22,1384.58
3121.67,1426.51
3123.12,1459.45
3124.57,1449.4
3126.02,1478.53
3127.48,1483.39
3128.93,1521.17
3130.38,1564.05
3131.83,1615.33
3133.28,1575.34
3134.73,1577.6
3136.19,1615.09
3137.64,1655.85
3139.09,1658.39
3140.54,1731.97
3141.99,1682.69
3143.45,1691.22
3144.9,1720.78
3146.35,1719.68
3147.8,1691.37
3149.25,1692.92
3150.7,1725.12
3152.16,1743.03
3153.61,1768.09
3155.06,1763.04
3156.51,1752.23
3157.96,1777.41
3159.42,1782.54
3160.87,1728.08
3162.32,1750.03
3163.77,1804.19
3165.22,1771.54
3166.67,1792.9
3168.13,1798.17
3169.58,1763.47
3171.03,1802.79
3172.48,1807.81
3173.93,1782.75
3175.38,1791.72
3176.84,1774.35
3178.29,1794.94
3179.74,1840.43
3181.19,1856.3
3182.64,1902.07
3184.1,1869.18
3185.55,1881.05
3187,1899.95
3188.45,1937.21
3189.9,1971.19
3191.35,1923.2
3192.81,1990.67
3194.26,2022.84
3195.71,2025.91
3197.16,2026.73
3198.61,2074.8
3200.06,2061.13
3201.52,1999.64
3202.97,2097.27
3204.42,2083.15
3205.87,2081.42
3207.32,2082.38
3208.78,2051.9
3210.23,2037.72
3211.68,2010.76
3213.13,2014.96
3214.58,1949.69
3216.03,1932.3
3217.49,1897.35
3218.94,1877.89
3220.39,1845.49
3221.84,1775.77
3223.29,1731.02
3224.75,1703.46
3226.2,1645.31
3227.65,1610.34
3229.1,1617.57
3230.55,1470.45
3232,1501.26
3233.46,1418.81
3234.91,1394.22
3236.36,1349.19
3237.81,1322.19
3239.26,1282.27
3240.72,1251.86
3242.17,1182.44
3243.62,1151.3
3245.07,1139.25
3246.52,1128.15
3247.97,1133.23
3249.43,1099.31
3250.88,1081.89
3252.33,1031.73
3253.78,1028.45
3255.23,1004.96
3256.68,973.147
3258.14,989.785
3259.59,982.67
3261.04,937.583
3262.49,932.724
3263.94,930.579
3265.4,941.968
3266.85,925.341
3268.3,894.059
3269.75,885.904
3271.2,899.931
3272.65,884.23
3274.11,867.885
3275.56,847.261
3277.01,837.202
3278.46,848.737
3279.91,847.969
3281.37,850.08
3282.82,865.533
3284.27,884.832
3285.72,834.634
3287.17,858.889
3288.62,848.666
3290.08,844.802
3291.53,834.061
3292.98,812.977
3294.43,820.41
3295.88,809.461
3297.33,788.672
3298.79,819.11
3300.24,807.526
3301.69,813.096
3303.14,813.947
3304.59,815.646
3306.05,807.579
3307.5,796.894
3308.95,802.68
3310.4,792.813
3311.85,800.379
3313.3,802.724
3314.76,798.463
3316.21,790.314
3317.66,798.955
3319.11,779.127
3320.56,804.565
3322.02,809.362
3323.47,804.943
3324.92,808.605
3326.37,812.716
3327.82,798.41
3329.27,759.973
3330.73,792.991
3332.18,769.582
3333.63,786.78
3335.08,812.429
3336.53,761.185
3337.98,784.877
3339.44,782.841
3340.89,791.99
3342.34,801.027
3343.79,791.663
3345.24,800.088
3346.7,802.384
3348.15,804.978
3349.6,768.542
3351.05,751.379
3352.5,768.838
3353.95,773.688
3355.41,785.992
3356.86,764.193
3358.31,800.653
3359.76,796.183
3361.21,801.399
3362.67,754.301
3364.12,747.34
3365.57,789.718
3367.02,765.15
3368.47,768.89
3369.92,779.182
3371.38,753.613
3372.83,769.552
3374.28,765.569
3375.73,783.028
3377.18,779.565
3378.63,792.691
3380.09,818.608
3381.54,771.701
3382.99,769.83
3384.44,782.551
3385.89,772.125
3387.35,762.773
3388.8,776.853
3390.25,771.862
3391.7,753.711
3393.15,778.268
3394.6,780.784
3396.06,765.381
3397.51,784.131
3398.96,758.288
3400.41,767.445
3401.86,760.16
3403.32,770.022
3404.77,775.474
3406.22,763.042
3407.67,766.222
3409.12,769.195
3410.57,757.038
3412.03,746.91
3413.48,741.916
3414.93,768.237
3416.38,758.548
3417.83,764.529
3419.28,756.404
3420.74,783.346
3422.19,748.32
3423.64,755.179
3425.09,753.031
3426.54,783.026
3428,789.091
3429.45,773.706
3430.9,726.653
3432.35,742.883
3433.8,731.983
3435.25,760.214
3436.71,747.999
3438.16,764.886
3439.61,745.963
3441.06,762.943
3442.51,761.023
3443.97,772.297
3445.42,739.603
3446.87,753.7
3448.32,745.265
3449.77,758.781
3451.22,747.922
3452.68,769.218
3454.13,755.308
3455.58,780.326
3457.03,760.493
3458.48,735.706
3459.94,763.889
3461.39,737.708
3462.84,760.74
3464.29,743.501
3465.74,744.757
3467.19,746.688
3468.65,742.063
3470.1,762.915
3471.55,773.561
3473,767.782
3474.45,755.004
3475.9,779.794
3477.36,752.773
3478.81,755.377
3480.26,746.129
3481.71,748.718
3483.16,759.39
3484.62,761.394
3486.07,740.926
3487.52,761.85
3488.97,747.055
3490.42,758.309
3491.87,757.929
3493.33,759.121
3494.78,764.482
3496.23,784.487
3497.68,764.104
3499.13,750.152
3500.58,733.957
3502.04,754.675
3503.49,781.526
3504.94,759.335
3506.39,779.393
3507.84,789.507
3509.3,763.643
3510.75,746.532
3512.2,771.813
3513.65,763.725
3515.1,751.042
3516.55,740.502
3518.01,741.527
3519.46,760.589
3520.91,746.389
3522.36,753.958
3523.81,769.138
3525.27,785.001
3526.72,759.514
3528.17,769.063
3529.62,764.659
3531.07,747.98
3532.52,781.27
3533.98,753.983
3535.43,760.67
3536.88,736.702
3538.33,746.026
3539.78,740.75
3541.24,749.921
3542.69,748.41
3544.14,737.406
3545.59,747.429
3547.04,771.703
3548.49,769.71
3549.95,747.562
3551.4,770.387
3552.85,747.916
3554.3,762.146
3555.75,741.921
3557.2,777.9
3558.66,754.118
3560.11,772.567
3561.56,747.403
3563.01,732.568
3564.46,749.165
3565.92,749.879
3567.37,755.912
3568.82,760.681
3570.27,741.934
3571.72,758.493
3573.17,748.764
3574.63,758.12
3576.08,724.12
3577.53,769.017
3578.98,753.058
3580.43,742.068
3581.89,755.448
3583.34,762.215
3584.79,751.342
3586.24,752.263
3587.69,748.675
3589.14,756.984
3590.6,736.343
3592.05,733.347
3593.5,736.982
3594.95,751.247
3596.4,730.382
3597.85,752.117
3599.31,735.834
3600.76,760.305
3602.21,737.417
3603.66,763.983
3605.11,756.007
3606.57,759.317
3608.02,759.948
3609.47,749.896
3610.92,730.521
3612.37,755.046
3613.82,756.7
3615.28,744.747
3616.73,765.192
3618.18,767.825
3619.63,747.268
3621.08,728.828
3622.54,761.76
3623.99,745.545
3625.44,757.774
3626.89,729.26
3628.34,736.784
3629.79,725.888
3631.25,772.058
3632.7,748.741
3634.15,755.848
3635.6,752.398
3637.05,764.875
3638.5,737.792
3639.96,736.853
3641.41,736.648
3642.86,756.993
3644.31,732.747
3645.76,760.887
3647.22,731.655
3648.67,764.127
3650.12,764.957
3651.57,720.003
3653.02,763.052
3654.47,751.116
3655.93,753.86
3657.38,753.732
3658.83,747.839
3660.28,743.546
3661.73,757.29
3663.19,738.378
3664.64,769.442
3666.09,747.387
3667.54,764.919
3668.99,770.335
3670.44,754.548
3671.9,753.14
3673.35,744.516
3674.8,741.02
3676.25,706.768
3677.7,735.235
3679.16,755.484
3680.61,787.551
3682.06,771.368
3683.51,752.444
3684.96,812.379
3686.41,749.823
3687.87,779.19
3689.32,758.768
3690.77,772.311
3692.22,766.837
3693.67,763.327
3695.12,757.682
3696.58,750.977
3698.03,768.952
3699.48,740.666
3700.93,765.33
3702.38,765.49
3703.84,784.096
3705.29,787.765
3706.74,746.535
3708.19,759.064
3709.64,748.419
3711.09,771.369
3712.55,752.453
3714,768.39
3715.45,775.541
3716.9,768.225
3718.35,769.634
3719.8,735.558
3721.26,752.049
3722.71,770.998
3724.16,786.05
3725.61,765.763
3727.06,755.075
3728.52,794.881
3729.97,782.185
3731.42,792.613
3732.87,787.36
3734.32,795.281
3735.77,743.948
3737.23,780.416
3738.68,780.081
3740.13,774.641
3741.58,800.895
3743.03,765.746
3744.49,759.857
3745.94,764.636
3747.39,787.892
3748.84,798.955
3750.29,773.245
3751.74,776.483
3753.2,756.288
3754.65,793.57
3756.1,773.098
3757.55,769.921
3759,786.686
3760.46,772.256
3761.91,784.002
3763.36,800.135
3764.81,760.662
3766.26,762.069
3767.71,795.944
3769.17,780.547
3770.62,772.754
3772.07,778.548
3773.52,765.64
3774.97,792.794
3776.42,775.719
3777.88,784.612
3779.33,794.214
3780.78,788.534
3782.23,793.553
3783.68,796.716
3785.14,783.91
3786.59,789.43
3788.04,777.109
3789.49,798.495
3790.94,783.222
3792.39,778.034
3793.85,801.535
3795.3,801.471
3796.75,799.698
3798.2,815.25
3799.65,800.045
3801.1,816.123
3802.56,806.72
3804.01,796.672
3805.46,798.227
3806.91,813.53
3808.36,794.075
3809.82,812.32
3811.27,811.367
3812.72,783.391
3814.17,808.601
3815.62,800.095
3817.07,808.177
3818.53,795.522
3819.98,817.314
3821.43,791.755
3822.88,792.035
3824.33,807.538
3825.79,806.134
3827.24,814.951
3828.69,816.367
3830.14,786.641
3831.59,818.004
3833.04,813.811
3834.5,786.872
3835.95,784.013
3837.4,816.527
3838.85,831.621
3840.3,799.036
3841.76,824.006
3843.21,821.721
3844.66,831.947
3846.11,808.427
3847.56,814.348
3849.01,811.821
3850.47,791.882
3851.92,812.331
3853.37,818.441
3854.82,831.136
3856.27,831.825
3857.72,839.207
3859.18,831.894
3860.63,815.768
3862.08,828.788
3863.53,825.495
3864.98,863.88
3866.44,861.685
3867.89,840.768
3869.34,826.34
3870.79,831.213
3872.24,846.189
3873.69,840.033
3875.15,827.107
3876.6,831.277
3878.05,835.957
3879.5,824.919
3880.95,840.808
3882.41,827.401
3883.86,828.241
3885.31,849.534
3886.76,863.347
3888.21,869.198
3889.66,853.717
3891.12,865.368
3892.57,857.589
3894.02,863.267
3895.47,870.462
3896.92,856.96
3898.37,864.097
3899.83,827.342
3901.28,864.737
3902.73,869.616
3904.18,867.061
3905.63,874.476
3907.09,885.897
3908.54,857.672
3909.99,867.601
3911.44,887.79
3912.89,886.015
3914.34,886.192
3915.8,861.632
3917.25,864.042
3918.7,915.286
3920.15,888.108
3921.6,898.635
3923.06,866.703
3924.51,887.814
3925.96,896.248
3927.41,881.272
3928.86,918.742
3930.31,899.183
3931.77,900.314
3933.22,879.928
3934.67,892.63
3936.12,890.554
3937.57,938.974
3939.02,930.444
3940.48,901.448
3941.93,943.387
3943.38,935.589
3944.83,919.194
3946.28,956.432
3947.74,941.678
3949.19,907.18
3950.64,930.552
3952.09,924.103
3953.54,935.601
3954.99,945.603
3956.45,929.867
3957.9,937.002
3959.35,951.88
3960.8,968.912
3962.25,946.291
3963.71,932.743
3965.16,931.832
3966.61,949.863
3968.06,959.849
3969.51,960.627
3970.96,953.652
3972.42,968.894
3973.87,985.763
3975.32,956.354
3976.77,950.93
3978.22,984.207
3979.68,1006.5
3981.13,992.197
3982.58,980.632
3984.03,983.809
3985.48,996.134
3986.93,1010.67
3988.39,981.356
3989.84,976.869
3991.29,1021.72
3992.74,991.998
3994.19,1014.84
3995.64,1018.2
3997.1,1027.26
3998.55,1002.36
4000,1040.01
