-20,71.9386
-18.5482,76.0216
-17.0964,76.9059
-15.6446,75.475
-14.1928,79.4492
-12.7411,82.6383
-11.2893,87.3225
-9.83749,94.1048
-8.3857,109.119
-6.93391,141.54
-5.48212,750.404
-4.03034,5727.73
-2.57855,19701.8
-1.12676,37287.1
0.325027,40340.9
1.77681,33563.1
3.2286,16370.6
4.68039,5373.52
6.13218,1297.65
7.58397,204.94
9.03575,123.267
10.4875,112.98
11.9393,107.408
13.3911,104.824
14.8429,102.304
16.2947,100.777
17.7465,100.693
19.1983,94.6057
20.6501,87.2107
22.1018,83.9128
23.5536,86.8646
25.0054,81.3718
26.4572,78.0695
27.909,74.7918
29.3608,75.1522
30.8126,74.8948
32.2644,72.2892
33.7161,70.9262
35.1679,69.1605
36.6197,67.2936
38.0715,76.7763
39.5233,74.2397
40.9751,74.9973
42.4269,77.3286
43.8787,82.2495
45.3304,84.0298
46.7822,95.9691
48.234,120.345
49.6858,168.098
51.1376,259.341
52.5894,446.661
54.0412,734.582
55.493,1107.24
56.9447,1525.03
58.3965,1982.66
59.8483,2335.24
61.3001,2688.23
62.7519,2983.61
64.2037,3184.25
65.6555,3360.66
67.1073,3470.29
68.559,3541.87
70.0108,3625.03
71.4626,3693.79
72.9144,3654.61
74.3662,3662.17
75.818,3708.12
77.2698,3768.3
78.7216,3858.28
80.1733,3906.45
81.6251,4043.93
83.0769,4146.46
84.5287,4165.84
85.9805,4229.65
87.4323,4134.25
88.8841,4042.6
90.3359,3948
91.7877,3791.41
93.2394,3594.68
94.6912,3404.39
96.143,3221.82
97.5948,3057.74
99.0466,2928.47
100.498,2828.61
101.95,2722.6
103.402,2643.49
104.854,2597.67
106.306,2565.73
107.757,2525.83
109.209,2480.97
110.661,2442.68
112.113,2407.31
113.564,2372.22
115.016,2297.56
116.468,2297.4
117.92,2288.47
119.372,2247.61
120.823,2197
122.275,2177.49
123.727,2148.17
125.179,2108.85
126.631,2054.01
128.082,1992.61
129.534,1930.41
130.986,1898.32
132.438,1885.41
133.889,1887.03
135.341,1829.12
136.793,1804.89
138.245,1787.7
139.697,1767.48
141.148,1725.64
142.6,1699.94
144.052,1659.69
145.504,1616.63
146.956,1586.06
148.407,1549.37
149.859,1532.49
151.311,1519.82
152.763,1499.43
154.215,1478.98
155.666,1458.12
157.118,1444.99
158.57,1433.26
160.022,1416.83
161.473,1402.26
162.925,1406.05
164.377,1367.28
165.829,1383.68
167.281,1421.07
168.732,1450.64
170.184,1485.3
171.636,1490.14
173.088,1449.63
174.54,1398.92
175.991,1356.89
177.443,1288.72
178.895,1291.15
180.347,1305.5
181.798,1313
183.25,1294.14
184.702,1262.09
186.154,1255.72
187.606,1231.17
189.057,1211.47
190.509,1216.77
191.961,1222.19
193.413,1185.94
194.865,1195.83
196.316,1189.24
197.768,1162.8
199.22,1167.3
200.672,1166.09
202.124,1155.51
203.575,1150.62
205.027,1154.55
206.479,1135.86
207.931,1134.25
209.382,1136.3
210.834,1135.42
212.286,1138.65
213.738,1124.48
215.19,1119.73
216.641,1127.93
218.093,1129.79
219.545,1130.49
220.997,1119.48
222.449,1116.14
223.9,1115.6
225.352,1124.99
226.804,1137.79
228.256,1120.3
229.707,1131.67
231.159,1123.23
232.611,1123.97
234.063,1125.5
235.515,1111.09
236.966,1109.16
238.418,1116.02
239.87,1113.83
241.322,1108.25
242.774,1104.45
244.225,1103.58
245.677,1098.37
247.129,1095.98
248.581,1095.57
250.033,1081.23
251.484,1070.74
252.936,1073.91
254.388,1067.25
255.84,1050.47
257.291,1038.41
258.743,1044.31
260.195,1052.58
261.647,1041.96
263.099,1036.76
264.55,1052.01
266.002,1034.33
267.454,1042.75
268.906,1028.03
270.358,1019.21
271.809,1022.66
273.261,1010
274.713,999.666
276.165,1001.77
277.616,1001.03
279.068,995.294
280.52,994.124
281.972,971.571
283.424,980.834
284.875,982.11
286.327,975.273
287.779,976.691
289.231,954.982
290.683,938.769
292.134,930.288
293.586,927.389
295.038,909.521
296.49,919.651
297.941,927.258
299.393,926.151
300.845,927.136
302.297,925.107
303.749,918.115
305.2,905.56
306.652,903.37
308.104,898.963
309.556,884.65
311.008,875.929
312.459,865.233
313.911,862.422
315.363,847.326
316.815,833.128
318.267,853.497
319.718,840.958
321.17,821.431
322.622,838.087
324.074,855.342
325.525,822.515
326.977,830.569
328.429,835.302
329.881,835.942
331.333,838.295
332.784,840.63
334.236,840.355
335.688,849.521
337.14,833.387
338.592,818.709
340.043,815.527
341.495,828.411
342.947,848.556
344.399,843.935
345.85,827.414
347.302,815.364
348.754,825.93
350.206,832.786
351.658,810.012
353.109,805.291
354.561,808.169
356.013,806.425
357.465,806.15
358.917,816.196
360.368,823.661
361.82,812.051
363.272,797.956
364.724,802.453
366.176,802.452
367.627,792.557
369.079,781.463
370.531,781.304
371.983,796.822
373.434,811.851
374.886,804.343
376.338,788.978
377.79,769.928
379.242,766.956
380.693,791.194
382.145,792.719
383.597,779.986
385.049,776.534
386.501,781.292
387.952,780.528
389.404,785.013
390.856,805.892
392.308,780.594
393.759,761.132
395.211,776.332
396.663,789.696
398.115,779.567
399.567,781.885
401.018,769.547
402.47,756.488
403.922,782.153
405.374,781.572
406.826,771.275
408.277,770.202
409.729,773.777
411.181,780.578
412.633,786.637
414.085,756.729
415.536,778.293
416.988,785.459
418.44,771.763
419.892,765.153
421.343,785.349
422.795,776.625
424.247,768.188
425.699,770.327
427.151,773.429
428.602,760.956
430.054,757.023
431.506,766.902
432.958,780.825
434.41,784.549
435.861,781.565
437.313,768.85
438.765,773.304
440.217,767.99
441.668,769.641
443.12,776.068
444.572,769.572
446.024,772.081
447.476,762.796
448.927,754.998
450.379,756.758
451.831,757.551
453.283,737.291
454.735,738.834
456.186,755.479
457.638,757.178
459.09,753.184
460.542,758.599
461.993,755.401
463.445,752.067
464.897,760.104
466.349,766.671
467.801,764.846
469.252,746.315
470.704,765.425
472.156,764.537
473.608,760.864
475.06,760.875
476.511,749.999
477.963,759.866
479.415,755.982
480.867,748.067
482.319,750.829
483.77,761.857
485.222,760.282
486.674,750.383
488.126,753.383
489.577,750.877
491.029,748.37
492.481,744.954
493.933,741.772
495.385,747.242
496.836,731.794
498.288,723.14
499.74,726.652
501.192,719.055
502.644,721.951
504.095,735.676
505.547,715.459
506.999,717.065
508.451,729.82
509.902,730.121
511.354,732.257
512.806,734.189
514.258,719.339
515.71,725.238
517.161,733.991
518.613,724.4
520.065,734.736
521.517,740.038
522.969,735.889
524.42,739.575
525.872,735.409
527.324,711.366
528.776,712.812
530.228,717.587
531.679,705.447
533.131,721.381
534.583,740.914
536.035,702.573
537.486,721.361
538.938,721.139
540.39,721.211
541.842,723.263
543.294,736.401
544.745,733.065
546.197,713.79
547.649,726.547
549.101,727.858
550.553,728.217
552.004,727.439
553.456,704.116
554.908,728.903
556.36,725.383
557.811,709.886
559.263,712.762
560.715,724.015
562.167,724.82
563.619,714.953
565.07,720.825
566.522,726.276
567.974,726.887
569.426,719.155
570.878,723.164
572.329,717.791
573.781,716.017
575.233,710.002
576.685,721.309
578.137,733.461
579.588,703.859
581.04,717.027
582.492,720.992
583.944,715.107
585.395,714.877
586.847,720.521
588.299,721.603
589.751,720.709
591.203,721.593
592.654,710.616
594.106,718.349
595.558,730.247
597.01,708.022
598.462,705.01
599.913,709.232
601.365,710.065
602.817,708.618
604.269,709.09
605.72,718.665
607.172,710.373
608.624,720.342
610.076,727.065
611.528,723.017
612.979,722.988
614.431,718.612
615.883,714.63
617.335,711.198
618.787,707.853
620.238,715.02
621.69,721.376
623.142,710.517
624.594,702.061
626.046,722.75
627.497,735.856
628.949,737.445
630.401,736.019
631.853,729.277
633.304,730.322
634.756,704.655
636.208,727.496
637.66,727.257
639.112,729.51
640.563,734.383
642.015,728.166
643.467,744.555
644.919,733.446
646.371,742.576
647.822,750.766
649.274,739.381
650.726,739.992
652.178,745.103
653.629,739.935
655.081,738.382
656.533,737.954
657.985,735.736
659.437,745.599
660.888,738.352
662.34,774.281
663.792,761.474
665.244,759.348
666.696,759.461
668.147,768.408
669.599,755.984
671.051,746.057
672.503,750.043
673.954,776.958
675.406,791.758
676.858,786.885
678.31,771.064
679.762,755.645
681.213,768.452
682.665,764.482
684.117,768.361
685.569,778.446
687.021,782.273
688.472,769.189
689.924,757.219
691.376,766.658
692.828,768.243
694.28,767.417
695.731,754.862
697.183,753.429
698.635,788.212
700.087,766.228
701.538,753.96
702.99,762.367
704.442,779.276
705.894,769.692
707.346,770.169
708.797,772.899
710.249,745.928
711.701,745.235
713.153,759.832
714.605,760.726
716.056,766.821
717.508,759.087
718.96,783.536
720.412,785.755
721.863,776.52
723.315,772.197
724.767,769.259
726.219,785.613
727.671,764.466
729.122,766.285
730.574,774.09
732.026,764.145
733.478,758.901
734.93,764.748
736.381,753.763
737.833,744.194
739.285,758.154
740.737,764.042
742.189,765.318
743.64,769.755
745.092,753.428
746.544,763.383
747.996,767.642
749.447,764.573
750.899,759.479
752.351,766.572
753.803,768.928
755.255,766.937
756.706,784.374
758.158,777.869
759.61,774.629
761.062,776.597
762.514,783.183
763.965,777.142
765.417,764.359
766.869,772.378
768.321,771.304
769.772,776.092
771.224,773.659
772.676,763.55
774.128,758.392
775.58,765.59
777.031,775.879
778.483,786.344
779.935,781.985
781.387,766.806
782.839,762.135
784.29,750.454
785.742,765.857
787.194,774.031
788.646,767.606
790.098,779.96
791.549,791.833
793.001,780.112
794.453,769.251
795.905,764.597
797.356,777.167
798.808,761.974
800.26,775.079
801.712,785.396
803.164,793.875
804.615,781.414
806.067,772.378
807.519,789.498
808.971,786.306
810.423,791.808
811.874,797.892
813.326,801.888
814.778,807.391
816.23,781.426
817.681,788.275
819.133,815.911
820.585,814.789
822.037,808.886
823.489,812.464
824.94,824.713
826.392,792.374
827.844,780.622
829.296,790.54
830.748,830.813
832.199,824.08
833.651,806.989
835.103,809.814
836.555,814.824
838.007,804.828
839.458,830.628
840.91,843.299
842.362,828.308
843.814,835.749
845.265,825.687
846.717,815.814
848.169,823.481
849.621,840.828
851.073,847.413
852.524,852.691
853.976,857.235
855.428,861.556
856.88,890.097
858.332,863.872
859.783,843.716
861.235,836.327
862.687,851.788
864.139,873.031
865.59,879.022
867.042,830.478
868.494,843.035
869.946,844.007
871.398,857.157
872.849,843.462
874.301,839.065
875.753,839.354
877.205,824.718
878.657,831.376
880.108,838.262
881.56,857.315
883.012,849.243
884.464,832.588
885.915,826.708
887.367,838.39
888.819,842.899
890.271,834.86
891.723,848.468
893.174,837.843
894.626,845.09
896.078,850.326
897.53,856.85
898.982,875.738
900.433,868.685
901.885,860.083
903.337,853.029
904.789,853.166
906.241,866.988
907.692,884.499
909.144,887.007
910.596,876.547
912.048,885.501
913.499,869.934
914.951,863.997
916.403,870.502
917.855,875.124
919.307,891.553
920.758,914.273
922.21,896.079
923.662,904.884
925.114,892.744
926.566,875.994
928.017,878.746
929.469,902.276
930.921,893.287
932.373,886.253
933.824,888.372
935.276,901.504
936.728,898.795
938.18,900.682
939.632,897.109
941.083,883.155
942.535,880.548
943.987,903.569
945.439,922.906
946.891,905.205
948.342,906.065
949.794,921.716
951.246,914.352
952.698,897.921
954.15,892.565
955.601,893.45
957.053,889.764
958.505,900.945
959.957,890.739
961.408,886.379
962.86,887.398
964.312,882.986
965.764,908.081
967.216,912.263
968.667,903.343
970.119,890.538
971.571,890.37
973.023,897.512
974.475,910.941
975.926,895.953
977.378,882.734
978.83,882.868
980.282,888.927
981.733,873.768
983.185,896.805
984.637,900.394
986.089,893.89
987.541,897.269
988.992,891.426
990.444,927.351
991.896,937.848
993.348,932.032
994.8,918.968
996.251,919.339
997.703,927.632
999.155,945.719
1000.61,950.072
1002.06,941.147
1003.51,940.926
1004.96,941.352
1006.41,938.547
1007.87,941.63
1009.32,930.665
1010.77,923.897
1012.22,953.703
1013.67,955.005
1015.12,958.272
1016.58,971.719
1018.03,976.187
1019.48,964.555
1020.93,967.491
1022.38,969.813
1023.84,998.537
1025.29,1000.61
1026.74,1023.92
1028.19,1026.81
1029.64,1012.75
1031.09,1004.28
1032.55,1033.02
1034,1056.61
1035.45,1024.93
1036.9,1041.51
1038.35,1039.94
1039.8,1028.89
1041.26,1039.66
1042.71,1041.61
1044.16,1049.49
1045.61,1058.63
1047.06,1078.38
1048.52,1091.65
1049.97,1085.51
1051.42,1079.69
1052.87,1103.6
1054.32,1135.28
1055.77,1149.71
1057.23,1134.35
1058.68,1131.85
1060.13,1155.63
1061.58,1175.21
1063.03,1158.46
1064.49,1185.08
1065.94,1210.15
1067.39,1215.78
1068.84,1213.45
1070.29,1231.74
1071.74,1257.98
1073.2,1251.55
1074.65,1279.87
1076.1,1270.15
1077.55,1272.24
1079,1263.1
1080.46,1278.15
1081.91,1291.95
1083.36,1286.28
1084.81,1311.76
1086.26,1297.94
1087.71,1314.74
1089.17,1300.05
1090.62,1293.71
1092.07,1289.53
1093.52,1273.08
1094.97,1262.43
1096.42,1279.17
1097.88,1284.59
1099.33,1280.57
1100.78,1275.59
1102.23,1274.44
1103.68,1269.85
1105.14,1264.68
1106.59,1252.75
1108.04,1244.21
1109.49,1219.58
1110.94,1213.21
1112.39,1214.39
1113.85,1220.81
1115.3,1202.99
1116.75,1208.02
1118.2,1200.6
1119.65,1186.64
1121.11,1194.74
1122.56,1184.58
1124.01,1190.31
1125.46,1173.67
1126.91,1181.77
1128.36,1194.85
1129.82,1169.6
1131.27,1148.45
1132.72,1162.89
1134.17,1152.62
1135.62,1157.76
1137.07,1153.47
1138.53,1148.93
1139.98,1144.42
1141.43,1141.89
1142.88,1141.91
1144.33,1139.92
1145.79,1135.1
1147.24,1144.35
1148.69,1167.5
1150.14,1170.38
1151.59,1148.11
1153.04,1128.62
1154.5,1131.2
1155.95,1136.83
1157.4,1142.15
1158.85,1145.12
1160.3,1146.22
1161.76,1119.64
1163.21,1138.92
1164.66,1145.15
1166.11,1142.42
1167.56,1147.45
1169.01,1165.7
1170.47,1168.46
1171.92,1157.03
1173.37,1157.19
1174.82,1174.02
1176.27,1186.19
1177.72,1157.31
1179.18,1170.86
1180.63,1161.6
1182.08,1167.5
1183.53,1159.19
1184.98,1166.51
1186.44,1176.48
1187.89,1165.53
1189.34,1170.59
1190.79,1180.42
1192.24,1179.9
1193.69,1203.55
1195.15,1206.33
1196.6,1215.48
1198.05,1210.87
1199.5,1199.11
1200.95,1198.87
1202.41,1169.21
1203.86,1162.5
1205.31,1234.62
1206.76,1230.79
1208.21,1217.5
1209.66,1234.16
1211.12,1229.35
1212.57,1225.87
1214.02,1243.89
1215.47,1249.55
1216.92,1240.81
1218.37,1238.1
1219.83,1221.93
1221.28,1265.23
1222.73,1247.02
1224.18,1229.75
1225.63,1220.63
1227.09,1228.8
1228.54,1246.13
1229.99,1260.18
1231.44,1274.03
1232.89,1281.43
1234.34,1265.74
1235.8,1283.83
1237.25,1290.03
1238.7,1296.4
1240.15,1308.81
1241.6,1313.11
1243.06,1320.39
1244.51,1321.25
1245.96,1284.42
1247.41,1325.57
1248.86,1337.85
1250.31,1326.09
1251.77,1355.81
1253.22,1366.31
1254.67,1371.73
1256.12,1370.68
1257.57,1378.35
1259.02,1399.93
1260.48,1425.53
1261.93,1447.04
1263.38,1422.1
1264.83,1425.86
1266.28,1442.31
1267.74,1466.57
1269.19,1495.06
1270.64,1508.54
1272.09,1516.87
1273.54,1543.66
1274.99,1596.45
1276.45,1613.19
1277.9,1622.66
1279.35,1612.94
1280.8,1638.01
1282.25,1663.83
1283.71,1692.05
1285.16,1717.71
1286.61,1756.67
1288.06,1800.26
1289.51,1845.09
1290.96,1859.97
1292.42,1906.2
1293.87,1934.46
1295.32,2037.7
1296.77,2071.33
1298.22,2118.72
1299.67,2205.59
1301.13,2274.64
1302.58,2317.89
1304.03,2399.43
1305.48,2511
1306.93,2605.67
1308.39,2685.73
1309.84,2775.58
1311.29,2937.37
1312.74,3019.39
1314.19,3146.3
1315.64,3291.85
1317.1,3425.61
1318.55,3602.62
1320,3792.32
1321.45,3913.99
1322.9,4027.22
1324.36,4193.82
1325.81,4293.11
1327.26,4480.08
1328.71,4605.89
1330.16,4718.19
1331.61,4734.24
1333.07,4733.03
1334.52,4798.21
1335.97,4838.12
1337.42,4794.68
1338.87,4738.07
1340.33,4661.63
1341.78,4598.94
1343.23,4442.47
1344.68,4332.21
1346.13,4191.77
1347.58,4038.27
1349.04,3886.35
1350.49,3725.46
1351.94,3564.48
1353.39,3471.77
1354.84,3296.14
1356.29,3141.56
1357.75,3008.09
1359.2,2901.31
1360.65,2756.7
1362.1,2663.89
1363.55,2575.99
1365.01,2498.19
1366.46,2431.69
1367.91,2358.49
1369.36,2291.86
1370.81,2240.25
1372.26,2176.58
1373.72,2131.65
1375.17,2058.4
1376.62,2069.47
1378.07,2018.18
1379.52,1983.68
1380.98,1944.06
1382.43,1904.33
1383.88,1883.41
1385.33,1858.25
1386.78,1831.76
1388.23,1827.72
1389.69,1802.67
1391.14,1791.72
1392.59,1792.35
1394.04,1763.23
1395.49,1737.99
1396.94,1734.98
1398.4,1720.44
1399.85,1702.58
1401.3,1701.6
1402.75,1698.83
1404.2,1685.51
1405.66,1719.59
1407.11,1731.08
1408.56,1736.61
1410.01,1684.79
1411.46,1696.37
1412.91,1711.69
1414.37,1707.67
1415.82,1699.78
1417.27,1689.1
1418.72,1681.63
1420.17,1701.41
1421.63,1710.39
1423.08,1705.59
1424.53,1724.43
1425.98,1736.9
1427.43,1732.49
1428.88,1759.45
1430.34,1738.33
1431.79,1734.59
1433.24,1742.42
1434.69,1749.9
1436.14,1767.04
1437.59,1772.11
1439.05,1773.61
1440.5,1802.18
1441.95,1803.52
1443.4,1817.34
1444.85,1819.65
1446.31,1850.43
1447.76,1865.63
1449.21,1872.91
1450.66,1866.42
1452.11,1881.64
1453.56,1922.79
1455.02,1922.88
1456.47,1911.67
1457.92,1928
1459.37,1972.7
1460.82,1993.59
1462.28,2018.03
1463.73,2027.67
1465.18,2043.14
1466.63,2062.54
1468.08,2088.62
1469.53,2101.3
1470.99,2140.23
1472.44,2189.54
1473.89,2214.49
1475.34,2249.39
1476.79,2257.3
1478.24,2264.67
1479.7,2315.07
1481.15,2365.65
1482.6,2395.54
1484.05,2451.47
1485.5,2511.55
1486.96,2567.78
1488.41,2566.17
1489.86,2612.46
1491.31,2662.89
1492.76,2723.32
1494.21,2789.01
1495.67,2852.32
1497.12,2901.69
1498.57,2945.29
1500.02,3062.81
1501.47,3128.48
1502.93,3212.62
1504.38,3303.45
1505.83,3396.99
1507.28,3530.82
1508.73,3616.74
1510.18,3679.71
1511.64,3806.76
1513.09,3984.88
1514.54,4152.31
1515.99,4300.03
1517.44,4493.98
1518.89,4645.91
1520.35,4941.05
1521.8,5193.06
1523.25,5499.36
1524.7,5811.65
1526.15,6232.74
1527.61,6662.37
1529.06,7085.03
1530.51,7568.74
1531.96,8112.71
1533.41,8646.57
1534.86,9276.25
1536.32,10023.7
1537.77,10785.2
1539.22,11716.5
1540.67,12730.7
1542.12,13912.9
1543.58,15172
1545.03,16517.9
1546.48,18018.3
1547.93,19512.3
1549.38,21278.9
1550.83,22906.1
1552.29,24672.4
1553.74,26576.7
1555.19,28424.6
1556.64,30255
1558.09,32026.4
1559.54,33677.7
1561,35134.7
1562.45,36444.1
1563.9,37251.2
1565.35,37915.2
1566.8,38090.1
1568.26,38055.4
1569.71,37401.7
1571.16,36567.1
1572.61,35321.8
1574.06,33856.3
1575.51,32077
1576.97,30194.4
1578.42,28200.8
1579.87,26211.8
1581.32,24263.4
1582.77,22258.5
1584.23,20426.6
1585.68,18580.7
1587.13,17007
1588.58,15623.4
1590.03,14295.4
1591.48,13083.1
1592.94,12029.3
1594.39,11028.3
1595.84,10202.6
1597.29,9556.75
1598.74,8988.64
1600.2,8396.62
1601.65,7888.25
1603.1,7458.4
1604.55,7044.13
1606,6710.13
1607.45,6381.65
1608.91,6018.51
1610.36,5773.44
1611.81,5412.8
1613.26,5202.49
1614.71,4900.13
1616.16,4623.02
1617.62,4449.99
1619.07,4228.79
1620.52,4005.28
1621.97,3844.88
1623.42,3694.9
1624.88,3554.97
1626.33,3408.16
1627.78,3310.75
1629.23,3195.96
1630.68,3073.06
1632.13,2979.09
1633.59,2867.54
1635.04,2835.23
1636.49,2700.6
1637.94,2665
1639.39,2637.12
1640.85,2537.46
1642.3,2513.95
1643.75,2466.82
1645.2,2383.28
1646.65,2348.27
1648.1,2267.59
1649.56,2247.38
1651.01,2209.66
1652.46,2175.03
1653.91,2161.56
1655.36,2142.94
1656.81,2114.49
1658.27,2048.48
1659.72,2002.42
1661.17,1982.6
1662.62,1976.09
1664.07,1942.66
1665.53,1894.2
1666.98,1855
1668.43,1823.66
1669.88,1828.36
1671.33,1790.86
1672.78,1793.16
1674.24,1786.94
1675.69,1775.03
1677.14,1740.79
1678.59,1702.61
1680.04,1693.26
1681.5,1654.49
1682.95,1644.45
1684.4,1664.39
1685.85,1636.4
1687.3,1594.62
1688.75,1598.8
1690.21,1587.85
1691.66,1585.02
1693.11,1583.53
1694.56,1539.81
1696.01,1572.59
1697.46,1513.27
1698.92,1521.8
1700.37,1536.43
1701.82,1514.13
1703.27,1519.4
1704.72,1485.03
1706.18,1483.46
1707.63,1489.32
1709.08,1483.13
1710.53,1491.01
1711.98,1479.68
1713.43,1477.36
1714.89,1481.2
1716.34,1459.27
1717.79,1465.81
1719.24,1488.04
1720.69,1464.57
1722.15,1463.22
1723.6,1453.11
1725.05,1426.99
1726.5,1421
1727.95,1455.95
1729.4,1457.48
1730.86,1432.36
1732.31,1446.9
1733.76,1455.59
1735.21,1451.56
1736.66,1434.2
1738.11,1429.23
1739.57,1407.62
1741.02,1401.52
1742.47,1430.02
1743.92,1435.76
1745.37,1414.12
1746.83,1390.53
1748.28,1351.58
1749.73,1353.54
1751.18,1353.19
1752.63,1372.91
1754.08,1351.37
1755.54,1365.23
1756.99,1331.39
1758.44,1329.84
1759.89,1311.63
1761.34,1319.36
1762.8,1315.06
1764.25,1297.23
1765.7,1288.58
1767.15,1316.95
1768.6,1298.14
1770.05,1279.72
1771.51,1283.18
1772.96,1272.01
1774.41,1263.1
1775.86,1256.58
1777.31,1257.91
1778.76,1271.27
1780.22,1267.14
1781.67,1240.77
1783.12,1240.38
1784.57,1219.66
1786.02,1221.33
1787.48,1220.81
1788.93,1231.73
1790.38,1208.85
1791.83,1210.5
1793.28,1190.29
1794.73,1232.7
1796.19,1231.16
1797.64,1215.58
1799.09,1191.89
1800.54,1203.37
1801.99,1194.12
1803.45,1181.59
1804.9,1193.86
1806.35,1180.15
1807.8,1168.9
1809.25,1178.8
1810.7,1182.72
1812.16,1180.97
1813.61,1172.2
1815.06,1170.85
1816.51,1182.73
1817.96,1200.85
1819.41,1181.49
1820.87,1183.56
1822.32,1200.59
1823.77,1164.95
1825.22,1150.8
1826.67,1153.42
1828.13,1166.33
1829.58,1182.42
1831.03,1165.13
1832.48,1212.76
1833.93,1220.46
1835.38,1189.38
1836.84,1190.08
1838.29,1220.67
1839.74,1188.87
1841.19,1208.08
1842.64,1212.44
1844.1,1204.18
1845.55,1219.46
1847,1230.98
1848.45,1231.59
1849.9,1221.79
1851.35,1225.8
1852.81,1227.22
1854.26,1242.77
1855.71,1241.35
1857.16,1219.13
1858.61,1241.2
1860.07,1241.62
1861.52,1253.95
1862.97,1268.25
1864.42,1227.94
1865.87,1230.4
1867.32,1228.95
1868.78,1203.27
1870.23,1224.08
1871.68,1245.83
1873.13,1233.82
1874.58,1219.96
1876.03,1198.9
1877.49,1198
1878.94,1204.21
1880.39,1204.2
1881.84,1179.99
1883.29,1176.92
1884.75,1181.39
1886.2,1155
1887.65,1165.5
1889.1,1157.52
1890.55,1146.99
1892,1130.7
1893.46,1154.22
1894.91,1153.76
1896.36,1127.29
1897.81,1123.87
1899.26,1132.5
1900.72,1142.65
1902.17,1127.54
1903.62,1106.1
1905.07,1105.84
1906.52,1085.65
1907.97,1103.25
1909.43,1106.02
1910.88,1093.17
1912.33,1093.08
1913.78,1066.11
1915.23,1063.34
1916.68,1088.31
1918.14,1077.57
1919.59,1062.25
1921.04,1084.24
1922.49,1079.09
1923.94,1081.17
1925.4,1071.63
1926.85,1064.98
1928.3,1071.07
1929.75,1073.74
1931.2,1078.03
1932.65,1098.74
1934.11,1037.77
1935.56,1050.45
1937.01,1122.53
1938.46,1092.59
1939.91,1066.42
1941.37,1049.3
1942.82,1088.76
1944.27,1089.64
1945.72,1055.34
1947.17,1076.63
1948.62,1090.15
1950.08,1089.45
1951.53,1078.55
1952.98,1095.34
1954.43,1093.21
1955.88,1101.67
1957.33,1087.96
1958.79,1087.48
1960.24,1115.61
1961.69,1104.7
1963.14,1115.48
1964.59,1108.19
1966.05,1098.12
1967.5,1121.96
1968.95,1122.18
1970.4,1109.1
1971.85,1097.48
1973.3,1098.62
1974.76,1116.05
1976.21,1122.3
1977.66,1127.16
1979.11,1119.52
1980.56,1112.41
1982.02,1124.6
1983.47,1135.77
1984.92,1138.52
1986.37,1146.64
1987.82,1127.02
1989.27,1118.59
1990.73,1119.37
1992.18,1119.23
1993.63,1146.29
1995.08,1115.13
1996.53,1115.1
1997.98,1122.23
1999.44,1143.5
2000.89,1110.01
2002.34,1123.43
2003.79,1126.69
2005.24,1128.65
2006.7,1139.69
2008.15,1139.56
2009.6,1100.98
2011.05,1111.73
2012.5,1077.97
2013.95,1069.92
2015.41,1087.58
2016.86,1100.95
2018.31,1072.82
2019.76,1107.72
2021.21,1092.14
2022.67,1069.12
2024.12,1043.8
2025.57,1072.97
2027.02,1092.64
2028.47,1085.28
2029.92,1055.08
2031.38,1047.88
2032.83,1048.81
2034.28,1024.26
2035.73,1051.87
2037.18,1032.22
2038.63,1024.27
2040.09,1012.47
2041.54,1028.81
2042.99,1011.41
2044.44,1032.81
2045.89,1034.41
2047.35,1012.32
2048.8,1019.12
2050.25,999.239
2051.7,1012.5
2053.15,1025.34
2054.6,1007.4
2056.06,1002.4
2057.51,1005.6
2058.96,986.721
2060.41,977.606
2061.86,992.5
2063.32,989.918
2064.77,989.739
2066.22,990.702
2067.67,980.609
2069.12,962.841
2070.57,967.514
2072.03,978.434
2073.48,983.267
2074.93,971.615
2076.38,974.146
2077.83,986.01
2079.28,970.718
2080.74,971.349
2082.19,963.712
2083.64,953.903
2085.09,963.519
2086.54,953.783
2088,956.108
2089.45,974.379
2090.9,975.148
2092.35,977.378
2093.8,950.06
2095.25,939.537
2096.71,968.035
2098.16,956.476
2099.61,930.721
2101.06,960.449
2102.51,961.244
2103.97,956.842
2105.42,956.089
2106.87,969.412
2108.32,970.661
2109.77,954.027
2111.22,972.149
2112.68,971.5
2114.13,944.926
2115.58,963.209
2117.03,986.89
2118.48,972.687
2119.94,956.01
2121.39,942.687
2122.84,958.696
2124.29,989.469
2125.74,979.929
2127.19,961.79
2128.65,950.058
2130.1,967.762
2131.55,971.447
2133,964.238
2134.45,971.939
2135.9,982.644
2137.36,973.653
2138.81,977.725
2140.26,977.88
2141.71,987.098
2143.16,984.888
2144.62,994.099
2146.07,997.231
2147.52,999.242
2148.97,998.755
2150.42,998.473
2151.87,991.277
2153.33,1002.09
2154.78,998.646
2156.23,982.512
2157.68,982.52
2159.13,1018.62
2160.58,1018
2162.04,1008.14
2163.49,1017.07
2164.94,1014.54
2166.39,994.794
2167.84,1012.26
2169.3,1019.92
2170.75,1001.95
2172.2,1027.8
2173.65,1027.23
2175.1,1033.45
2176.55,1036.1
2178.01,1029.09
2179.46,1020.44
2180.91,1027.11
2182.36,1021.51
2183.81,1033.1
2185.27,1051.03
2186.72,1041.85
2188.17,1036.93
2189.62,1042.08
2191.07,1042.34
2192.52,1044.11
2193.98,1050.27
2195.43,1050.25
2196.88,1061.7
2198.33,1036.95
2199.78,1050.15
2201.24,1051.62
2202.69,1045.28
2204.14,1047.13
2205.59,1045.52
2207.04,1063.49
2208.49,1058.06
2209.95,1084.05
2211.4,1060.47
2212.85,1051.6
2214.3,1057.42
2215.75,1045.49
2217.2,1046.31
2218.66,1030.06
2220.11,1051.33
2221.56,1058.41
2223.01,1053.36
2224.46,1132.4
2225.92,1052.7
2227.37,1059.44
2228.82,1073.32
2230.27,1054.84
2231.72,1064.04
2233.17,1074.17
2234.63,1074.94
2236.08,1043.59
2237.53,1062.95
2238.98,1091.9
2240.43,1087.75
2241.89,1074.27
2243.34,1075.34
2244.79,1081.29
2246.24,1070.29
2247.69,1076.26
2249.14,1092.74
2250.6,1096.41
2252.05,1100.96
2253.5,1100.95
2254.95,1086
2256.4,1083.88
2257.85,1097.9
2259.31,1112.95
2260.76,1118.64
2262.21,1112.6
2263.66,1115.25
2265.11,1106.67
2266.57,1122.11
2268.02,1129.42
2269.47,1148.38
2270.92,1149.63
2272.37,1127.9
2273.82,1112.39
2275.28,1123.16
2276.73,1125.4
2278.18,1127.96
2279.63,1130.27
2281.08,1153.02
2282.54,1139.22
2283.99,1152.79
2285.44,1149.89
2286.89,1156.38
2288.34,1156.96
2289.79,1163.34
2291.25,1164.9
2292.7,1193.88
2294.15,1196.15
2295.6,1179.82
2297.05,1193.42
2298.5,1157.35
2299.96,1184.42
2301.41,1212.25
2302.86,1202.21
2304.31,1212.17
2305.76,1186.77
2307.22,1196.7
2308.67,1218.19
2310.12,1191.58
2311.57,1220.28
2313.02,1226.77
2314.47,1230.21
2315.93,1233.85
2317.38,1246.23
2318.83,1258.81
2320.28,1243.33
2321.73,1245.73
2323.19,1237.25
2324.64,1232.32
2326.09,1269.58
2327.54,1268.74
2328.99,1270.15
2330.44,1281.58
2331.9,1275.94
2333.35,1286.22
2334.8,1305.31
2336.25,1298.15
2337.7,1297.03
2339.16,1296.29
2340.61,1309.65
2342.06,1292.6
2343.51,1325.69
2344.96,1349.47
2346.41,1335.84
2347.87,1354.36
2349.32,1345.11
2350.77,1335.57
2352.22,1321.88
2353.67,1349.85
2355.12,1370.49
2356.58,1355.17
2358.03,1387.51
2359.48,1409.21
2360.93,1403.38
2362.38,1427.84
2363.84,1454.88
2365.29,1428.79
2366.74,1438.97
2368.19,1464.7
2369.64,1469.01
2371.09,1490.48
2372.55,1492.23
2374,1497.11
2375.45,1531.45
2376.9,1585.05
2378.35,1570.53
2379.8,1573.76
2381.26,1607.99
2382.71,1615.67
2384.16,1625.42
2385.61,1659.55
2387.06,1688.11
2388.52,1689.13
2389.97,1712.28
2391.42,1762.74
2392.87,1806.01
2394.32,1806.2
2395.77,1826.46
2397.23,1835.35
2398.68,1879.71
2400.13,1928.47
2401.58,1944.54
2403.03,1963.29
2404.49,2003.19
2405.94,2069.17
2407.39,2058.29
2408.84,2123.61
2410.29,2175.24
2411.74,2193.53
2413.2,2211.15
2414.65,2203.31
2416.1,2240.88
2417.55,2281.94
2419,2320.19
2420.46,2385.07
2421.91,2378.88
2423.36,2379.39
2424.81,2430.55
2426.26,2417.13
2427.71,2405.84
2429.17,2434.58
2430.62,2435.08
2432.07,2422.17
2433.52,2405.64
2434.97,2408.65
2436.42,2413.92
2437.88,2409.04
2439.33,2383.14
2440.78,2395.14
2442.23,2377.1
2443.68,2379.92
2445.14,2389.24
2446.59,2362.72
2448.04,2387.91
2449.49,2328.61
2450.94,2302.13
2452.39,2318.76
2453.85,2310.89
2455.3,2284.1
2456.75,2244.46
2458.2,2204.48
2459.65,2229.69
2461.1,2242.32
2462.56,2239.6
2464.01,2230.02
2465.46,2198.96
2466.91,2153.43
2468.36,2153.11
2469.82,2157.32
2471.27,2183.59
2472.72,2201.81
2474.17,2187.05
2475.62,2139.62
2477.07,2144.34
2478.53,2162.52
2479.98,2140.5
2481.43,2143.41
2482.88,2099.29
2484.33,2097.97
2485.79,2109.53
2487.24,2115.15
2488.69,2104.52
2490.14,2139.62
2491.59,2147.73
2493.04,2150.66
2494.5,2147.9
2495.95,2138.58
2497.4,2177.18
2498.85,2161.48
2500.3,2159.07
2501.76,2140.39
2503.21,2199.95
2504.66,2157.51
2506.11,2182.78
2507.56,2196.67
2509.01,2205.59
2510.47,2169.69
2511.92,2183.64
2513.37,2210.3
2514.82,2237.95
2516.27,2251.96
2517.72,2282.13
2519.18,2308.92
2520.63,2310.97
2522.08,2301.69
2523.53,2329.38
2524.98,2332.78
2526.44,2337.17
2527.89,2372.42
2529.34,2458.47
2530.79,2440.98
2532.24,2422.23
2533.69,2489.76
2535.15,2491.98
2536.6,2537.96
2538.05,2594.93
2539.5,2607.89
2540.95,2614.75
2542.41,2652.66
2543.86,2694.95
2545.31,2703.73
2546.76,2731.63
2548.21,2739.22
2549.66,2810.28
2551.12,2836.98
2552.57,2855.48
2554.02,2926.79
2555.47,2975.62
2556.92,3053.41
2558.37,3150.93
2559.83,3123.36
2561.28,3172.02
2562.73,3238.29
2564.18,3295.91
2565.63,3369.44
2567.09,3451.76
2568.54,3498.54
2569.99,3577.1
2571.44,3630.97
2572.89,3716.27
2574.34,3816.02
2575.8,3908.5
2577.25,4011.96
2578.7,4111.69
2580.15,4181.64
2581.6,4210.69
2583.06,4407.81
2584.51,4514.2
2585.96,4622.63
2587.41,4768.25
2588.86,4908.77
2590.31,5033.44
2591.77,5190.65
2593.22,5304.9
2594.67,5476.7
2596.12,5608.51
2597.57,5851.75
2599.02,6043.77
2600.48,6205.61
2601.93,6395.15
2603.38,6674.72
2604.83,6897.54
2606.28,7164.66
2607.74,7439.63
2609.19,7656.76
2610.64,7957.77
2612.09,8278.68
2613.54,8563.65
2614.99,8916.76
2616.45,9246.36
2617.9,9631.8
2619.35,9986.06
2620.8,10354.9
2622.25,10766.1
2623.71,11129.1
2625.16,11651.7
2626.61,12016.8
2628.06,12432.6
2629.51,12990.2
2630.96,13424.2
2632.42,13871.3
2633.87,14367.2
2635.32,14817.7
2636.77,15278.1
2638.22,15662.3
2639.68,16110.6
2641.13,16546.3
2642.58,17000.3
2644.03,17431
2645.48,17851.5
2646.93,18164.2
2648.39,18440.2
2649.84,18769.5
2651.29,18880.6
2652.74,19206.4
2654.19,19296.2
2655.64,19306.5
2657.1,19444.6
2658.55,19422.4
2660,19384.4
2661.45,19283
2662.9,19113
2664.36,18949.5
2665.81,18776.5
2667.26,18460.9
2668.71,18272.2
2670.16,17815.7
2671.61,17539.3
2673.07,17185.4
2674.52,16797.1
2675.97,16370.1
2677.42,15874.7
2678.87,15450.7
2680.32,15003.6
2681.78,14531.3
2683.23,14002.3
2684.68,13581.5
2686.13,13058.1
2687.58,12536.6
2689.04,12132.2
2690.49,11682.2
2691.94,11247.4
2693.39,10819.1
2694.84,10336.3
2696.29,9930.5
2697.75,9498.5
2699.2,9045.86
2700.65,8687.91
2702.1,8364.86
2703.55,8085.56
2705.01,7724.61
2706.46,7434.17
2707.91,7116.58
2709.36,6769.7
2710.81,6509.17
2712.26,6229.4
2713.72,6055.13
2715.17,5825.23
2716.62,5568.68
2718.07,5374.26
2719.52,5216.97
2720.98,4998.13
2722.43,4869.45
2723.88,4679.38
2725.33,4549.47
2726.78,4377.35
2728.23,4200.41
2729.69,4084.59
2731.14,3979.47
2732.59,3869.23
2734.04,3748.95
2735.49,3681.82
2736.94,3563.75
2738.4,3488.02
2739.85,3447.21
2741.3,3344.27
2742.75,3269.35
2744.2,3211.16
2745.66,3073.27
2747.11,3016.71
2748.56,3005.95
2750.01,2882.97
2751.46,2796.15
2752.91,2778.2
2754.37,2744.53
2755.82,2697.06
2757.27,2651.48
2758.72,2632.87
2760.17,2577.13
2761.63,2580.82
2763.08,2528.88
2764.53,2473.16
2765.98,2445.44
2767.43,2448.16
2768.88,2405.28
2770.34,2339.61
2771.79,2309.24
2773.24,2272.86
2774.69,2283.69
2776.14,2240.06
2777.59,2203.24
2779.05,2192.35
2780.5,2169.42
2781.95,2089.72
2783.4,2099.51
2784.85,2084.97
2786.31,2064.75
2787.76,2047.65
2789.21,2060.46
2790.66,2018.17
2792.11,1974.82
2793.56,1974.13
2795.02,1998.23
2796.47,1967.37
2797.92,1875.32
2799.37,1931.45
2800.82,1941.28
2802.28,1889.85
2803.73,1851.96
2805.18,1835.52
2806.63,1834.04
2808.08,1821.6
2809.53,1810.95
2810.99,1778.55
2812.44,1762.63
2813.89,1765.61
2815.34,1769.79
2816.79,1740.47
2818.24,1752.33
2819.7,1781.49
2821.15,1750.98
2822.6,1739.44
2824.05,1718.35
2825.5,1715.68
2826.96,1660.42
2828.41,1717.13
2829.86,1695.2
2831.31,1668.87
2832.76,1684.22
2834.21,1684.61
2835.67,1672.98
2837.12,1654.77
2838.57,1632.93
2840.02,1628.71
2841.47,1628.27
2842.93,1639.97
2844.38,1615.66
2845.83,1625.78
2847.28,1638.79
2848.73,1658.45
2850.18,1632.43
2851.64,1624.85
2853.09,1604.13
2854.54,1614.04
2855.99,1600.98
2857.44,1594
2858.9,1628.46
2860.35,1599.57
2861.8,1604.66
2863.25,1610.04
2864.7,1617.24
2866.15,1604.47
2867.61,1621.97
2869.06,1632.91
2870.51,1605.79
2871.96,1630.04
2873.41,1602.73
2874.86,1613.89
2876.32,1640.17
2877.77,1616.2
2879.22,1654.22
2880.67,1639.57
2882.12,1632.38
2883.58,1641.55
2885.03,1634.11
2886.48,1638.28
2887.93,1624.91
2889.38,1635.42
2890.83,1635.98
2892.29,1659.27
2893.74,1653.77
2895.19,1640.54
2896.64,1649.33
2898.09,1678.38
2899.54,1659.92
2901,1619.65
2902.45,1663.91
2903.9,1629.45
2905.35,1658.23
2906.8,1622.83
2908.26,1640
2909.71,1640.28
2911.16,1634.29
2912.61,1620.27
2914.06,1613.39
2915.51,1581.31
2916.97,1625.79
2918.42,1594.38
2919.87,1587.09
2921.32,1577.7
2922.77,1577.33
2924.23,1553.5
2925.68,1573.84
2927.13,1541.55
2928.58,1511.03
2930.03,1528.29
2931.48,1516.83
2932.94,1471.86
2934.39,1472.21
2935.84,1481.41
2937.29,1458.82
2938.74,1436.73
2940.2,1437.58
2941.65,1438.53
2943.1,1398.02
2944.55,1390.48
2946,1386.68
2947.45,1400.23
2948.91,1363.57
2950.36,1344.8
2951.81,1354.17
2953.26,1341.3
2954.71,1331.31
2956.16,1310.83
2957.62,1297.37
2959.07,1293.92
2960.52,1309.21
2961.97,1288.34
2963.42,1260.06
2964.88,1254.94
2966.33,1231.49
2967.78,1209.83
2969.23,1239.94
2970.68,1212.17
2972.13,1218.46
2973.59,1215.54
2975.04,1188.95
2976.49,1186.34
2977.94,1156.26
2979.39,1158.74
2980.84,1154.96
2982.3,1174.18
2983.75,1154.06
2985.2,1148.26
2986.65,1136.01
2988.1,1126.85
2989.56,1128.16
2991.01,1138.03
2992.46,1134.85
2993.91,1153.16
2995.36,1092.05
2996.81,1120.7
2998.27,1109.47
2999.72,1098.03
3001.17,1099.17
3002.62,1104.62
3004.07,1093.61
3005.53,1064.14
3006.98,1111.51
3008.43,1091.62
3009.88,1097.58
3011.33,1098.11
3012.78,1072.83
3014.24,1065.91
3015.69,1081.54
3017.14,1093.94
3018.59,1095.33
3020.04,1073.08
3021.5,1081.14
3022.95,1100.69
3024.4,1066.31
3025.85,1070.15
3027.3,1085.53
3028.75,1059.45
3030.21,1067.43
3031.66,1079.82
3033.11,1048.45
3034.56,1069.15
3036.01,1075.18
3037.46,1062.47
3038.92,1047.6
3040.37,1049.4
3041.82,1084.54
3043.27,1080.15
3044.72,1063.08
3046.18,1051.2
3047.63,1035.3
3049.08,1061.03
3050.53,1052.12
3051.98,1062.4
3053.43,1063.66
3054.89,1066.7
3056.34,1063.57
3057.79,1073.92
3059.24,1066.1
3060.69,1060.51
3062.15,1061.5
3063.6,1099.06
3065.05,1065.61
3066.5,1083.76
3067.95,1082.41
3069.4,1096.83
3070.86,1090.59
3072.31,1113.76
3073.76,1117.78
3075.21,1095.07
3076.66,1092.18
3078.11,1106.72
3079.57,1134.35
3081.02,1120.66
3082.47,1134.9
3083.92,1159.52
3085.37,1147.57
3086.83,1157.33
3088.28,1149.64
3089.73,1170.39
3091.18,1182.52
3092.63,1192.63
3094.08,1212.49
3095.54,1233.81
3096.99,1227.66
3098.44,1259.86
3099.89,1282.19
3101.34,1304.85
3102.8,1294.73
3104.25,1314.34
3105.7,1333.49
3107.15,1353.23
3108.6,1328.34
3110.05,1414.32
3111.51,1406.8
3112.96,1422.6
3114.41,1439.55
3115.86,1471.88
3117.31,1485.45
3118.76,1497.81
3120.22,1504.28
3121.67,1516.15
3123.12,1536.14
3124.57,1579.9
3126.02,1617.8
3127.48,1648.23
3128.93,1619.82
3130.38,1608.2
3131.83,1694.4
3133.28,1699.25
3134.73,1707.18
3136.19,1742.67
3137.64,1746.75
3139.09,1762.75
3140.54,1744.24
3141.99,1765.66
3143.45,1757.01
3144.9,1803.7
3146.35,1807.01
3147.8,1823.5
3149.25,1805.12
3150.7,1835.33
3152.16,1802.19
3153.61,1784.99
3155.06,1793.3
3156.51,1813.98
3157.96,1787.15
3159.42,1804.86
3160.87,1805.84
3162.32,1817.2
3163.77,1845.73
3165.22,1854.07
3166.67,1856.61
3168.13,1846.88
3169.58,1862.26
3171.03,1907.69
3172.48,1933.56
3173.93,1891.96
3175.38,1892.74
3176.84,1908.38
3178.29,1908.63
3179.74,1905.53
3181.19,1933.65
3182.64,1916.47
3184.1,1978.31
3185.55,1994.86
3187,1986.05
3188.45,2024.02
3189.9,2058.82
3191.35,2057.85
3192.81,2105.75
3194.26,2108.77
3195.71,2108.47
3197.16,2089.09
3198.61,2076.63
3200.06,2104.03
3201.52,2089.75
3202.97,2128.45
3204.42,2132.65
3205.87,2153.2
3207.32,2104.35
3208.78,2064.22
3210.23,2064.13
3211.68,2077.7
3213.13,2015.46
3214.58,1993.28
3216.03,1957.07
3217.49,1904.81
3218.94,1855.56
3220.39,1834.12
3221.84,1819.95
3223.29,1760.05
3224.75,1715.03
3226.2,1655.76
3227.65,1602.83
3229.1,1582.66
3230.55,1542.22
3232,1499.08
3233.46,1465.89
3234.91,1441.03
3236.36,1405.14
3237.81,1331.9
3239.26,1340.8
3240.72,1261.02
3242.17,1238.96
3243.62,1220.84
3245.07,1204.62
3246.52,1178.38
3247.97,1145.66
3249.43,1149.62
3250.88,1107.32
3252.33,1098.35
3253.78,1096.77
3255.23,1066.37
3256.68,1051.76
3258.14,1049.08
3259.59,1001.01
3261.04,1013.91
3262.49,996.063
3263.94,981.383
3265.4,979.05
3266.85,979.723
3268.3,963.68
3269.75,974.646
3271.2,968.625
3272.65,944.594
3274.11,933.521
3275.56,941.195
3277.01,914.297
3278.46,956.485
3279.91,921.671
3281.37,933.378
3282.82,912.546
3284.27,899.763
3285.72,898.979
3287.17,927.363
3288.62,905.524
3290.08,915.191
3291.53,906.85
3292.98,895.661
3294.43,868.444
3295.88,896.593
3297.33,896.102
3298.79,864.808
3300.24,876.537
3301.69,888.726
3303.14,868.846
3304.59,885.316
3306.05,881.532
3307.5,894.816
3308.95,861.765
3310.4,865.456
3311.85,868.373
3313.3,888.826
3314.76,861.665
3316.21,895.785
3317.66,866.038
3319.11,859.301
3320.56,866.117
3322.02,874.61
3323.47,871.782
3324.92,879.127
3326.37,859.69
3327.82,870.295
3329.27,844.426
3330.73,861.66
3332.18,862.83
3333.63,881.864
3335.08,871.475
3336.53,843.5
3337.98,848.335
3339.44,846.404
3340.89,828.635
3342.34,852.932
3343.79,846.654
3345.24,853.299
3346.7,867.79
3348.15,848.281
3349.6,835.749
3351.05,844.003
3352.5,858.979
3353.95,874.437
3355.41,852.335
3356.86,854.401
3358.31,859.428
3359.76,887.83
3361.21,859.457
3362.67,838.904
3364.12,861.089
3365.57,830.786
3367.02,837.445
3368.47,830.221
3369.92,850.334
3371.38,849.298
3372.83,864.303
3374.28,849.096
3375.73,848.588
3377.18,833.444
3378.63,817.906
3380.09,846.93
3381.54,824.71
3382.99,841.625
3384.44,850.861
3385.89,823.537
3387.35,841.42
3388.8,823.787
3390.25,824.97
3391.7,821.948
3393.15,839.322
3394.6,830.235
3396.06,832.362
3397.51,809.464
3398.96,837.669
3400.41,844.16
3401.86,841.394
3403.32,838.1
3404.77,846.754
3406.22,843.168
3407.67,836.134
3409.12,841.567
3410.57,830.281
3412.03,831.362
3413.48,828.832
3414.93,829.379
3416.38,829.796
3417.83,812.79
3419.28,830.072
3420.74,830.715
3422.19,820.266
3423.64,814.898
3425.09,813.192
3426.54,805.999
3428,831.961
3429.45,823.052
3430.9,859.635
3432.35,840.577
3433.8,841.718
3435.25,807.75
3436.71,853.129
3438.16,829.255
3439.61,830.139
3441.06,835.062
3442.51,810.275
3443.97,794.441
3445.42,810.645
3446.87,813.654
3448.32,818.855
3449.77,824.904
3451.22,831.823
3452.68,831.571
3454.13,809.825
3455.58,822.557
3457.03,829.583
3458.48,824.467
3459.94,806.16
3461.39,791.752
3462.84,809.528
3464.29,801.621
3465.74,789.222
3467.19,825.255
3468.65,821.828
3470.1,811.095
3471.55,816.62
3473,818.269
3474.45,809.567
3475.9,828.332
3477.36,810.115
3478.81,809.14
3480.26,820.082
3481.71,811.686
3483.16,826.353
3484.62,819.964
3486.07,821.237
3487.52,798.25
3488.97,798.4
3490.42,812.599
3491.87,835.223
3493.33,833.815
3494.78,816.155
3496.23,814.203
3497.68,804.727
3499.13,831.317
3500.58,825.127
3502.04,832.304
3503.49,837.232
3504.94,804.017
3506.39,805.262
3507.84,828.378
3509.3,812.519
3510.75,823.129
3512.2,834.558
3513.65,822.922
3515.1,839.697
3516.55,832.64
3518.01,823.376
3519.46,815.943
3520.91,832.795
3522.36,841.518
3523.81,839.47
3525.27,829.535
3526.72,817.412
3528.17,797.328
3529.62,816.914
3531.07,810.133
3532.52,801.577
3533.98,825.03
3535.43,804.801
3536.88,812.636
3538.33,836.489
3539.78,834.739
3541.24,808.145
3542.69,819.088
3544.14,800.463
3545.59,812.706
3547.04,814.051
3548.49,801.202
3549.95,809.337
3551.4,797.642
3552.85,822.761
3554.3,839.176
3555.75,823.731
3557.2,798.779
3558.66,798.243
3560.11,792.94
3561.56,821.489
3563.01,828.411
3564.46,825.092
3565.92,815.828
3567.37,815.203
3568.82,778.206
3570.27,814.306
3571.72,816.549
3573.17,787.491
3574.63,806.738
3576.08,807.706
3577.53,808.227
3578.98,820.607
3580.43,807.771
3581.89,813.498
3583.34,810.546
3584.79,825.198
3586.24,804.943
3587.69,792.068
3589.14,808.819
3590.6,819.393
3592.05,815.126
3593.5,818.708
3594.95,823.105
3596.4,809.796
3597.85,818.571
3599.31,802.844
3600.76,808.729
3602.21,798.782
3603.66,796.482
3605.11,785.135
3606.57,795.861
3608.02,802.971
3609.47,805.364
3610.92,823.935
3612.37,794.525
3613.82,799.567
3615.28,817.301
3616.73,811.773
3618.18,801.605
3619.63,807.426
3621.08,811.702
3622.54,808.511
3623.99,798.573
3625.44,813.081
3626.89,819.581
3628.34,807.47
3629.79,804.108
3631.25,814.33
3632.7,805.03
3634.15,804.238
3635.6,815.554
3637.05,825.186
3638.5,810.988
3639.96,816.18
3641.41,817.363
3642.86,817.388
3644.31,803.001
3645.76,798.557
3647.22,818.812
3648.67,827.454
3650.12,832.6
3651.57,826.126
3653.02,806.839
3654.47,812.025
3655.93,792.591
3657.38,832.349
3658.83,838.167
3660.28,816.964
3661.73,814.601
3663.19,807.662
3664.64,813.499
3666.09,823.246
3667.54,817.981
3668.99,806.613
3670.44,823.322
3671.9,817.151
3673.35,817.316
3674.8,826.376
3676.25,825.095
3677.7,843.394
3679.16,803.993
3680.61,813.872
3682.06,808.445
3683.51,808.67
3684.96,827.32
3686.41,824.422
3687.87,818.74
3689.32,816.636
3690.77,833.208
3692.22,841.09
3693.67,803.974
3695.12,809.504
3696.58,809.213
3698.03,851.099
3699.48,838.775
3700.93,833.411
3702.38,854.118
3703.84,821.075
3705.29,802.017
3706.74,793.524
3708.19,806.189
3709.64,843.157
3711.09,839.248
3712.55,833.472
3714,832.875
3715.45,833.268
3716.9,826.24
3718.35,818.141
3719.8,801.238
3721.26,835.349
3722.71,779.172
3724.16,846.818
3725.61,838.941
3727.06,816.349
3728.52,819.056
3729.97,829.606
3731.42,813.557
3732.87,822.88
3734.32,842.08
3735.77,797.058
3737.23,843.009
3738.68,847.698
3740.13,839.288
3741.58,855.59
3743.03,818.38
3744.49,836.324
3745.94,836.35
3747.39,836.228
3748.84,842.238
3750.29,857.169
3751.74,847.978
3753.2,838.673
3754.65,839.631
3756.1,830.973
3757.55,849.42
3759,862.164
3760.46,833.357
3761.91,840.697
3763.36,838.669
3764.81,833.646
3766.26,851.904
3767.71,839.321
3769.17,864.555
3770.62,860.503
3772.07,863.408
3773.52,848.441
3774.97,841.399
3776.42,849.198
3777.88,832.904
3779.33,829.015
3780.78,844.678
3782.23,846.358
3783.68,840.49
3785.14,872.582
3786.59,842.808
3788.04,841.035
3789.49,824.003
3790.94,836.436
3792.39,828.964
3793.85,856.376
3795.3,833.53
3796.75,867.64
3798.2,863.261
3799.65,874.233
3801.1,873.292
3802.56,850.656
3804.01,860.082
3805.46,857.822
3806.91,871.556
3808.36,846.753
3809.82,847.613
3811.27,848.966
3812.72,870.869
3814.17,884.707
3815.62,864.982
3817.07,865.743
3818.53,871.283
3819.98,869.244
3821.43,866.997
3822.88,853.863
3824.33,861.496
3825.79,863.902
3827.24,874.17
3828.69,876.87
3830.14,869.96
3831.59,857.226
3833.04,874.686
3834.5,867.167
3835.95,862.691
3837.4,858.91
3838.85,855.714
3840.3,866.485
3841.76,868.49
3843.21,856.383
3844.66,858.762
3846.11,862.416
3847.56,877.132
3849.01,874.233
3850.47,867.092
3851.92,862.685
3853.37,887.977
3854.82,867.667
3856.27,876.645
3857.72,892.464
3859.18,906.462
3860.63,877.897
3862.08,877.323
3863.53,896.243
3864.98,896.735
3866.44,899.79
3867.89,885.897
3869.34,896.574
3870.79,875.734
3872.24,888.616
3873.69,887.606
3875.15,875.094
3876.6,908.88
3878.05,895.063
3879.5,890.06
3880.95,889.297
3882.41,888.974
3883.86,907.447
3885.31,891.737
3886.76,908.202
3888.21,930.614
3889.66,880.435
3891.12,900.788
3892.57,927.523
3894.02,897.253
3895.47,915.071
3896.92,922.903
3898.37,930.463
3899.83,895.852
3901.28,924.792
3902.73,931.799
3904.18,934.508
3905.63,941.348
3907.09,917.499
3908.54,922.045
3909.99,922.547
3911.44,940.121
3912.89,946.058
3914.34,917.341
3915.8,958.572
3917.25,954.468
3918.7,930.504
3920.15,947.708
3921.6,942.643
3923.06,959.9
3924.51,954.535
3925.96,942.232
3927.41,952.074
3928.86,965.088
3930.31,961.146
3931.77,981.009
3933.22,959.854
3934.67,954.992
3936.12,958.842
3937.57,936.349
3939.02,982.767
3940.48,981.06
3941.93,977.247
3943.38,971.674
3944.83,987.64
3946.28,992.539
3947.74,965.423
3949.19,997.442
3950.64,1000.84
3952.09,1008.53
3953.54,998.275
3954.99,1016.19
3956.45,984.336
3957.9,1016.86
3959.35,994.689
3960.8,994.833
3962.25,997.613
3963.71,978.736
3965.16,1028.8
3966.61,1029.1
3968.06,992.279
3969.51,1042.37
3970.96,1011.1
3972.42,1023.14
3973.87,1037.39
3975.32,1049.99
3976.77,1027.35
3978.22,1042.68
3979.68,1035.43
3981.13,1057.89
3982.58,1045.46
3984.03,1046.17
3985.48,1069.96
3986.93,1065.75
3988.39,1069.34
3989.84,1063.92
3991.29,1048.96
3992.74,1055.67
3994.19,1053.77
3995.64,1043.55
3997.1,1078.08
3998.55,1080.5
4000,1063.45
