-20,59.3993
-18.5482,57.5451
-17.0964,59.1536
-15.6446,63.9552
-14.1928,63.8602
-12.7411,63.3338
-11.2893,66.6155
-9.83749,73.9726
-8.3857,72.9949
-6.93391,88.8884
-5.48212,266.418
-4.03034,2672.15
-2.57855,10166
-1.12676,27235.5
0.325027,31069.1
1.77681,28072.9
3.2286,11608.7
4.68039,3473.57
6.13218,715.051
7.58397,128.287
9.03575,89.0838
10.4875,85.4812
11.9393,80.4549
13.3911,80.1163
14.8429,79.2819
16.2947,76.5734
17.7465,73.0046
19.1983,69.4633
20.6501,69.9682
22.1018,69.6922
23.5536,64.5637
25.0054,66.8406
26.4572,63.9587
27.909,59.9164
29.3608,59.4926
30.8126,58.5886
32.2644,61.1681
33.7161,60.2762
35.1679,59.7638
36.6197,61.6076
38.0715,58.0575
39.5233,59.4927
40.9751,61.1622
42.4269,61.1827
43.8787,63.2656
45.3304,68.1896
46.7822,78.0888
48.234,96.6891
49.6858,132.562
51.1376,197.733
52.5894,326.885
54.0412,537.693
55.493,821.068
56.9447,1155.7
58.3965,1515.53
59.8483,1848.57
61.3001,2151.49
62.7519,2418.03
64.2037,2624.27
65.6555,2741.9
67.1073,2859.24
68.559,2962.62
70.0108,3037.91
71.4626,3082.57
72.9144,3112.34
74.3662,3113.21
75.818,3091.92
77.2698,3098.27
78.7216,3122.71
80.1733,3156.48
81.6251,3212.68
83.0769,3274.49
84.5287,3359.42
85.9805,3399.33
87.4323,3405.36
88.8841,3407.79
90.3359,3373.58
91.7877,3287.11
93.2394,3239.88
94.6912,3074.64
96.143,2956.1
97.5948,2845.04
99.0466,2684.98
100.498,2577.46
101.95,2478.27
103.402,2396.85
104.854,2331.59
106.306,2262.16
107.757,2261.54
109.209,2231.95
110.661,2182.64
112.113,2116.96
113.564,2054.05
115.016,2030.13
116.468,1981.17
117.92,1935.78
119.372,1876.66
120.823,1805.67
122.275,1798.63
123.727,1780.98
125.179,1750.42
126.631,1703.12
128.082,1663.08
129.534,1645.78
130.986,1657.9
132.438,1674.24
133.889,1659.23
135.341,1605.78
136.793,1603.01
138.245,1555.47
139.697,1496.48
141.148,1485.05
142.6,1435.72
144.052,1401
145.504,1377.17
146.956,1347.4
148.407,1302.78
149.859,1313.36
151.311,1286.12
152.763,1270.3
154.215,1263.83
155.666,1240.88
157.118,1245.4
158.57,1241.16
160.022,1229.87
161.473,1227.74
162.925,1225.37
164.377,1213.78
165.829,1221.97
167.281,1239.7
168.732,1249.07
170.184,1205.9
171.636,1196.27
173.088,1179.52
174.54,1158.33
175.991,1139.45
177.443,1103.77
178.895,1098.8
180.347,1082.93
181.798,1077.45
183.25,1076.49
184.702,1050.21
186.154,1046.94
187.606,1037.33
189.057,1026.33
190.509,1010.81
191.961,994.939
193.413,980.136
194.865,986.038
196.316,983.649
197.768,968.151
199.22,953.069
200.672,960.184
202.124,947.287
203.575,947.492
205.027,958.371
206.479,919.526
207.931,925.494
209.382,919.778
210.834,920.562
212.286,933.665
213.738,928.537
215.19,906.979
216.641,910.561
218.093,916.489
219.545,920.945
220.997,930.94
222.449,917.51
223.9,919.237
225.352,910.32
226.804,897.694
228.256,911.121
229.707,902.534
231.159,886.714
232.611,878.951
234.063,884.727
235.515,886.794
236.966,880.199
238.418,886.858
239.87,885.48
241.322,889.159
242.774,900.079
244.225,880.465
245.677,883.992
247.129,882.693
248.581,874.381
250.033,858.184
251.484,842.99
252.936,852.631
254.388,865.614
255.84,862.792
257.291,854.464
258.743,863.458
260.195,857.21
261.647,852.887
263.099,853.823
264.55,862.485
266.002,852.198
267.454,849.703
268.906,829.051
270.358,813.273
271.809,821.384
273.261,813.59
274.713,821.865
276.165,817.687
277.616,811.848
279.068,808.499
280.52,797.255
281.972,783.37
283.424,786.067
284.875,779.394
286.327,763.512
287.779,756.036
289.231,756.796
290.683,761.626
292.134,755.411
293.586,747.31
295.038,750.99
296.49,735.784
297.941,728.222
299.393,736.55
300.845,739.574
302.297,719.666
303.749,714.225
305.2,725.031
306.652,717.528
308.104,708.755
309.556,706.747
311.008,695.395
312.459,701.799
313.911,699.272
315.363,695.664
316.815,693.492
318.267,692.999
319.718,667.326
321.17,679.42
322.622,676.675
324.074,667.586
325.525,678.669
326.977,669.312
328.429,683.427
329.881,677.629
331.333,668.603
332.784,674.846
334.236,669.973
335.688,662.541
337.14,658.105
338.592,653.74
340.043,654.134
341.495,677.925
342.947,660.274
344.399,657.932
345.85,658.573
347.302,659.685
348.754,651.084
350.206,663.856
351.658,650.85
353.109,645.566
354.561,645.348
356.013,647.346
357.465,644.153
358.917,641.689
360.368,644.688
361.82,647.777
363.272,642.538
364.724,641.512
366.176,646.163
367.627,635.847
369.079,626.047
370.531,623.554
371.983,626.32
373.434,629.567
374.886,631.066
376.338,630.837
377.79,631.434
379.242,631.385
380.693,626.55
382.145,634.4
383.597,634.253
385.049,628.428
386.501,629.989
387.952,636.259
389.404,642.241
390.856,627.546
392.308,617.055
393.759,615.436
395.211,621.277
396.663,631.697
398.115,622.309
399.567,615.569
401.018,615.958
402.47,621.337
403.922,624.077
405.374,638.384
406.826,628.521
408.277,633.076
409.729,631.705
411.181,620.156
412.633,635.844
414.085,618.732
415.536,610.749
416.988,615.893
418.44,625.857
419.892,641.006
421.343,633.998
422.795,629.623
424.247,615.421
425.699,610.2
427.151,620.382
428.602,624.916
430.054,597.321
431.506,625.297
432.958,637.277
434.41,620.692
435.861,603.974
437.313,619.05
438.765,606.267
440.217,611.663
441.668,609.346
443.12,597.466
444.572,599.658
446.024,605.18
447.476,596.281
448.927,592.855
450.379,597.825
451.831,618.817
453.283,634.589
454.735,611.881
456.186,614.096
457.638,613.037
459.09,606.046
460.542,612.87
461.993,605.982
463.445,603.853
464.897,602.731
466.349,613.874
467.801,626.735
469.252,610.958
470.704,611.289
472.156,621.259
473.608,615.774
475.06,621.261
476.511,637.014
477.963,606.942
479.415,608.228
480.867,603.654
482.319,616.182
483.77,625.048
485.222,613.164
486.674,593.38
488.126,595.419
489.577,600.378
491.029,614.638
492.481,618.237
493.933,595.409
495.385,601.357
496.836,590.076
498.288,582.754
499.74,592.993
501.192,605.411
502.644,586.315
504.095,581.185
505.547,594.63
506.999,599.085
508.451,590.629
509.902,577.34
511.354,581.979
512.806,579.452
514.258,578.17
515.71,593.534
517.161,599.415
518.613,583.311
520.065,571.18
521.517,572.201
522.969,587.074
524.42,590.33
525.872,584.586
527.324,566.37
528.776,562.479
530.228,577.591
531.679,577.146
533.131,582.999
534.583,587.578
536.035,577.066
537.486,578.875
538.938,581.725
540.39,577.323
541.842,578.527
543.294,577.428
544.745,580.673
546.197,570.046
547.649,576.647
549.101,579.095
550.553,577.174
552.004,576.91
553.456,584.37
554.908,582.768
556.36,599.162
557.811,583.169
559.263,578.718
560.715,581.885
562.167,568.74
563.619,577.068
565.07,574.699
566.522,570.37
567.974,574.333
569.426,586.27
570.878,586.332
572.329,589.647
573.781,572.342
575.233,578.05
576.685,582.837
578.137,579.468
579.588,568.715
581.04,590.635
582.492,572.968
583.944,567.342
585.395,576.533
586.847,588.371
588.299,587.802
589.751,559.657
591.203,569.852
592.654,571.797
594.106,575.505
595.558,578.172
597.01,579.984
598.462,589.198
599.913,583.93
601.365,568.881
602.817,561.682
604.269,561.258
605.72,565.432
607.172,578.443
608.624,571.244
610.076,579.201
611.528,588.493
612.979,587.978
614.431,579.202
615.883,567.811
617.335,568.964
618.787,584.295
620.238,577.206
621.69,582.306
623.142,592.413
624.594,583.856
626.046,573.92
627.497,577.308
628.949,582.589
630.401,583.78
631.853,588.448
633.304,595.687
634.756,590.372
636.208,588.048
637.66,582.271
639.112,577.864
640.563,582.051
642.015,602.609
643.467,590.792
644.919,596.26
646.371,584.85
647.822,590.953
649.274,599.543
650.726,603.339
652.178,602.221
653.629,599.261
655.081,619.229
656.533,610.504
657.985,601.709
659.437,600.934
660.888,599.693
662.34,599.691
663.792,612.658
665.244,619.195
666.696,623.619
668.147,625.854
669.599,623.605
671.051,616.856
672.503,615.488
673.954,622.746
675.406,620.068
676.858,607.159
678.31,602.696
679.762,603.896
681.213,617.886
682.665,605.308
684.117,620.417
685.569,624.386
687.021,617.003
688.472,625.108
689.924,592.001
691.376,615.483
692.828,623.455
694.28,622.674
695.731,627.162
697.183,621.153
698.635,615.413
700.087,607.045
701.538,602.928
702.99,610.04
704.442,620.972
705.894,632.032
707.346,618.315
708.797,605.839
710.249,602.328
711.701,614.333
713.153,626.648
714.605,623.948
716.056,619.277
717.508,637.186
718.96,624.665
720.412,609.968
721.863,613.353
723.315,615.41
724.767,614.109
726.219,630.364
727.671,612.706
729.122,614.877
730.574,613.376
732.026,621.293
733.478,616.81
734.93,622.317
736.381,625.877
737.833,615.514
739.285,613.568
740.737,610.883
742.189,615.562
743.64,620.136
745.092,625.529
746.544,605.59
747.996,624.464
749.447,628.26
750.899,609.836
752.351,601.672
753.803,622.962
755.255,621.825
756.706,625.649
758.158,618.244
759.61,616.17
761.062,609.848
762.514,605.717
763.965,601.205
765.417,607.459
766.869,621.329
768.321,635.007
769.772,628.847
771.224,623.074
772.676,618.064
774.128,614.669
775.58,626.807
777.031,615.616
778.483,617.822
779.935,618.202
781.387,616.678
782.839,624.524
784.29,631.376
785.742,624.128
787.194,623.722
788.646,625.81
790.098,636.766
791.549,633.807
793.001,623.228
794.453,617.499
795.905,645.107
797.356,634.465
798.808,633.855
800.26,632.896
801.712,629.06
803.164,630.037
804.615,631.498
806.067,631.84
807.519,629.483
808.971,640.786
810.423,641.82
811.874,635.813
813.326,642.415
814.778,648.137
816.23,636.647
817.681,643.045
819.133,634.572
820.585,654.485
822.037,662.279
823.489,652.936
824.94,649.049
826.392,675.843
827.844,651.547
829.296,655.525
830.748,671.22
832.199,671.43
833.651,656.071
835.103,661.682
836.555,648.162
838.007,674.723
839.458,666.906
840.91,666.602
842.362,660
843.814,661.055
845.265,665.4
846.717,664.384
848.169,676.53
849.621,676.3
851.073,680.554
852.524,682.078
853.976,670.853
855.428,678.975
856.88,686.647
858.332,689.728
859.783,678.278
861.235,670.402
862.687,667.686
864.139,672.736
865.59,693.98
867.042,683.512
868.494,682.651
869.946,665.231
871.398,671.781
872.849,685.521
874.301,682.276
875.753,689.156
877.205,695.522
878.657,680.641
880.108,671.76
881.56,675.971
883.012,684.174
884.464,690.201
885.915,684.652
887.367,665.779
888.819,699.346
890.271,685.119
891.723,691.655
893.174,692.638
894.626,687.99
896.078,683.776
897.53,700.333
898.982,698.155
900.433,709.484
901.885,706.396
903.337,706.03
904.789,716.676
906.241,725.912
907.692,717.308
909.144,707.318
910.596,710.775
912.048,704.712
913.499,739.049
914.951,717.977
916.403,712.796
917.855,725.343
919.307,745.431
920.758,739.237
922.21,729.692
923.662,733.11
925.114,739.036
926.566,732.344
928.017,724.888
929.469,728.17
930.921,732.233
932.373,722.821
933.824,736.5
935.276,717.617
936.728,731.074
938.18,744.726
939.632,744.117
941.083,739.385
942.535,736.189
943.987,718.614
945.439,719.752
946.891,713.46
948.342,737.252
949.794,744.341
951.246,731.484
952.698,747.213
954.15,726.433
955.601,718.577
957.053,724.524
958.505,746.305
959.957,747.527
961.408,734.893
962.86,729.575
964.312,726.171
965.764,733.095
967.216,740.313
968.667,732.259
970.119,721.776
971.571,719.342
973.023,717.905
974.475,720.964
975.926,721.953
977.378,723.161
978.83,733.665
980.282,732.399
981.733,737.178
983.185,736.416
984.637,743.511
986.089,735.276
987.541,730.649
988.992,737.027
990.444,750.039
991.896,746.389
993.348,760.879
994.8,757.389
996.251,740.438
997.703,746.978
999.155,758.601
1000.61,751.507
1002.06,751.826
1003.51,759.16
1004.96,764.398
1006.41,764.877
1007.87,747.62
1009.32,743.622
1010.77,759.048
1012.22,780.693
1013.67,796.121
1015.12,783.134
1016.58,793.677
1018.03,810.278
1019.48,809.782
1020.93,803.253
1022.38,787.638
1023.84,804.389
1025.29,801.815
1026.74,805.872
1028.19,816.218
1029.64,824.366
1031.09,824.824
1032.55,824.621
1034,832.084
1035.45,835.628
1036.9,830.786
1038.35,834.141
1039.8,851.84
1041.26,887.018
1042.71,885.581
1044.16,877.628
1045.61,873.128
1047.06,875.68
1048.52,907.684
1049.97,906.14
1051.42,901.901
1052.87,902.434
1054.32,891.147
1055.77,901.717
1057.23,912.661
1058.68,924.436
1060.13,918.332
1061.58,972.476
1063.03,960.999
1064.49,962.453
1065.94,964.713
1067.39,976.651
1068.84,989.271
1070.29,1002.16
1071.74,997.54
1073.2,986.943
1074.65,1010.19
1076.1,1028.32
1077.55,1037.55
1079,1037.99
1080.46,1030.73
1081.91,1033.42
1083.36,1060.25
1084.81,1035.91
1086.26,1035.92
1087.71,1063.52
1089.17,1060.44
1090.62,1051.09
1092.07,1037.34
1093.52,1038.06
1094.97,1046.13
1096.42,1021.51
1097.88,1033.28
1099.33,1027.52
1100.78,1004.99
1102.23,1014.47
1103.68,1013.41
1105.14,1003.84
1106.59,1005.02
1108.04,1016.34
1109.49,1014.2
1110.94,980.632
1112.39,977.82
1113.85,972.728
1115.3,965.766
1116.75,976.144
1118.2,979.789
1119.65,968.193
1121.11,978.892
1122.56,958.639
1124.01,958.552
1125.46,962.152
1126.91,940.141
1128.36,940.532
1129.82,945.55
1131.27,938.653
1132.72,936.485
1134.17,924.562
1135.62,936.951
1137.07,925.411
1138.53,919.197
1139.98,930.046
1141.43,930.393
1142.88,926.1
1144.33,914.321
1145.79,906.693
1147.24,911.416
1148.69,898.69
1150.14,901.774
1151.59,927.239
1153.04,941.377
1154.5,937.352
1155.95,924.681
1157.4,916.001
1158.85,913.156
1160.3,905.847
1161.76,920.515
1163.21,925.604
1164.66,922.457
1166.11,923.492
1167.56,916.349
1169.01,927.034
1170.47,943.875
1171.92,945.283
1173.37,933.5
1174.82,935.812
1176.27,913.56
1177.72,961.921
1179.18,928.052
1180.63,933.11
1182.08,949.995
1183.53,956.174
1184.98,949.308
1186.44,946.924
1187.89,943.943
1189.34,964.17
1190.79,935.461
1192.24,963.414
1193.69,962.117
1195.15,937.581
1196.6,952.405
1198.05,976.728
1199.5,971.952
1200.95,967.669
1202.41,965.808
1203.86,978.752
1205.31,978.511
1206.76,983.41
1208.21,1002.32
1209.66,993.551
1211.12,988.267
1212.57,999.937
1214.02,998.63
1215.47,985.828
1216.92,987.071
1218.37,994.905
1219.83,999.77
1221.28,1008.52
1222.73,990.756
1224.18,999.984
1225.63,1019.1
1227.09,1022.48
1228.54,1013.42
1229.99,1015.21
1231.44,1003.91
1232.89,1003.08
1234.34,1008.38
1235.8,1036.65
1237.25,1034.1
1238.7,1044.06
1240.15,1043.53
1241.6,1049.63
1243.06,1062.1
1244.51,1049.43
1245.96,1081.71
1247.41,1091.25
1248.86,1067.69
1250.31,1085.41
1251.77,1091.68
1253.22,1100.45
1254.67,1113.54
1256.12,1126.41
1257.57,1136.22
1259.02,1158.26
1260.48,1151.29
1261.93,1149.41
1263.38,1169.46
1264.83,1163.96
1266.28,1169.3
1267.74,1195.28
1269.19,1216.52
1270.64,1234.22
1272.09,1247.57
1273.54,1246.44
1274.99,1257.77
1276.45,1286.46
1277.9,1314.99
1279.35,1307.71
1280.8,1374.78
1282.25,1360.7
1283.71,1357.89
1285.16,1407.34
1286.61,1452.21
1288.06,1463.33
1289.51,1474.12
1290.96,1500.02
1292.42,1574.25
1293.87,1573.02
1295.32,1682.19
1296.77,1718.61
1298.22,1731.39
1299.67,1785.98
1301.13,1855.98
1302.58,1915.94
1304.03,1969.56
1305.48,2037
1306.93,2141.46
1308.39,2197.31
1309.84,2258.82
1311.29,2391.55
1312.74,2513.06
1314.19,2620.88
1315.64,2708.31
1317.1,2821.07
1318.55,2961.31
1320,3088.45
1321.45,3230.46
1322.9,3335.72
1324.36,3462.57
1325.81,3558.23
1327.26,3702.41
1328.71,3755.65
1330.16,3848.58
1331.61,3900.26
1333.07,3944.16
1334.52,3982.79
1335.97,3972.61
1337.42,3899.25
1338.87,3899.99
1340.33,3829.52
1341.78,3703.24
1343.23,3610.63
1344.68,3497.75
1346.13,3377.07
1347.58,3276.7
1349.04,3169.38
1350.49,3031.25
1351.94,2870.83
1353.39,2740.2
1354.84,2666.49
1356.29,2580.58
1357.75,2468.02
1359.2,2335.91
1360.65,2295.4
1362.1,2193.58
1363.55,2109.36
1365.01,2049.77
1366.46,1976.6
1367.91,1902.02
1369.36,1843.93
1370.81,1830.28
1372.26,1791.12
1373.72,1712.91
1375.17,1659.73
1376.62,1631.78
1378.07,1591.32
1379.52,1594.04
1380.98,1579.57
1382.43,1551.56
1383.88,1545.13
1385.33,1530.19
1386.78,1502.52
1388.23,1498.29
1389.69,1449.53
1391.14,1457.51
1392.59,1454.78
1394.04,1435.62
1395.49,1427.18
1396.94,1404.8
1398.4,1424.64
1399.85,1438.1
1401.3,1407.76
1402.75,1396.64
1404.2,1407.73
1405.66,1418.3
1407.11,1397.93
1408.56,1402.19
1410.01,1408.47
1411.46,1406.32
1412.91,1401.38
1414.37,1420.58
1415.82,1414.76
1417.27,1414.62
1418.72,1402.38
1420.17,1388.94
1421.63,1419.22
1423.08,1427.79
1424.53,1431.11
1425.98,1421.26
1427.43,1440.12
1428.88,1432.97
1430.34,1440.65
1431.79,1451.7
1433.24,1438.2
1434.69,1451.15
1436.14,1463.71
1437.59,1464.42
1439.05,1482.08
1440.5,1486.25
1441.95,1505.69
1443.4,1525.85
1444.85,1514.22
1446.31,1552.31
1447.76,1573.57
1449.21,1535.77
1450.66,1553.8
1452.11,1578.78
1453.56,1582.81
1455.02,1584.8
1456.47,1615.12
1457.92,1648.96
1459.37,1669.57
1460.82,1679.6
1462.28,1687.15
1463.73,1704.3
1465.18,1742.98
1466.63,1775.28
1468.08,1772.26
1469.53,1790.63
1470.99,1809.69
1472.44,1817.26
1473.89,1868.6
1475.34,1906.91
1476.79,1934.85
1478.24,1954.92
1479.7,1999.41
1481.15,2012.62
1482.6,2034.34
1484.05,2065.32
1485.5,2121.42
1486.96,2167.51
1488.41,2212.27
1489.86,2228.46
1491.31,2281.37
1492.76,2348.17
1494.21,2387.7
1495.67,2435.91
1497.12,2522.21
1498.57,2575.9
1500.02,2614.61
1501.47,2657.83
1502.93,2750.65
1504.38,2810.02
1505.83,2866.87
1507.28,2997.44
1508.73,3096.81
1510.18,3163.8
1511.64,3273.62
1513.09,3401.01
1514.54,3515.9
1515.99,3660.07
1517.44,3841
1518.89,3989.63
1520.35,4184.45
1521.8,4360.14
1523.25,4585.5
1524.7,4865.42
1526.15,5142.86
1527.61,5472.3
1529.06,5795.32
1530.51,6245.39
1531.96,6717.04
1533.41,7201.97
1534.86,7743.03
1536.32,8410.58
1537.77,9117.35
1539.22,9886.14
1540.67,10853.5
1542.12,11748.7
1543.58,12933.6
1545.03,14104.3
1546.48,15318.3
1547.93,16675.9
1549.38,18096.3
1550.83,19548.7
1552.29,21058.3
1553.74,22619.6
1555.19,24198.3
1556.64,25768.8
1558.09,27252.5
1559.54,28718.4
1561,30185.4
1562.45,31542.5
1563.9,32670.8
1565.35,33499.4
1566.8,34165.3
1568.26,34469.1
1569.71,34311.3
1571.16,33856.9
1572.61,32938
1574.06,31771.4
1575.51,30306.5
1576.97,28584.1
1578.42,26729.2
1579.87,24787.5
1581.32,22839.5
1582.77,20983.1
1584.23,19116.1
1585.68,17264.1
1587.13,15764.9
1588.58,14312.7
1590.03,13029
1591.48,11810.6
1592.94,10836.9
1594.39,9990.37
1595.84,9223.69
1597.29,8583.4
1598.74,7986.96
1600.2,7504.18
1601.65,7036.76
1603.1,6544.94
1604.55,6149.13
1606,5840.51
1607.45,5569.82
1608.91,5293.09
1610.36,4975.02
1611.81,4742.74
1613.26,4496.73
1614.71,4196.42
1616.16,4043.45
1617.62,3819.63
1619.07,3612.7
1620.52,3463.82
1621.97,3325.26
1623.42,3201.13
1624.88,3079.61
1626.33,2926.75
1627.78,2824.05
1629.23,2744.72
1630.68,2636.59
1632.13,2531.76
1633.59,2455.91
1635.04,2408.47
1636.49,2409.41
1637.94,2285.37
1639.39,2237.01
1640.85,2144.33
1642.3,2105.96
1643.75,2077.1
1645.2,2027.55
1646.65,1995.35
1648.1,1990.45
1649.56,1939.33
1651.01,1879.79
1652.46,1846.66
1653.91,1837.92
1655.36,1828.59
1656.81,1789.68
1658.27,1760.01
1659.72,1745.18
1661.17,1703.13
1662.62,1702.6
1664.07,1651.64
1665.53,1577.68
1666.98,1594.11
1668.43,1596.99
1669.88,1568.27
1671.33,1543.24
1672.78,1524.46
1674.24,1478.46
1675.69,1485.64
1677.14,1475.99
1678.59,1440.45
1680.04,1422.06
1681.5,1421.17
1682.95,1395.18
1684.4,1371.38
1685.85,1398.79
1687.3,1382.71
1688.75,1370.09
1690.21,1333.82
1691.66,1316.01
1693.11,1358.85
1694.56,1316.44
1696.01,1290.11
1697.46,1296.23
1698.92,1259.16
1700.37,1270.08
1701.82,1268.37
1703.27,1257.19
1704.72,1235.7
1706.18,1231.51
1707.63,1257.98
1709.08,1222.11
1710.53,1230.84
1711.98,1254.83
1713.43,1221.29
1714.89,1242.01
1716.34,1227.71
1717.79,1231.59
1719.24,1224.34
1720.69,1228.31
1722.15,1223.59
1723.6,1248.47
1725.05,1226.9
1726.5,1204.96
1727.95,1212.51
1729.4,1213.77
1730.86,1192.99
1732.31,1189.38
1733.76,1207.98
1735.21,1208.81
1736.66,1190.29
1738.11,1198.47
1739.57,1197.88
1741.02,1193.09
1742.47,1197.82
1743.92,1205.29
1745.37,1179.68
1746.83,1157.63
1748.28,1174.88
1749.73,1165.07
1751.18,1171.52
1752.63,1141.54
1754.08,1127.38
1755.54,1123.83
1756.99,1118.83
1758.44,1092.29
1759.89,1093.18
1761.34,1103.51
1762.8,1120.51
1764.25,1103.17
1765.7,1095.21
1767.15,1091.57
1768.6,1069.83
1770.05,1057.93
1771.51,1049.59
1772.96,1054.12
1774.41,1044.86
1775.86,1050.27
1777.31,1048.85
1778.76,1040.96
1780.22,1034.27
1781.67,1029.37
1783.12,1015.44
1784.57,1006.07
1786.02,1016.1
1787.48,997.474
1788.93,993.767
1790.38,1021.48
1791.83,994.021
1793.28,998.48
1794.73,1013.04
1796.19,993.948
1797.64,984.029
1799.09,995.365
1800.54,968.06
1801.99,974.893
1803.45,980.333
1804.9,987.325
1806.35,983.09
1807.8,975.265
1809.25,971.615
1810.7,972.652
1812.16,973.655
1813.61,973.604
1815.06,950.758
1816.51,946.666
1817.96,944.921
1819.41,950.521
1820.87,947.356
1822.32,959.07
1823.77,961.482
1825.22,979.146
1826.67,946.387
1828.13,962.818
1829.58,965.98
1831.03,977.671
1832.48,952.676
1833.93,979.199
1835.38,969.636
1836.84,956.608
1838.29,960.713
1839.74,965.76
1841.19,969.256
1842.64,973.452
1844.1,981.4
1845.55,985.019
1847,996.763
1848.45,996.66
1849.9,999.022
1851.35,991.705
1852.81,981.101
1854.26,980.949
1855.71,984.464
1857.16,996.699
1858.61,1009.88
1860.07,997.566
1861.52,1004.76
1862.97,1004.21
1864.42,987.087
1865.87,993.433
1867.32,998.011
1868.78,985.936
1870.23,1021.24
1871.68,998.831
1873.13,1002.37
1874.58,990.935
1876.03,995.54
1877.49,964.028
1878.94,957.904
1880.39,954.077
1881.84,967.495
1883.29,953.365
1884.75,948.93
1886.2,935.927
1887.65,966.57
1889.1,952.874
1890.55,940.235
1892,935.275
1893.46,931.248
1894.91,924.483
1896.36,919.367
1897.81,893.291
1899.26,880.829
1900.72,905.263
1902.17,903.672
1903.62,883.392
1905.07,876.62
1906.52,872.653
1907.97,882.255
1909.43,887.915
1910.88,887.277
1912.33,884.769
1913.78,888.075
1915.23,883.576
1916.68,875.638
1918.14,879.802
1919.59,883.714
1921.04,873.571
1922.49,867.368
1923.94,877.713
1925.4,877.215
1926.85,872.431
1928.3,860.521
1929.75,860.085
1931.2,848.761
1932.65,870.013
1934.11,863.645
1935.56,863.9
1937.01,905.762
1938.46,879.978
1939.91,863.023
1941.37,887.594
1942.82,853.933
1944.27,881.261
1945.72,886.055
1947.17,868.017
1948.62,866.164
1950.08,869.06
1951.53,879.597
1952.98,869.059
1954.43,873.353
1955.88,877.563
1957.33,859.482
1958.79,873.831
1960.24,881.167
1961.69,874.233
1963.14,887.095
1964.59,872.033
1966.05,880.634
1967.5,885.099
1968.95,882.455
1970.4,894.324
1971.85,899.996
1973.3,899.28
1974.76,908.68
1976.21,918.985
1977.66,922.25
1979.11,912.128
1980.56,889.913
1982.02,880.648
1983.47,888.758
1984.92,891.778
1986.37,912.531
1987.82,893.126
1989.27,904.799
1990.73,916.102
1992.18,916.322
1993.63,896.644
1995.08,903.917
1996.53,911.85
1997.98,889.383
1999.44,903.805
2000.89,887.778
2002.34,896.067
2003.79,902.003
2005.24,914.793
2006.7,884.562
2008.15,910.913
2009.6,907.098
2011.05,881.113
2012.5,890.459
2013.95,895.629
2015.41,892.145
2016.86,869.257
2018.31,878.075
2019.76,875.066
2021.21,851.373
2022.67,837.855
2024.12,860.857
2025.57,861.466
2027.02,853.008
2028.47,859.007
2029.92,871.523
2031.38,916.111
2032.83,1312.36
2034.28,1913.72
2035.73,2043.91
2037.18,1783.67
2038.63,1059.89
2040.09,830.382
2041.54,822.469
2042.99,837.128
2044.44,804.94
2045.89,833.224
2047.35,814.995
2048.8,817.397
2050.25,808.211
2051.7,815.62
2053.15,794.309
2054.6,803.295
2056.06,803.682
2057.51,784.432
2058.96,788.506
2060.41,800.113
2061.86,793.016
2063.32,767.478
2064.77,779.324
2066.22,771.697
2067.67,777.795
2069.12,792.785
2070.57,790.944
2072.03,780.78
2073.48,785.255
2074.93,770.604
2076.38,775.812
2077.83,786.854
2079.28,781.941
2080.74,771.87
2082.19,766.083
2083.64,768.926
2085.09,771.209
2086.54,756.239
2088,755.977
2089.45,769.509
2090.9,769.545
2092.35,771.758
2093.8,758.427
2095.25,773.723
2096.71,770.921
2098.16,752.856
2099.61,764.428
2101.06,765.474
2102.51,754.396
2103.97,758.187
2105.42,765.868
2106.87,784.478
2108.32,776.815
2109.77,775.19
2111.22,786.113
2112.68,791.927
2114.13,788.248
2115.58,776.186
2117.03,778.896
2118.48,773.482
2119.94,766.465
2121.39,773.29
2122.84,778.222
2124.29,768.134
2125.74,774.342
2127.19,785.293
2128.65,794.147
2130.1,787.332
2131.55,775.607
2133,768.769
2134.45,765.601
2135.9,771.826
2137.36,779.227
2138.81,779.963
2140.26,793.304
2141.71,785.38
2143.16,782.065
2144.62,785.65
2146.07,794.732
2147.52,794.927
2148.97,798.825
2150.42,783.648
2151.87,788.823
2153.33,787.914
2154.78,778.166
2156.23,779.902
2157.68,785.046
2159.13,799.825
2160.58,805.146
2162.04,804.724
2163.49,800.272
2164.94,797.565
2166.39,793.41
2167.84,801.88
2169.3,816.63
2170.75,783.513
2172.2,811.328
2173.65,827.106
2175.1,819.687
2176.55,830.92
2178.01,817.997
2179.46,831.445
2180.91,821.668
2182.36,824.398
2183.81,808.911
2185.27,823.162
2186.72,832.01
2188.17,842.225
2189.62,842.294
2191.07,843.013
2192.52,831.93
2193.98,829.327
2195.43,836.556
2196.88,856.384
2198.33,838.214
2199.78,842.544
2201.24,840.607
2202.69,841.441
2204.14,857.781
2205.59,853.921
2207.04,832.604
2208.49,828.754
2209.95,823.384
2211.4,825.754
2212.85,838.688
2214.3,840.919
2215.75,859.707
2217.2,840.156
2218.66,859.693
2220.11,876.496
2221.56,854.608
2223.01,862.2
2224.46,855.049
2225.92,847.612
2227.37,849.949
2228.82,861.751
2230.27,869.655
2231.72,856.047
2233.17,859.361
2234.63,850.536
2236.08,860.494
2237.53,866.044
2238.98,855.205
2240.43,858.657
2241.89,869.667
2243.34,873.352
2244.79,872.301
2246.24,863.6
2247.69,874.557
2249.14,875.798
2250.6,888.596
2252.05,882.685
2253.5,860.92
2254.95,868.145
2256.4,892.488
2257.85,880.621
2259.31,871.298
2260.76,877.171
2262.21,877.336
2263.66,895.408
2265.11,905.282
2266.57,893.719
2268.02,897.061
2269.47,894.654
2270.92,885.816
2272.37,905.645
2273.82,906.903
2275.28,926.628
2276.73,905.889
2278.18,905.423
2279.63,900.076
2281.08,902.207
2282.54,912.256
2283.99,916.892
2285.44,933.115
2286.89,938.343
2288.34,913.258
2289.79,907.459
2291.25,935.638
2292.7,942.088
2294.15,934.776
2295.6,929.747
2297.05,927.518
2298.5,946.342
2299.96,957.829
2301.41,965.732
2302.86,969.954
2304.31,974.715
2305.76,983.299
2307.22,993.225
2308.67,951.912
2310.12,1003.47
2311.57,977.546
2313.02,994.273
2314.47,984.182
2315.93,978.146
2317.38,1003.19
2318.83,1013.11
2320.28,993.98
2321.73,1000.93
2323.19,1005.49
2324.64,1001.13
2326.09,1013.48
2327.54,999.498
2328.99,1025.87
2330.44,1034.35
2331.9,1034.21
2333.35,1046.92
2334.8,1036.55
2336.25,1033.3
2337.7,1034.48
2339.16,1044.56
2340.61,1060.83
2342.06,1052.28
2343.51,1046.97
2344.96,1061.13
2346.41,1074.46
2347.87,1076.22
2349.32,1065.67
2350.77,1057.67
2352.22,1084.22
2353.67,1111.52
2355.12,1083.35
2356.58,1119.49
2358.03,1097.73
2359.48,1126.91
2360.93,1140.98
2362.38,1113.46
2363.84,1124.4
2365.29,1159.58
2366.74,1146.42
2368.19,1153.82
2369.64,1189.16
2371.09,1176.13
2372.55,1194.04
2374,1211.49
2375.45,1222.89
2376.9,1240.42
2378.35,1236.67
2379.8,1245.26
2381.26,1260.19
2382.71,1282.54
2384.16,1304.5
2385.61,1326.79
2387.06,1351.43
2388.52,1372.77
2389.97,1387.85
2391.42,1406.17
2392.87,1418.34
2394.32,1420.8
2395.77,1474.22
2397.23,1503.99
2398.68,1510.42
2400.13,1522.53
2401.58,1560.01
2403.03,1594.52
2404.49,1589.98
2405.94,1631.91
2407.39,1667.24
2408.84,1694.95
2410.29,1690.38
2411.74,1764.45
2413.2,1802.89
2414.65,1806.48
2416.1,1851.89
2417.55,1861.41
2419,1873.16
2420.46,1899.42
2421.91,1952.4
2423.36,1955.4
2424.81,1946.36
2426.26,1939.01
2427.71,1952.76
2429.17,1977.09
2430.62,2005.32
2432.07,1968.3
2433.52,1965.41
2434.97,1970.4
2436.42,1972.64
2437.88,1999.23
2439.33,1981.02
2440.78,1965.63
2442.23,1954.44
2443.68,1966.53
2445.14,1936.56
2446.59,1938.2
2448.04,1910.12
2449.49,1919.8
2450.94,1926.28
2452.39,1913.23
2453.85,1894.34
2455.3,1895.18
2456.75,1872.59
2458.2,1828.57
2459.65,1823.72
2461.1,1818.36
2462.56,1817.26
2464.01,1837.6
2465.46,1798.28
2466.91,1784.1
2468.36,1776.15
2469.82,1757.24
2471.27,1791.78
2472.72,1734.52
2474.17,1759.13
2475.62,1738.13
2477.07,1721.38
2478.53,1733.19
2479.98,1748.56
2481.43,1742.96
2482.88,1742.78
2484.33,1748.27
2485.79,1765.8
2487.24,1730.72
2488.69,1729.28
2490.14,1745.15
2491.59,1743.79
2493.04,1725.2
2494.5,1735.67
2495.95,1730.69
2497.4,1771.78
2498.85,1720.56
2500.3,1741.45
2501.76,1738.72
2503.21,1754.24
2504.66,1719.1
2506.11,1761.07
2507.56,1789.44
2509.01,1789.52
2510.47,1780.46
2511.92,1791.71
2513.37,1816.83
2514.82,1852.22
2516.27,1864.76
2517.72,1843
2519.18,1854.54
2520.63,1873.57
2522.08,1923.7
2523.53,1882.02
2524.98,1906.41
2526.44,1932.8
2527.89,1942.62
2529.34,1956.92
2530.79,1985.4
2532.24,1982.61
2533.69,1978.04
2535.15,2029.74
2536.6,2045.57
2538.05,2084.77
2539.5,2128.39
2540.95,2131.5
2542.41,2144.47
2543.86,2143.09
2545.31,2183.33
2546.76,2232.85
2548.21,2259.16
2549.66,2274.87
2551.12,2293.28
2552.57,2323.25
2554.02,2400.47
2555.47,2404.88
2556.92,2448.18
2558.37,2514.46
2559.83,2540.07
2561.28,2617.51
2562.73,2635.01
2564.18,2654.39
2565.63,2722.59
2567.09,2767.68
2568.54,2835.61
2569.99,2887.42
2571.44,2951.24
2572.89,3000.94
2574.34,3085.83
2575.8,3155.86
2577.25,3204.29
2578.7,3303.63
2580.15,3373.47
2581.6,3419.16
2583.06,3540.56
2584.51,3612.2
2585.96,3703.99
2587.41,3812.09
2588.86,3944.42
2590.31,4049.09
2591.77,4152.84
2593.22,4286.71
2594.67,4426.68
2596.12,4553.36
2597.57,4681.92
2599.02,4832.69
2600.48,4976.8
2601.93,5164.36
2603.38,5317.86
2604.83,5517.25
2606.28,5678.72
2607.74,5927.59
2609.19,6130.77
2610.64,6348.92
2612.09,6613.69
2613.54,6810.9
2614.99,7102.32
2616.45,7368.74
2617.9,7617.9
2619.35,7883.88
2620.8,8229.73
2622.25,8509.54
2623.71,8831.22
2625.16,9140.51
2626.61,9543.48
2628.06,9865.85
2629.51,10240.4
2630.96,10623
2632.42,11009.8
2633.87,11339
2635.32,11799.2
2636.77,12119.5
2638.22,12496.9
2639.68,12860.8
2641.13,13157.9
2642.58,13513.6
2644.03,13837.2
2645.48,14227.5
2646.93,14582.9
2648.39,14792.2
2649.84,14998
2651.29,15102.1
2652.74,15358.5
2654.19,15544
2655.64,15694.1
2657.1,15790.2
2658.55,15824.5
2660,15847.1
2661.45,15772.8
2662.9,15649.8
2664.36,15561.9
2665.81,15474.6
2667.26,15339.4
2668.71,15021.8
2670.16,14677.5
2671.61,14551.3
2673.07,14170.7
2674.52,13852.7
2675.97,13528.5
2677.42,13270.1
2678.87,12856.7
2680.32,12434
2681.78,12003.1
2683.23,11588.4
2684.68,11293.9
2686.13,10923
2687.58,10405.8
2689.04,10039.1
2690.49,9630.64
2691.94,9287.11
2693.39,8861.19
2694.84,8521.07
2696.29,8170.87
2697.75,7856.51
2699.2,7532.5
2700.65,7197.19
2702.1,6881.53
2703.55,6590.38
2705.01,6318.79
2706.46,6062.26
2707.91,5786.37
2709.36,5532.74
2710.81,5282.37
2712.26,5166.69
2713.72,4970.89
2715.17,4731.39
2716.62,4569.93
2718.07,4391.96
2719.52,4230.91
2720.98,4074.13
2722.43,3893.81
2723.88,3781.47
2725.33,3658.66
2726.78,3537.83
2728.23,3422.98
2729.69,3397.7
2731.14,3244.23
2732.59,3149.89
2734.04,3079.66
2735.49,2984.96
2736.94,2901.77
2738.4,2845.28
2739.85,2762.93
2741.3,2692.95
2742.75,2618.62
2744.2,2589.26
2745.66,2511.47
2747.11,2480.39
2748.56,2402.02
2750.01,2361.39
2751.46,2317.72
2752.91,2278.49
2754.37,2244.72
2755.82,2188.12
2757.27,2157.71
2758.72,2104.96
2760.17,2085.45
2761.63,2067.02
2763.08,2027.49
2764.53,2003.61
2765.98,1974.6
2767.43,1937.32
2768.88,1911.14
2770.34,1870.38
2771.79,1859.5
2773.24,1823.83
2774.69,1815.89
2776.14,1790.28
2777.59,1747.25
2779.05,1735.81
2780.5,1737.42
2781.95,1712.08
2783.4,1668.25
2784.85,1706.64
2786.31,1658.3
2787.76,1650.28
2789.21,1636.52
2790.66,1598.91
2792.11,1609.68
2793.56,1601.72
2795.02,1564.76
2796.47,1576.53
2797.92,1545.54
2799.37,1534.94
2800.82,1526.9
2802.28,1516.47
2803.73,1475.92
2805.18,1486.53
2806.63,1487.44
2808.08,1477.72
2809.53,1468.79
2810.99,1474.97
2812.44,1423.56
2813.89,1459.81
2815.34,1421.97
2816.79,1397.04
2818.24,1396.53
2819.7,1379.85
2821.15,1388.19
2822.6,1402.78
2824.05,1391.01
2825.5,1365.46
2826.96,1373.24
2828.41,1347.29
2829.86,1361.69
2831.31,1362.85
2832.76,1377.59
2834.21,1337.62
2835.67,1345.28
2837.12,1320.31
2838.57,1335.21
2840.02,1319.59
2841.47,1301.59
2842.93,1335.7
2844.38,1305.57
2845.83,1317.26
2847.28,1309.5
2848.73,1330.53
2850.18,1302.27
2851.64,1306.4
2853.09,1307.39
2854.54,1303.83
2855.99,1300.49
2857.44,1310.41
2858.9,1272.2
2860.35,1281.65
2861.8,1294.24
2863.25,1291.79
2864.7,1292.06
2866.15,1313.97
2867.61,1317.44
2869.06,1298.17
2870.51,1305.01
2871.96,1310.91
2873.41,1295.28
2874.86,1303.27
2876.32,1328.44
2877.77,1319.94
2879.22,1315.3
2880.67,1327.67
2882.12,1307.38
2883.58,1317.97
2885.03,1319.07
2886.48,1321.03
2887.93,1328.46
2889.38,1335.27
2890.83,1333.4
2892.29,1321.58
2893.74,1310.53
2895.19,1327.3
2896.64,1339.62
2898.09,1330.5
2899.54,1339.28
2901,1313.88
2902.45,1300.58
2903.9,1315.36
2905.35,1303.82
2906.8,1305.73
2908.26,1329.1
2909.71,1347.05
2911.16,1330.72
2912.61,1324.1
2914.06,1301.93
2915.51,1299.27
2916.97,1278.68
2918.42,1260.94
2919.87,1273.29
2921.32,1254.77
2922.77,1255.86
2924.23,1280.42
2925.68,1253.58
2927.13,1252.02
2928.58,1231.39
2930.03,1231.51
2931.48,1177.81
2932.94,1226.88
2934.39,1182.01
2935.84,1189.22
2937.29,1176.96
2938.74,1149.21
2940.2,1135.92
2941.65,1155.88
2943.1,1126.54
2944.55,1140.47
2946,1111.53
2947.45,1098.85
2948.91,1089.82
2950.36,1080.06
2951.81,1066.87
2953.26,1051.07
2954.71,1053.4
2956.16,1029.92
2957.62,1030.22
2959.07,1039.09
2960.52,1014.17
2961.97,1016.28
2963.42,1010.64
2964.88,996.084
2966.33,977.948
2967.78,978.763
2969.23,965.278
2970.68,981.201
2972.13,964.896
2973.59,937.59
2975.04,928.177
2976.49,934.608
2977.94,938.734
2979.39,929.314
2980.84,940.727
2982.3,942.034
2983.75,943.658
2985.2,918.096
2986.65,901.035
2988.1,916.91
2989.56,911.303
2991.01,918.322
2992.46,916.423
2993.91,892.162
2995.36,893.33
2996.81,909.339
2998.27,883.509
2999.72,878.505
3001.17,893.695
3002.62,899.089
3004.07,884.575
3005.53,887.096
3006.98,881.232
3008.43,874.718
3009.88,851.545
3011.33,859.888
3012.78,885.688
3014.24,861.368
3015.69,860.885
3017.14,863.043
3018.59,851.055
3020.04,864.296
3021.5,856.992
3022.95,856.875
3024.4,850.817
3025.85,857.945
3027.3,845.046
3028.75,864.967
3030.21,858.002
3031.66,847.953
3033.11,851.056
3034.56,856.563
3036.01,853.074
3037.46,833.309
3038.92,855.562
3040.37,850.61
3041.82,851.668
3043.27,856.421
3044.72,844.055
3046.18,864.744
3047.63,845.322
3049.08,861.222
3050.53,882.347
3051.98,873.791
3053.43,882.026
3054.89,858.296
3056.34,860.726
3057.79,859.367
3059.24,863.68
3060.69,869.379
3062.15,859.604
3063.6,873.523
3065.05,859.632
3066.5,872.404
3067.95,852.901
3069.4,869.541
3070.86,866.604
3072.31,886.03
3073.76,882.944
3075.21,887.146
3076.66,909.558
3078.11,879.857
3079.57,894.248
3081.02,905.224
3082.47,914.297
3083.92,946.326
3085.37,945.615
3086.83,950.21
3088.28,929.146
3089.73,933.361
3091.18,937.331
3092.63,955.859
3094.08,976.033
3095.54,987.932
3096.99,979.298
3098.44,994.157
3099.89,1063.37
3101.34,1050.25
3102.8,1048.57
3104.25,1070.38
3105.7,1065.32
3107.15,1077.06
3108.6,1098.1
3110.05,1141.2
3111.51,1149.76
3112.96,1166.06
3114.41,1156.4
3115.86,1191.08
3117.31,1227.19
3118.76,1257.05
3120.22,1246.93
3121.67,1277.59
3123.12,1302.02
3124.57,1295.99
3126.02,1343.41
3127.48,1367.9
3128.93,1347.69
3130.38,1395.63
3131.83,1398.44
3133.28,1433.11
3134.73,1437.34
3136.19,1454.91
3137.64,1469.86
3139.09,1477.27
3140.54,1465.46
3141.99,1520.71
3143.45,1515
3144.9,1507.23
3146.35,1520.98
3147.8,1531.08
3149.25,1554.91
3150.7,1562.11
3152.16,1547.3
3153.61,1585.34
3155.06,1569.69
3156.51,1557.18
3157.96,1563.04
3159.42,1570.2
3160.87,1568.68
3162.32,1571.17
3163.77,1583.06
3165.22,1585.77
3166.67,1561.1
3168.13,1555.54
3169.58,1589.38
3171.03,1604.17
3172.48,1570.15
3173.93,1549.94
3175.38,1592.28
3176.84,1591
3178.29,1604.97
3179.74,1601.91
3181.19,1620.87
3182.64,1623.86
3184.1,1657.75
3185.55,1652.16
3187,1660.77
3188.45,1676.6
3189.9,1686.06
3191.35,1682.11
3192.81,1693.59
3194.26,1731.01
3195.71,1718
3197.16,1734.75
3198.61,1733.52
3200.06,1751.96
3201.52,1801.32
3202.97,1741.61
3204.42,1725.55
3205.87,1729.41
3207.32,1719.24
3208.78,1734.25
3210.23,1706.81
3211.68,1677.87
3213.13,1673.62
3214.58,1631.64
3216.03,1652.04
3217.49,1598.14
3218.94,1559.24
3220.39,1551.58
3221.84,1489
3223.29,1460.88
3224.75,1425.9
3226.2,1395.82
3227.65,1331.28
3229.1,1324
3230.55,1267.83
3232,1238.39
3233.46,1193.79
3234.91,1165.69
3236.36,1143.93
3237.81,1101.01
3239.26,1078.81
3240.72,1070.7
3242.17,1035.64
3243.62,1012.86
3245.07,990.391
3246.52,965.312
3247.97,950.453
3249.43,941.436
3250.88,900.231
3252.33,891.033
3253.78,881.384
3255.23,854.891
3256.68,836.452
3258.14,860.914
3259.59,832.935
3261.04,824.3
3262.49,807.027
3263.94,779.38
3265.4,789.17
3266.85,788.198
3268.3,758.894
3269.75,772.873
3271.2,769.939
3272.65,759.677
3274.11,749.401
3275.56,761.169
3277.01,750.827
3278.46,732.591
3279.91,757.712
3281.37,749.813
3282.82,731.025
3284.27,730.981
3285.72,727.754
3287.17,725.305
3288.62,720.996
3290.08,734.705
3291.53,715.287
3292.98,704.568
3294.43,722.647
3295.88,730.034
3297.33,709.393
3298.79,708.699
3300.24,698.547
3301.69,705.982
3303.14,705.333
3304.59,717.092
3306.05,694.307
3307.5,674.511
3308.95,685.594
3310.4,698.688
3311.85,702.754
3313.3,676.309
3314.76,687.515
3316.21,683.183
3317.66,691.38
3319.11,712.521
3320.56,677.916
3322.02,697.841
3323.47,695.876
3324.92,679.325
3326.37,691.866
3327.82,685.364
3329.27,689.789
3330.73,677.772
3332.18,687.07
3333.63,689.514
3335.08,689.234
3336.53,696.804
3337.98,675.355
3339.44,683.6
3340.89,679.581
3342.34,670.847
3343.79,672.179
3345.24,675.601
3346.7,685.277
3348.15,675.992
3349.6,687.984
3351.05,690.806
3352.5,662.592
3353.95,664.055
3355.41,677.858
3356.86,672.974
3358.31,674.829
3359.76,686.221
3361.21,688.03
3362.67,698.856
3364.12,668.973
3365.57,673.105
3367.02,680.178
3368.47,659.955
3369.92,646.29
3371.38,668.087
3372.83,658.027
3374.28,661.835
3375.73,650.776
3377.18,675.851
3378.63,685.275
3380.09,669.769
3381.54,670.631
3382.99,668.561
3384.44,666.416
3385.89,666.784
3387.35,677.994
3388.8,673.466
3390.25,652.943
3391.7,653.286
3393.15,658.738
3394.6,676.717
3396.06,663.871
3397.51,669.582
3398.96,665.872
3400.41,678.643
3401.86,683.854
3403.32,671.661
3404.77,679.919
3406.22,662.187
3407.67,650.766
3409.12,633.676
3410.57,663.737
3412.03,683.841
3413.48,665.127
3414.93,642.825
3416.38,636.979
3417.83,645.98
3419.28,654.886
3420.74,660.875
3422.19,668.454
3423.64,664.287
3425.09,655.059
3426.54,644.536
3428,656.464
3429.45,655.549
3430.9,648.964
3432.35,646.244
3433.8,649.391
3435.25,650.535
3436.71,662.76
3438.16,648.032
3439.61,642.675
3441.06,636.457
3442.51,640.584
3443.97,647.18
3445.42,641.821
3446.87,657.141
3448.32,639.8
3449.77,633.557
3451.22,664.255
3452.68,635.093
3454.13,651.973
3455.58,637.299
3457.03,641.552
3458.48,636.82
3459.94,654.82
3461.39,641.374
3462.84,650.097
3464.29,663.444
3465.74,653.278
3467.19,644.038
3468.65,645.483
3470.1,634.562
3471.55,645.726
3473,642.777
3474.45,638.889
3475.9,663.029
3477.36,662.651
3478.81,647.439
3480.26,666.163
3481.71,638.19
3483.16,646.899
3484.62,669.5
3486.07,645.209
3487.52,632.203
3488.97,632.763
3490.42,640.921
3491.87,642.551
3493.33,653.544
3494.78,651.039
3496.23,647.142
3497.68,656.605
3499.13,637.421
3500.58,637.551
3502.04,656.321
3503.49,651.627
3504.94,646.543
3506.39,642.951
3507.84,657.506
3509.3,663.159
3510.75,652.742
3512.2,651.664
3513.65,661.286
3515.1,648.361
3516.55,646.207
3518.01,634.412
3519.46,636.193
3520.91,641.72
3522.36,638.398
3523.81,654.689
3525.27,652.737
3526.72,636.326
3528.17,637.22
3529.62,627.103
3531.07,637.283
3532.52,649.013
3533.98,651.713
3535.43,658.289
3536.88,639.478
3538.33,647.618
3539.78,653.39
3541.24,663.68
3542.69,645.025
3544.14,645.109
3545.59,647.96
3547.04,644.964
3548.49,656.117
3549.95,640.081
3551.4,635.387
3552.85,638.704
3554.3,629.974
3555.75,643.938
3557.2,630.354
3558.66,641.036
3560.11,641.451
3561.56,622.302
3563.01,631.818
3564.46,643.263
3565.92,629.636
3567.37,644.07
3568.82,622.419
3570.27,632.737
3571.72,629.033
3573.17,645.287
3574.63,646.403
3576.08,643.32
3577.53,653.647
3578.98,632.917
3580.43,645.416
3581.89,638.504
3583.34,630.594
3584.79,629.66
3586.24,635.705
3587.69,637.88
3589.14,620.022
3590.6,632.418
3592.05,630.454
3593.5,640.538
3594.95,655.487
3596.4,639.702
3597.85,640.282
3599.31,634.15
3600.76,637.223
3602.21,647.599
3603.66,648.106
3605.11,650.064
3606.57,647.494
3608.02,640.217
3609.47,636.724
3610.92,650.337
3612.37,637.241
3613.82,622.267
3615.28,627.959
3616.73,623.009
3618.18,636.272
3619.63,628.043
3621.08,605.389
3622.54,631.29
3623.99,641.073
3625.44,633.21
3626.89,643.89
3628.34,633.254
3629.79,638.684
3631.25,636.594
3632.7,656.707
3634.15,646.036
3635.6,658.5
3637.05,651.646
3638.5,656.197
3639.96,629.243
3641.41,645.699
3642.86,633.41
3644.31,626.365
3645.76,630.343
3647.22,639.553
3648.67,637.324
3650.12,630.714
3651.57,636.675
3653.02,639.369
3654.47,646.855
3655.93,653.932
3657.38,653.113
3658.83,628.424
3660.28,653.699
3661.73,619.919
3663.19,617.172
3664.64,652.061
3666.09,628.415
3667.54,628.377
3668.99,655.411
3670.44,646.834
3671.9,642.807
3673.35,643.584
3674.8,652.715
3676.25,629.807
3677.7,643.865
3679.16,651.449
3680.61,645.868
3682.06,641.401
3683.51,641.211
3684.96,662.983
3686.41,632.559
3687.87,645.332
3689.32,629.715
3690.77,649.639
3692.22,643.278
3693.67,643.618
3695.12,633.42
3696.58,622.924
3698.03,658.112
3699.48,655.489
3700.93,643.74
3702.38,639.152
3703.84,653.555
3705.29,635.547
3706.74,628.669
3708.19,637.028
3709.64,648.947
3711.09,652.026
3712.55,663.493
3714,644.784
3715.45,664.104
3716.9,652.094
3718.35,645.012
3719.8,652.214
3721.26,652.56
3722.71,645.773
3724.16,646.945
3725.61,658.955
3727.06,647.832
3728.52,644.188
3729.97,648.646
3731.42,642.034
3732.87,653.054
3734.32,647.489
3735.77,642.492
3737.23,655.525
3738.68,663.232
3740.13,650.526
3741.58,653.116
3743.03,650.157
3744.49,643.797
3745.94,646.921
3747.39,651.384
3748.84,654.675
3750.29,642.055
3751.74,643.058
3753.2,662.416
3754.65,659.669
3756.1,654.355
3757.55,667.418
3759,657.77
3760.46,646.367
3761.91,655.64
3763.36,645.078
3764.81,654.808
3766.26,645.076
3767.71,653.419
3769.17,650.66
3770.62,652.113
3772.07,660.677
3773.52,654.163
3774.97,666.118
3776.42,674.02
3777.88,665.806
3779.33,662.797
3780.78,678.954
3782.23,655.948
3783.68,658.088
3785.14,668.268
3786.59,679.228
3788.04,654.548
3789.49,659.483
3790.94,660.956
3792.39,673.161
3793.85,677.312
3795.3,663.097
3796.75,688.113
3798.2,671.799
3799.65,672.863
3801.1,670.536
3802.56,654.284
3804.01,663.779
3805.46,671.726
3806.91,679.639
3808.36,678.722
3809.82,679.64
3811.27,673.872
3812.72,667.266
3814.17,687.449
3815.62,669.217
3817.07,678.63
3818.53,681.933
3819.98,660.373
3821.43,671.349
3822.88,675.879
3824.33,670.115
3825.79,665.954
3827.24,677.827
3828.69,675.895
3830.14,657.892
3831.59,672.169
3833.04,685.878
3834.5,689.508
3835.95,670.779
3837.4,677.497
3838.85,681.424
3840.3,672.205
3841.76,678.464
3843.21,680.046
3844.66,697.06
3846.11,674.963
3847.56,679.339
3849.01,682.068
3850.47,701.31
3851.92,686.607
3853.37,692.454
3854.82,702.198
3856.27,691.755
3857.72,688.688
3859.18,685.577
3860.63,677.205
3862.08,691.594
3863.53,688.321
3864.98,704.904
3866.44,706.611
3867.89,697.441
3869.34,701.68
3870.79,689.731
3872.24,688.694
3873.69,695.016
3875.15,688.993
3876.6,704.406
3878.05,699.767
3879.5,696.398
3880.95,700.484
3882.41,701.234
3883.86,717.054
3885.31,701.172
3886.76,691.761
3888.21,714.215
3889.66,721.386
3891.12,716.327
3892.57,695.509
3894.02,712.176
3895.47,720.877
3896.92,706.281
3898.37,716.167
3899.83,739.007
3901.28,697.892
3902.73,700.244
3904.18,726.614
3905.63,720.312
3907.09,718.768
3908.54,705.228
3909.99,736.299
3911.44,722.55
3912.89,743.64
3914.34,725.462
3915.8,753.111
3917.25,733.392
3918.7,732.621
3920.15,753.568
3921.6,750.372
3923.06,733.005
3924.51,744.435
3925.96,748.869
3927.41,735.465
3928.86,750.548
3930.31,745.648
3931.77,747.473
3933.22,740.793
3934.67,757.743
3936.12,746.154
3937.57,743.625
3939.02,763.681
3940.48,762.029
3941.93,769.514
3943.38,766.362
3944.83,786.319
3946.28,767.761
3947.74,775.79
3949.19,764.64
3950.64,781.515
3952.09,792.286
3953.54,781.967
3954.99,770.298
3956.45,777.445
3957.9,778.179
3959.35,765.681
3960.8,791.487
3962.25,790.43
3963.71,798.45
3965.16,787.136
3966.61,802.193
3968.06,795.706
3969.51,770.759
3970.96,779.825
3972.42,804.316
3973.87,803.326
3975.32,789.272
3976.77,812.362
3978.22,811.682
3979.68,807.424
3981.13,825.472
3982.58,831.724
3984.03,838.666
3985.48,812.003
3986.93,822.975
3988.39,828.142
3989.84,823.2
3991.29,850.693
3992.74,833.984
3994.19,843.987
3995.64,827.983
3997.1,841.57
3998.55,850.901
4000,855.465
