-50,-5.65267
-48.5458,-4.10724
-47.0916,-0.878188
-45.6373,-1.70793
-44.1831,-5.10257
-42.7289,-4.06152
-41.2747,0.646523
-39.8205,-0.400792
-38.3662,-3.65494
-36.912,-3.65231
-35.4578,-1.30963
-34.0036,0.0483459
-32.5494,1.98403
-31.0952,4.02526
-29.6409,6.91014
-28.1867,8.58489
-26.7325,5.40811
-25.2783,9.48911
-23.8241,15.5851
-22.3698,19.7187
-20.9156,20.8071
-19.4614,23.4072
-18.0072,24.7275
-16.553,25.8278
-15.0987,31.7257
-13.6445,42.7422
-12.1903,68.3377
-10.7361,110.199
-9.28187,35.2102
-7.82765,35.2102
-6.37343,35.2102
-4.91921,35.2102
-3.46499,35.2102
-2.01077,35.2102
-0.556553,35.2102
0.897666,35.2102
2.35189,35.2102
3.8061,268.139
5.26032,146.484
6.71454,113.732
8.16876,88.8138
9.62298,74.9399
11.0772,63.3337
12.5314,49.9996
13.9856,44.0985
15.4399,36.0619
16.8941,32.9462
18.3483,30.4332
19.8025,26.7194
21.2567,27.4302
22.711,25.2323
24.1652,25.5941
25.6194,26.715
27.0736,28.0272
28.5278,26.1957
29.982,22.9834
31.4363,19.6606
32.8905,19.6123
34.3447,16.3717
35.7989,11.9466
37.2531,7.04922
38.7074,8.62085
40.1616,13.2684
41.6158,11.147
43.07,22.394
44.5242,33.5622
45.9785,60.0015
47.4327,110.214
48.8869,194.129
50.3411,331.963
51.7953,481.884
53.2495,639.484
54.7038,798.762
56.158,956.429
57.6122,1078.52
59.0664,1163.57
60.5206,1241.23
61.9749,1268.65
63.4291,1308.17
64.8833,1347.05
66.3375,1356.77
67.7917,1344.21
69.246,1382.3
70.7002,1391.78
72.1544,1415.94
73.6086,1441.35
75.0628,1457.66
76.5171,1485.19
77.9713,1527.16
79.4255,1560.22
80.8797,1562.4
82.3339,1556.72
83.7882,1513.7
85.2424,1441.43
86.6966,1381.28
88.1508,1332.46
89.605,1247.1
91.0592,1219.9
92.5135,1180.82
93.9677,1146.77
95.4219,1141.77
96.8761,1104.99
98.3303,1079.53
99.7846,1071.84
101.239,1075.01
102.693,1079.03
104.147,1080.16
105.601,1077.95
107.056,1084.6
108.51,1076.86
109.964,1050.11
111.418,1013.92
112.873,1002.43
114.327,989.362
115.781,955.969
117.235,917.572
118.689,893.565
120.144,879.634
121.598,857.17
123.052,835.513
124.506,828.069
125.961,834.312
127.415,823.74
128.869,820.196
130.323,820.018
131.777,826.594
133.232,839.865
134.686,810.498
136.14,775.059
137.594,756.272
139.048,709.835
140.503,706.941
141.957,692.93
143.411,675.323
144.865,662.905
146.32,654.938
147.774,670.022
149.228,678.761
150.682,679.565
152.136,678.913
153.591,656.42
155.045,644.391
156.499,626.567
157.953,619.434
159.408,625.404
160.862,618.045
162.316,612.833
163.77,604.862
165.224,606.19
166.679,616.591
168.133,621.158
169.587,620.47
171.041,619.196
172.496,648.849
173.95,717.944
175.404,829.967
176.858,909.58
178.312,933.319
179.767,892.312
181.221,792.897
182.675,733.879
184.129,677.95
185.583,638.321
187.038,603.317
188.492,578.851
189.946,573.768
191.4,556.746
192.855,538.769
194.309,534.96
195.763,527.581
197.217,511.074
198.671,512.183
200.126,508.815
201.58,506.177
203.034,519.176
204.488,511.432
205.943,510.931
207.397,513.621
208.851,515.88
210.305,509.095
211.759,491.046
213.214,505.555
214.668,500.965
216.122,492.829
217.576,499.214
219.031,492.545
220.485,491.695
221.939,498.012
223.393,503.121
224.847,498.246
226.302,502.596
227.756,516.037
229.21,510.108
230.664,492.732
232.118,482.123
233.573,506.756
235.027,506.129
236.481,487.815
237.935,488.152
239.39,504.175
240.844,482.917
242.298,485.557
243.752,484.204
245.206,481.836
246.661,482.194
248.115,492.945
249.569,479.635
251.023,476.308
252.478,474.983
253.932,479.151
255.386,488.958
256.84,482.693
258.294,468.553
259.749,463.413
261.203,462.121
262.657,456.778
264.111,450.922
265.566,448.332
267.02,456.662
268.474,458.65
269.928,449.899
271.382,456.324
272.837,451.367
274.291,439.503
275.745,438.371
277.199,446.149
278.654,434.658
280.108,424.225
281.562,424.54
283.016,424.459
284.47,424.394
285.925,416.856
287.379,420.734
288.833,415.959
290.287,413.271
291.741,413.369
293.196,413.132
294.65,405.127
296.104,409.041
297.558,411.072
299.013,409.841
300.467,404.202
301.921,403.867
303.375,391.665
304.829,392.625
306.284,389.667
307.738,382.221
309.192,379.035
310.646,371.51
312.101,366.184
313.555,373.854
315.009,377.126
316.463,365.677
317.917,365.595
319.372,366.897
320.826,366.281
322.28,372.162
323.734,382.267
325.189,377.345
326.643,371.441
328.097,361.003
329.551,357.798
331.005,359.59
332.46,349.672
333.914,362.08
335.368,359.522
336.822,360.88
338.276,358.383
339.731,346.089
341.185,367.913
342.639,376.815
344.093,366.577
345.548,354.918
347.002,359.411
348.456,369.206
349.91,350.584
351.364,360.068
352.819,367.442
354.273,362.68
355.727,355.665
357.181,360.51
358.636,358.651
360.09,352.883
361.544,359.03
362.998,371.959
364.452,355.843
365.907,340.113
367.361,345.968
368.815,351.726
370.269,350.509
371.724,344.843
373.178,352.468
374.632,343.878
376.086,326.484
377.54,329.075
378.995,357.013
380.449,334.153
381.903,335.031
383.357,337.843
384.811,343.113
386.266,341.073
387.72,321.514
389.174,348.58
390.628,361.307
392.083,363.186
393.537,356.693
394.991,355.603
396.445,353.806
397.899,348.124
399.354,335.286
400.808,335.348
402.262,345.241
403.716,338.52
405.171,347.676
406.625,347.023
408.079,342.261
409.533,333.522
410.987,325.878
412.442,331.957
413.896,327.418
415.35,335.806
416.804,335.441
418.259,329.52
419.713,336.138
421.167,337.542
422.621,341.337
424.075,350.679
425.53,349.235
426.984,331.782
428.438,318.438
429.892,330.37
431.346,321.045
432.801,325.182
434.255,330.247
435.709,319.794
437.163,325.254
438.618,338.857
440.072,327.243
441.526,321.134
442.98,329.167
444.434,331.352
445.889,343.448
447.343,330.02
448.797,318.431
450.251,317.877
451.706,330.257
453.16,325.733
454.614,331.759
456.068,327.98
457.522,320.275
458.977,324.629
460.431,337.816
461.885,330.277
463.339,338.683
464.794,339.956
466.248,344.177
467.702,346.502
469.156,333.648
470.61,322.278
472.065,327.217
473.519,324.884
474.973,332.923
476.427,347.043
477.882,331.498
479.336,329.763
480.79,325.529
482.244,332.759
483.698,342.865
485.153,342.076
486.607,335.273
488.061,337.447
489.515,330.962
490.969,322.561
492.424,318.88
493.878,322.554
495.332,328.901
496.786,326.196
498.241,320.402
499.695,315.222
501.149,314.715
502.603,315.824
504.057,323.443
505.512,331.551
506.966,322.594
508.42,314.826
509.874,317.911
511.329,326.413
512.783,317.378
514.237,321.305
515.691,315.13
517.145,318.926
518.6,325.951
520.054,312.652
521.508,325.013
522.962,312.066
524.417,310.17
525.871,306.938
527.325,302.775
528.779,311.245
530.233,326.353
531.688,309.598
533.142,314.066
534.596,318.631
536.05,314.219
537.505,315.747
538.959,314.721
540.413,312.779
541.867,316.686
543.321,315.766
544.776,314.206
546.23,312.458
547.684,316.707
549.138,320.6
550.592,322.515
552.047,320.445
553.501,315.983
554.955,307.454
556.409,311.213
557.864,318.284
559.318,315.408
560.772,309.664
562.226,321.884
563.68,318.353
565.135,325.259
566.589,316.87
568.043,309.568
569.497,317.113
570.952,328.501
572.406,316.712
573.86,318.941
575.314,321.998
576.768,321.642
578.223,311.954
579.677,310.362
581.131,327.478
582.585,329.861
584.039,322.347
585.494,308.837
586.948,306.036
588.402,304.272
589.856,309.189
591.311,323.396
592.765,310.571
594.219,309.123
595.673,311.802
597.127,315.105
598.582,320.419
600.036,316.326
601.49,313.387
602.944,312.306
604.399,314.189
605.853,319.297
607.307,319.745
608.761,321.763
610.215,318.409
611.67,326.315
613.124,320.35
614.578,317.679
616.032,317.18
617.487,328.895
618.941,314.15
620.395,325.566
621.849,329.483
623.303,325.812
624.758,332.26
626.212,338.178
627.666,333.342
629.12,324.291
630.575,332.547
632.029,343.128
633.483,341.095
634.937,317.015
636.391,323.025
637.846,326.855
639.3,329.257
640.754,327.471
642.208,328.866
643.662,341.203
645.117,339.086
646.571,334.846
648.025,331.898
649.479,333.485
650.934,332.843
652.388,342.652
653.842,353.645
655.296,350.776
656.75,345.83
658.205,346.564
659.659,351.547
661.113,352.071
662.567,335.39
664.022,323.05
665.476,350.19
666.93,343.256
668.384,331.419
669.838,333.751
671.293,354.214
672.747,348.956
674.201,346.527
675.655,346.301
677.109,334.333
678.564,336.911
680.018,352.632
681.472,351.761
682.926,343.438
684.381,340.377
685.835,341.751
687.289,349.185
688.743,355.085
690.198,372.103
691.652,357.906
693.106,341.334
694.56,349.976
696.014,353.239
697.469,354.093
698.923,349.079
700.377,355.164
701.831,350.415
703.285,352.789
704.74,361.528
706.194,354.044
707.648,345.752
709.102,353.558
710.557,343.133
712.011,363.458
713.465,354.643
714.919,345.53
716.373,349.019
717.828,361.337
719.282,354.833
720.736,340.671
722.19,354.636
723.645,356.59
725.099,343.64
726.553,337.985
728.007,345.867
729.461,349.236
730.916,361.651
732.37,362.88
733.824,366.451
735.278,362.23
736.732,349.122
738.187,358.186
739.641,378.452
741.095,366.777
742.549,368.199
744.004,365.786
745.458,365.717
746.912,363.707
748.366,365.338
749.82,360.759
751.275,371.242
752.729,363.173
754.183,366.519
755.637,376.648
757.092,377.954
758.546,376.494
760,380.784
761.454,376.193
762.908,367.672
764.363,367.798
765.817,384.512
767.271,393.728
768.725,365.055
770.18,358.504
771.634,363.169
773.088,366.177
774.542,370.047
775.996,370.347
777.451,367.041
778.905,377.13
780.359,376.651
781.813,364.289
783.268,360.59
784.722,364.881
786.176,366.826
787.63,360.63
789.084,355.556
790.539,359.283
791.993,363.455
793.447,362.54
794.901,366.562
796.355,378.693
797.81,377.208
799.264,368.045
800.718,374.474
802.172,377.44
803.627,362.819
805.081,364.266
806.535,367.032
807.989,357.684
809.443,375.205
810.898,376.182
812.352,372.488
813.806,380.251
815.26,377.569
816.715,372.093
818.169,374.27
819.623,365.178
821.077,367.146
822.531,383.071
823.986,386.022
825.44,391.966
826.894,393.852
828.348,395.218
829.802,386.788
831.257,399.202
832.711,408.365
834.165,398.103
835.619,398.636
837.074,396.982
838.528,393.369
839.982,409.223
841.436,409.922
842.891,404.501
844.345,409.13
845.799,417.193
847.253,413.442
848.707,406.888
850.162,400.732
851.616,407.389
853.07,400.119
854.524,406.751
855.978,404.867
857.433,407.789
858.887,410.618
860.341,401.108
861.795,403.8
863.25,398.931
864.704,397.891
866.158,388.59
867.612,385.658
869.066,386.878
870.521,396.476
871.975,397.774
873.429,411.667
874.883,403.932
876.338,401.726
877.792,407.37
879.246,408.117
880.7,409.377
882.154,408.136
883.609,417.174
885.063,426.527
886.517,413.645
887.971,413.351
889.425,406.983
890.88,409.789
892.334,417.332
893.788,409.192
895.242,412.498
896.697,405.553
898.151,417.796
899.605,421.026
901.059,420.988
902.513,426.428
903.968,417.123
905.422,429.389
906.876,434.52
908.33,427.718
909.785,431.125
911.239,440.539
912.693,443.742
914.147,437.596
915.601,438.391
917.056,432.907
918.51,450.473
919.964,449.731
921.418,445.804
922.873,453.217
924.327,454.452
925.781,449.022
927.235,451.924
928.689,442.836
930.144,441.849
931.598,453.369
933.052,469.343
934.506,471.89
935.961,464.286
937.415,487.264
938.869,484.546
940.323,486.808
941.777,480.966
943.232,461.492
944.686,454.068
946.14,460.055
947.594,470.402
949.048,460.381
950.503,476.54
951.957,464.285
953.411,461.981
954.865,458.839
956.32,457.013
957.774,461.53
959.228,455.315
960.682,434.282
962.136,441.003
963.591,437.492
965.045,436.332
966.499,442.66
967.953,440.409
969.408,434.782
970.862,443.199
972.316,442.023
973.77,429.727
975.224,440.016
976.679,436.049
978.133,449.602
979.587,455.76
981.041,458.929
982.495,452.352
983.95,434.925
985.404,452.328
986.858,439.869
988.312,441.37
989.767,440.237
991.221,449.016
992.675,460.555
994.129,453.287
995.583,429.123
997.038,437.419
998.492,467.539
999.946,451.906
1001.4,448.922
1002.85,453.73
1004.31,474.171
1005.76,476.008
1007.22,463.615
1008.67,469.86
1010.13,467.744
1011.58,458.595
1013.03,462.9
1014.49,471.437
1015.94,476.308
1017.4,469.619
1018.85,473.266
1020.31,482.583
1021.76,492.454
1023.21,508.382
1024.67,504.908
1026.12,491.456
1027.58,502.964
1029.03,528.497
1030.48,512.076
1031.94,499.015
1033.39,519.154
1034.85,529.022
1036.3,531.542
1037.76,530.481
1039.21,523.964
1040.66,531.114
1042.12,539.427
1043.57,552.816
1045.03,537.742
1046.48,541.886
1047.94,536.339
1049.39,562.87
1050.84,567.558
1052.3,563.53
1053.75,571.706
1055.21,575.57
1056.66,602.799
1058.11,595.223
1059.57,613.44
1061.02,614.047
1062.48,597.268
1063.93,601.603
1065.39,610.784
1066.84,627.784
1068.29,628.286
1069.75,623.393
1071.2,628.807
1072.66,644.232
1074.11,652.002
1075.57,658.922
1077.02,655.907
1078.47,641.058
1079.93,644.819
1081.38,663.511
1082.84,671.097
1084.29,656.182
1085.75,657.997
1087.2,660.772
1088.65,661.37
1090.11,665.506
1091.56,665.296
1093.02,659.21
1094.47,661.466
1095.92,651.532
1097.38,640.829
1098.83,638.758
1100.29,654.452
1101.74,659.682
1103.2,637.498
1104.65,627.623
1106.1,627.308
1107.56,628.209
1109.01,647.228
1110.47,646.649
1111.92,633.451
1113.38,621.247
1114.83,616.904
1116.28,621.697
1117.74,619.591
1119.19,617.445
1120.65,623.733
1122.1,616.261
1123.55,614.724
1125.01,600.69
1126.46,601.732
1127.92,604.737
1129.37,608.353
1130.83,610.567
1132.28,609.305
1133.73,605.738
1135.19,594.999
1136.64,593.178
1138.1,586.741
1139.55,587.239
1141.01,587.404
1142.46,588.79
1143.91,590.785
1145.37,589.984
1146.82,596.666
1148.28,593.901
1149.73,584.304
1151.18,572.39
1152.64,581.365
1154.09,596.319
1155.55,590.664
1157,578.876
1158.46,581.822
1159.91,584.124
1161.36,584.816
1162.82,574.305
1164.27,583.638
1165.73,572.396
1167.18,575.967
1168.64,575.343
1170.09,565.675
1171.54,581.601
1173,607.032
1174.45,597.545
1175.91,565.935
1177.36,585.786
1178.82,601.123
1180.27,595.54
1181.72,596.648
1183.18,599.184
1184.63,597.157
1186.09,595.773
1187.54,607.078
1188.99,590.967
1190.45,613.753
1191.9,608.842
1193.36,605.791
1194.81,599.411
1196.27,601.597
1197.72,609.36
1199.17,615.916
1200.63,606.14
1202.08,603.983
1203.54,611.366
1204.99,600.861
1206.45,603.345
1207.9,606.499
1209.35,616.417
1210.81,622.019
1212.26,615.382
1213.72,610.727
1215.17,605.802
1216.62,618.522
1218.08,638.012
1219.53,625.36
1220.99,633.073
1222.44,651.841
1223.9,641.864
1225.35,638.258
1226.8,638.113
1228.26,624.26
1229.71,647.816
1231.17,647.309
1232.62,634.863
1234.08,653.61
1235.53,658.327
1236.98,656.039
1238.44,655.483
1239.89,656.569
1241.35,654.845
1242.8,660.139
1244.25,667.151
1245.71,679.899
1247.16,663.248
1248.62,695.335
1250.07,696.376
1251.53,705.714
1252.98,704.132
1254.43,697.444
1255.89,707.905
1257.34,722.408
1258.8,700.517
1260.25,725.32
1261.71,735.865
1263.16,743.66
1264.61,745.113
1266.07,748.398
1267.52,772.241
1268.98,778.039
1270.43,779.744
1271.89,796.211
1273.34,813.115
1274.79,811.936
1276.25,810.046
1277.7,828.448
1279.16,880.628
1280.61,879.516
1282.06,897.591
1283.52,907.771
1284.97,914.643
1286.43,935.714
1287.88,975.854
1289.34,1010.61
1290.79,1008.54
1292.24,1034.85
1293.7,1060.17
1295.15,1092.4
1296.61,1115.93
1298.06,1145.12
1299.52,1206.54
1300.97,1245.86
1302.42,1278.07
1303.88,1342.04
1305.33,1398.96
1306.79,1424.4
1308.24,1539.45
1309.69,1544.04
1311.15,1607.83
1312.6,1675.49
1314.06,1762.64
1315.51,1814.45
1316.97,1860.03
1318.42,1944.83
1319.87,2034.91
1321.33,2102.17
1322.78,2176.33
1324.24,2219.47
1325.69,2285.12
1327.15,2291.76
1328.6,2307.92
1330.05,2316.67
1331.51,2351.58
1332.96,2377.33
1334.42,2368.13
1335.87,2329.22
1337.32,2281.19
1338.78,2257.23
1340.23,2183.34
1341.69,2131.66
1343.14,2054.74
1344.6,1997.71
1346.05,1915.76
1347.5,1866.47
1348.96,1799.26
1350.41,1707.55
1351.87,1634.62
1353.32,1593.1
1354.78,1525.46
1356.23,1459.22
1357.68,1400.69
1359.14,1370.67
1360.59,1298.22
1362.05,1286.41
1363.5,1232.59
1364.96,1182.25
1366.41,1153.91
1367.86,1134.69
1369.32,1111.18
1370.77,1091.17
1372.23,1079.47
1373.68,1062.04
1375.13,1041.28
1376.59,1025.29
1378.04,998.763
1379.5,987.702
1380.95,982.556
1382.41,975.802
1383.86,955.502
1385.31,934.928
1386.77,940.607
1388.22,948.007
1389.68,937.516
1391.13,910.721
1392.59,921.939
1394.04,908.638
1395.49,892.179
1396.95,895.952
1398.4,882.118
1399.86,876.394
1401.31,879.627
1402.76,871.694
1404.22,871.879
1405.67,864.51
1407.13,858.363
1408.58,867.149
1410.04,866.734
1411.49,894.47
1412.94,873.874
1414.4,896.145
1415.85,866.178
1417.31,869.336
1418.76,889.547
1420.22,876.594
1421.67,857.251
1423.12,879.56
1424.58,897.45
1426.03,876.261
1427.49,889.109
1428.94,910.328
1430.4,919.24
1431.85,927.507
1433.3,917.594
1434.76,907.074
1436.21,937.041
1437.67,944.122
1439.12,929.19
1440.57,933.208
1442.03,958.972
1443.48,969.923
1444.94,960.269
1446.39,959.595
1447.85,965.496
1449.3,968.907
1450.75,966.179
1452.21,975.75
1453.66,992.38
1455.12,991.334
1456.57,1020.67
1458.03,1042.97
1459.48,1043.43
1460.93,1055.61
1462.39,1040.24
1463.84,1059.32
1465.3,1056.39
1466.75,1100.78
1468.2,1082.99
1469.66,1132.79
1471.11,1130.95
1472.57,1150.43
1474.02,1174.85
1475.48,1198.51
1476.93,1210.9
1478.38,1212.23
1479.84,1229.66
1481.29,1260.95
1482.75,1302.64
1484.2,1308.28
1485.66,1322.95
1487.11,1286.45
1488.56,1359.75
1490.02,1379.94
1491.47,1437.86
1492.93,1445.58
1494.38,1497.02
1495.83,1528.84
1497.29,1567.27
1498.74,1598.95
1500.2,1628.52
1501.65,1683.55
1503.11,1748.15
1504.56,1828.59
1506.01,1878.23
1507.47,1972.8
1508.92,2058.95
1510.38,2091.78
1511.83,2197.51
1513.29,2281.46
1514.74,2410.91
1516.19,2558.45
1517.65,2685.27
1519.1,2842.14
1520.56,2996.3
1522.01,3182.12
1523.46,3429.58
1524.92,3646.41
1526.37,3906.87
1527.83,4224.3
1529.28,4576.15
1530.74,4918.02
1532.19,5371.87
1533.64,5766.92
1535.1,6267.04
1536.55,6823.27
1538.01,7365.05
1539.46,7964.26
1540.92,8637.09
1542.37,9335.71
1543.82,10028.4
1545.28,10788.4
1546.73,11558
1548.19,12395.4
1549.64,13303.4
1551.1,14181.6
1552.55,15100.8
1554,16163
1555.46,17132.2
1556.91,17960.8
1558.37,18733.8
1559.82,19390.2
1561.27,19727.8
1562.73,19722.5
1564.18,19461.9
1565.64,19033.1
1567.09,18331.6
1568.55,17521.1
1570,16628
1571.45,15635.1
1572.91,14606.2
1574.36,13657.1
1575.82,12488.2
1577.27,11597.4
1578.73,10615.2
1580.18,9645.1
1581.63,8877.16
1583.09,8112.62
1584.54,7462.03
1586,6858.73
1587.45,6316.37
1588.9,5889.25
1590.36,5484.52
1591.81,5102.85
1593.27,4856.98
1594.72,4495.22
1596.18,4260.92
1597.63,4081.29
1599.08,3820.53
1600.54,3627.13
1601.99,3467.28
1603.45,3280.19
1604.9,3111.22
1606.36,2993.31
1607.81,2872.48
1609.26,2686.16
1610.72,2559.01
1612.17,2473.82
1613.63,2359.01
1615.08,2209.89
1616.54,2113.73
1617.99,2001.72
1619.44,1942.8
1620.9,1844.07
1622.35,1780.41
1623.81,1747.94
1625.26,1694.8
1626.71,1622.51
1628.17,1595.99
1629.62,1532.76
1631.08,1490
1632.53,1455.02
1633.99,1415.03
1635.44,1391.82
1636.89,1362.79
1638.35,1325.4
1639.8,1300.38
1641.26,1275.62
1642.71,1245.36
1644.17,1217.71
1645.62,1222.32
1647.07,1178.41
1648.53,1181.52
1649.98,1142.07
1651.44,1129.86
1652.89,1119.75
1654.34,1104.61
1655.8,1060.76
1657.25,1063.87
1658.71,1068.11
1660.16,1068.86
1661.62,1037.15
1663.07,1025.91
1664.52,1016.98
1665.98,985.789
1667.43,961.649
1668.89,954.59
1670.34,956.466
1671.8,948.133
1673.25,957.593
1674.7,920.056
1676.16,895.782
1677.61,914.984
1679.07,908.497
1680.52,885.654
1681.97,899.949
1683.43,893.106
1684.88,888.894
1686.34,902.937
1687.79,883.267
1689.25,889.458
1690.7,901.958
1692.15,904.241
1693.61,892.883
1695.06,905.227
1696.52,900.809
1697.97,902.966
1699.43,912.827
1700.88,921.131
1702.33,912.241
1703.79,936.544
1705.24,884.105
1706.7,911.003
1708.15,897.695
1709.6,873.814
1711.06,865.955
1712.51,866.267
1713.97,851.735
1715.42,854.293
1716.88,849.415
1718.33,845.485
1719.78,842.505
1721.24,833.734
1722.69,833.578
1724.15,831.925
1725.6,816.659
1727.06,804.203
1728.51,805.293
1729.96,799.155
1731.42,780.953
1732.87,799.622
1734.33,823.361
1735.78,805.708
1737.24,791.548
1738.69,822.657
1740.14,820.596
1741.6,810.157
1743.05,780.071
1744.51,785.261
1745.96,794.706
1747.41,786.402
1748.87,768.015
1750.32,762.855
1751.78,772.138
1753.23,756.405
1754.69,736.761
1756.14,732.208
1757.59,737.825
1759.05,732.638
1760.5,733.929
1761.96,733.932
1763.41,728.486
1764.87,712.239
1766.32,716.687
1767.77,720.454
1769.23,713.199
1770.68,689.541
1772.14,685.333
1773.59,707.789
1775.04,666.369
1776.5,677.828
1777.95,665.826
1779.41,685.086
1780.86,643.407
1782.32,663.333
1783.77,673.794
1785.22,684.051
1786.68,656.658
1788.13,646.011
1789.59,662.366
1791.04,676.693
1792.5,673.983
1793.95,649.088
1795.4,630.442
1796.86,633.028
1798.31,634.907
1799.77,626.279
1801.22,640.488
1802.68,646.213
1804.13,638.435
1805.58,638.412
1807.04,652.817
1808.49,645.869
1809.95,618.96
1811.4,640.958
1812.85,643.407
1814.31,655.717
1815.76,639.654
1817.22,640.214
1818.67,621.752
1820.13,635.875
1821.58,655.371
1823.03,648.151
1824.49,639.355
1825.94,643.645
1827.4,625.731
1828.85,629.447
1830.31,630.839
1831.76,664.276
1833.21,654.72
1834.67,646.334
1836.12,644.955
1837.58,651.488
1839.03,663.323
1840.48,668.972
1841.94,665.12
1843.39,654.254
1844.85,666.104
1846.3,675.475
1847.76,694.251
1849.21,675.051
1850.66,673.672
1852.12,669.728
1853.57,675.325
1855.03,702.091
1856.48,686.83
1857.94,668.229
1859.39,667.9
1860.84,682.829
1862.3,669.963
1863.75,688.328
1865.21,674.767
1866.66,690.2
1868.11,680.393
1869.57,671.226
1871.02,677.212
1872.48,681.654
1873.93,673.266
1875.39,671.914
1876.84,667.279
1878.29,659.363
1879.75,658.495
1881.2,646.919
1882.66,659.543
1884.11,664.373
1885.57,663.476
1887.02,662.237
1888.47,658.12
1889.93,646.641
1891.38,638.004
1892.84,637.219
1894.29,641.104
1895.75,631.843
1897.2,632.615
1898.65,630.794
1900.11,622.643
1901.56,622.414
1903.02,602.476
1904.47,616.215
1905.92,600.415
1907.38,604.83
1908.83,588.409
1910.29,617.306
1911.74,607.656
1913.2,606.333
1914.65,602.663
1916.1,598.186
1917.56,588.632
1919.01,607.521
1920.47,604.18
1921.92,602.008
1923.38,607.107
1924.83,599.236
1926.28,606.674
1927.74,602.869
1929.19,606.427
1930.65,602.906
1932.1,600.71
1933.55,598.064
1935.01,603.512
1936.46,590.623
1937.92,599.982
1939.37,604.05
1940.83,609.419
1942.28,616.648
1943.73,624.813
1945.19,618.633
1946.64,595.005
1948.1,586.261
1949.55,600.323
1951.01,607.058
1952.46,599.142
1953.91,592.261
1955.37,602.08
1956.82,610.058
1958.28,612.447
1959.73,607.602
1961.18,613.368
1962.64,624.873
1964.09,634.108
1965.55,619.16
1967,617.383
1968.46,625.103
1969.91,619.161
1971.36,622.815
1972.82,636.729
1974.27,629.642
1975.73,631.369
1977.18,620.97
1978.64,619.34
1980.09,624.597
1981.54,631.386
1983,629.159
1984.45,636.538
1985.91,638.687
1987.36,661.862
1988.82,649.038
1990.27,644.105
1991.72,628.504
1993.18,619.553
1994.63,630.361
1996.09,615.653
1997.54,626.181
1998.99,643.368
2000.45,623.323
2001.9,615.388
2003.36,629.761
2004.81,623.275
2006.27,629.076
2007.72,635.293
2009.17,634.475
2010.63,621.499
2012.08,621.93
2013.54,607.15
2014.99,611.754
2016.45,610.157
2017.9,624.191
2019.35,606.605
2020.81,609.025
2022.26,608.191
2023.72,624.937
2025.17,607.676
2026.62,604.144
2028.08,602.379
2029.53,607.392
2030.99,609.958
2032.44,599.981
2033.9,594.557
2035.35,582.911
2036.8,595.126
2038.26,586.469
2039.71,583.029
2041.17,582.044
2042.62,574.12
2044.08,570.668
2045.53,562.763
2046.98,573.303
2048.44,539.665
2049.89,535.166
2051.35,536.47
2052.8,548.434
2054.25,543.495
2055.71,545.098
2057.16,555.026
2058.62,563.501
2060.07,559.422
2061.53,536.499
2062.98,544.443
2064.43,537.488
2065.89,542.04
2067.34,529.839
2068.8,528.598
2070.25,526.101
2071.71,537.979
2073.16,542.721
2074.61,534.652
2076.07,540.698
2077.52,540.218
2078.98,527.547
2080.43,533.285
2081.89,542.072
2083.34,541.073
2084.79,540.409
2086.25,546.339
2087.7,543.338
2089.16,544.16
2090.61,540.675
2092.06,540.969
2093.52,546.282
2094.97,544.612
2096.43,534.326
2097.88,534.97
2099.34,540.236
2100.79,542.474
2102.24,547.001
2103.7,554.505
2105.15,545.994
2106.61,529.945
2108.06,518.993
2109.52,527.125
2110.97,529.137
2112.42,512.135
2113.88,522.583
2115.33,542.977
2116.79,546.07
2118.24,546.384
2119.69,554.298
2121.15,544.483
2122.6,538.581
2124.06,527.149
2125.51,533.261
2126.97,542.643
2128.42,537.881
2129.87,535.462
2131.33,531.645
2132.78,539.039
2134.24,544.893
2135.69,539.714
2137.15,556.621
2138.6,554.239
2140.05,561.331
2141.51,558.239
2142.96,560.158
2144.42,560.656
2145.87,558.735
2147.32,559.083
2148.78,566.406
2150.23,561.527
2151.69,560.278
2153.14,570.325
2154.6,566.22
2156.05,562.153
2157.5,560.516
2158.96,574.823
2160.41,569.213
2161.87,566.073
2163.32,558.742
2164.78,559.716
2166.23,567.595
2167.68,558.619
2169.14,566.942
2170.59,567.828
2172.05,573.33
2173.5,578.034
2174.96,587.544
2176.41,584.801
2177.86,584.158
2179.32,574.302
2180.77,585.816
2182.23,584.202
2183.68,593.527
2185.13,585.366
2186.59,570.576
2188.04,586.565
2189.5,591.65
2190.95,587.248
2192.41,598.691
2193.86,594.139
2195.31,608.126
2196.77,603.597
2198.22,597.896
2199.68,619.015
2201.13,613.787
2202.59,591.684
2204.04,619.448
2205.49,596.441
2206.95,587.404
2208.4,622.514
2209.86,623.245
2211.31,610.194
2212.76,633.727
2214.22,609.907
2215.67,601.563
2217.13,574.586
2218.58,604.13
2220.04,605.518
2221.49,592.459
2222.94,593.398
2224.4,598.85
2225.85,596.08
2227.31,612.177
2228.76,615.653
2230.22,580.403
2231.67,596.911
2233.12,615.318
2234.58,626.415
2236.03,641.231
2237.49,622.484
2238.94,632.521
2240.4,626.698
2241.85,627.461
2243.3,626.306
2244.76,634.702
2246.21,629.239
2247.67,632.019
2249.12,626.322
2250.57,629.854
2252.03,644.241
2253.48,635.181
2254.94,623.296
2256.39,635.551
2257.85,646.046
2259.3,653.56
2260.75,642.627
2262.21,640.932
2263.66,638.719
2265.12,642.734
2266.57,655.302
2268.03,632.635
2269.48,629.404
2270.93,636.09
2272.39,646.13
2273.84,666.188
2275.3,668.649
2276.75,658.223
2278.2,665.932
2279.66,656.101
2281.11,658.536
2282.57,653.066
2284.02,647.175
2285.48,664.097
2286.93,697.896
2288.38,669.053
2289.84,683.139
2291.29,690.641
2292.75,685.329
2294.2,694.526
2295.66,701.972
2297.11,712.741
2298.56,696.494
2300.02,697.497
2301.47,708.997
2302.93,695.51
2304.38,693.515
2305.83,704.405
2307.29,714.313
2308.74,722.742
2310.2,712.635
2311.65,732.359
2313.11,725.927
2314.56,712.992
2316.01,714.328
2317.47,722.905
2318.92,737.052
2320.38,735.015
2321.83,736.012
2323.29,736.44
2324.74,769.239
2326.19,757.703
2327.65,778.44
2329.1,774.058
2330.56,774.881
2332.01,759.289
2333.47,776.697
2334.92,786.091
2336.37,772.82
2337.83,794.765
2339.28,782.896
2340.74,800.193
2342.19,790.673
2343.64,774.429
2345.1,793.675
2346.55,809.423
2348.01,795.522
2349.46,841.296
2350.92,819.143
2352.37,834.497
2353.82,834.06
2355.28,830.108
2356.73,845.611
2358.19,871.805
2359.64,861.455
2361.1,866.111
2362.55,884.705
2364,899.296
2365.46,904.909
2366.91,925.394
2368.37,925.186
2369.82,942.869
2371.27,970.479
2372.73,981.237
2374.18,1001.11
2375.64,1002.42
2377.09,1012.12
2378.55,1016.09
2380,1054.39
2381.45,1055.48
2382.91,1079.42
2384.36,1112.46
2385.82,1133.63
2387.27,1140.74
2388.73,1152.92
2390.18,1146.96
2391.63,1187.65
2393.09,1201.99
2394.54,1222.16
2396,1247.71
2397.45,1289.79
2398.9,1280.14
2400.36,1298.88
2401.81,1334.73
2403.27,1383.94
2404.72,1401.04
2406.18,1415.59
2407.63,1444.13
2409.08,1469.36
2410.54,1465.98
2411.99,1485.87
2413.45,1462.74
2414.9,1477.48
2416.36,1497.37
2417.81,1542.65
2419.26,1517.26
2420.72,1537.29
2422.17,1537.82
2423.63,1582.82
2425.08,1561.16
2426.53,1539.75
2427.99,1542.29
2429.44,1564.1
2430.9,1547.42
2432.35,1549.84
2433.81,1527.73
2435.26,1532.32
2436.71,1536.78
2438.17,1522.55
2439.62,1511.13
2441.08,1491.32
2442.53,1484.26
2443.99,1494.13
2445.44,1495.4
2446.89,1499.06
2448.35,1486.71
2449.8,1470.16
2451.26,1459.24
2452.71,1442.37
2454.17,1427.06
2455.62,1447.12
2457.07,1394.33
2458.53,1384.22
2459.98,1403.35
2461.44,1406.81
2462.89,1401.7
2464.34,1388.23
2465.8,1372.31
2467.25,1355.11
2468.71,1373.2
2470.16,1372.98
2471.62,1348.56
2473.07,1358.31
2474.52,1345.85
2475.98,1329.2
2477.43,1335.28
2478.89,1359.79
2480.34,1331.37
2481.8,1355.46
2483.25,1347.57
2484.7,1322.6
2486.16,1334.55
2487.61,1344.91
2489.07,1342.46
2490.52,1338.1
2491.97,1316.94
2493.43,1336.92
2494.88,1343.04
2496.34,1362.48
2497.79,1379.43
2499.25,1374.45
2500.7,1363.31
2502.15,1351.32
2503.61,1390.68
2505.06,1389.31
2506.52,1390.06
2507.97,1415.81
2509.43,1404.39
2510.88,1385.4
2512.33,1421.64
2513.79,1448.27
2515.24,1458.49
2516.7,1452.65
2518.15,1456.05
2519.6,1460.63
2521.06,1477.45
2522.51,1517.21
2523.97,1507.42
2525.42,1526.28
2526.88,1512.66
2528.33,1526.44
2529.78,1541.18
2531.24,1549.84
2532.69,1555.49
2534.15,1594.47
2535.6,1623.02
2537.06,1627.6
2538.51,1646.39
2539.96,1660.61
2541.42,1683.78
2542.87,1695.66
2544.33,1748.27
2545.78,1751.11
2547.24,1769.97
2548.69,1819.86
2550.14,1847.56
2551.6,1871.02
2553.05,1924.34
2554.51,1933.22
2555.96,1966.94
2557.41,2023.74
2558.87,2056.26
2560.32,2068.24
2561.78,2110.52
2563.23,2157.97
2564.69,2195.3
2566.14,2272.95
2567.59,2293.49
2569.05,2373.78
2570.5,2402.67
2571.96,2447.66
2573.41,2509.89
2574.87,2561.71
2576.32,2635.16
2577.77,2714.89
2579.23,2759.48
2580.68,2844.62
2582.14,2923.96
2583.59,3010.64
2585.04,3103.03
2586.5,3192.3
2587.95,3271.97
2589.41,3423.55
2590.86,3491.15
2592.32,3636.75
2593.77,3758.54
2595.22,3876.27
2596.68,3964.43
2598.13,4129.19
2599.59,4298.4
2601.04,4444.47
2602.5,4606.79
2603.95,4768.26
2605.4,4954.29
2606.86,5196.9
2608.31,5391.4
2609.77,5538.39
2611.22,5782.4
2612.68,6057.58
2614.13,6255.91
2615.58,6514.49
2617.04,7184.59
2618.49,7127.5
2619.95,7330.43
2621.4,7656.06
2622.85,7955.88
2624.31,8248.96
2625.76,8512.53
2627.22,8858.92
2628.67,9141.17
2630.13,9505.64
2631.58,9860.56
2633.03,10201.7
2634.49,10502.7
2635.94,10875
2637.4,11236.5
2638.85,11460.1
2640.31,11733.8
2641.76,11978.7
2643.21,12287
2644.67,12613.8
2646.12,12826
2647.58,12990.3
2649.03,13109.6
2650.48,13281.7
2651.94,13356.7
2653.39,13544.2
2654.85,13582.1
2656.3,13566.2
2657.76,13584.3
2659.21,13577.2
2660.66,13534.4
2662.12,13355.5
2663.57,13276.6
2665.03,13103.8
2666.48,12887.9
2667.94,12652.9
2669.39,12501
2670.84,12201.5
2672.3,11836.2
2673.75,11600
2675.21,11294.1
2676.66,10980.7
2678.11,10648.7
2679.57,10340.5
2681.02,9975.33
2682.48,9694.11
2683.93,9332.08
2685.39,9034.41
2686.84,8679.87
2688.29,8398.06
2689.75,8048.56
2691.2,7752.29
2692.66,7450.76
2694.11,7134.78
2695.57,6884.24
2697.02,6523.15
2698.47,6313.76
2699.93,6003.85
2701.38,5751.27
2702.84,5488.33
2704.29,5283.48
2705.75,5108.02
2707.2,4888.4
2708.65,4640.89
2710.11,4495.41
2711.56,4337.52
2713.02,4081.09
2714.47,3942.86
2715.92,3783.23
2717.38,3724.42
2718.83,3557.95
2720.29,3425.06
2721.74,3292.29
2723.2,3212.02
2724.65,3112.79
2726.1,2989.52
2727.56,2891.88
2729.01,2805.19
2730.47,2718.62
2731.92,2632.54
2733.38,2593.44
2734.83,2523.44
2736.28,2432.24
2737.74,2357.08
2739.19,2272.78
2740.65,2241.16
2742.1,2208.86
2743.55,2155.19
2745.01,2086.49
2746.46,2056.11
2747.92,1999.18
2749.37,1958.37
2750.83,1925.75
2752.28,1857.38
2753.73,1827.76
2755.19,1828.01
2756.64,1774.59
2758.1,1732.81
2759.55,1689.22
2761.01,1698.07
2762.46,1670.51
2763.91,1624.94
2765.37,1617.25
2766.82,1579.66
2768.28,1545.65
2769.73,1553.58
2771.18,1487.36
2772.64,1482
2774.09,1476.4
2775.55,1454.37
2777,1412.03
2778.46,1427.05
2779.91,1417.75
2781.36,1381.87
2782.82,1342.44
2784.27,1344.64
2785.73,1350.41
2787.18,1335.5
2788.64,1333.92
2790.09,1296.33
2791.54,1283.74
2793,1291.59
2794.45,1269.5
2795.91,1260.42
2797.36,1235.51
2798.82,1253.38
2800.27,1221.94
2801.72,1214.38
2803.18,1194.8
2804.63,1219.04
2806.09,1204.01
2807.54,1199.88
2808.99,1186.01
2810.45,1157.85
2811.9,1153.77
2813.36,1133.2
2814.81,1126.62
2816.27,1137.84
2817.72,1121.92
2819.17,1116.59
2820.63,1111.21
2822.08,1102.35
2823.54,1098.68
2824.99,1095.45
2826.45,1103.67
2827.9,1109.72
2829.35,1104.5
2830.81,1047.48
2832.26,1048.06
2833.72,1065.14
2835.17,1072.36
2836.62,1053.53
2838.08,1077.56
2839.53,1058.98
2840.99,1024.6
2842.44,1055.04
2843.9,1061.44
2845.35,1045.66
2846.8,1038.18
2848.26,1012.34
2849.71,1051.66
2851.17,1033.52
2852.62,1032.52
2854.08,1031.4
2855.53,1032.7
2856.98,1027.55
2858.44,999.72
2859.89,1007.45
2861.35,1042.68
2862.8,1018.52
2864.25,1004.9
2865.71,1005.79
2867.16,1041.89
2868.62,1019.69
2870.07,1001.58
2871.53,1015.21
2872.98,988.895
2874.43,1030.28
2875.89,1032.36
2877.34,1032.27
2878.8,1028.74
2880.25,1062.66
2881.71,1041.43
2883.16,1025.78
2884.61,1045.38
2886.07,1032.88
2887.52,1013.64
2888.98,1012.5
2890.43,1033.91
2891.89,1004.68
2893.34,1019.66
2894.79,1043.66
2896.25,1043.2
2897.7,1041.99
2899.16,1046.73
2900.61,1018.57
2902.06,1015.7
2903.52,1012
2904.97,1015.19
2906.43,1019.72
2907.88,1025.28
2909.34,1000.07
2910.79,1016.28
2912.24,987.331
2913.7,1001.05
2915.15,981.029
2916.61,956.511
2918.06,949.897
2919.52,976.744
2920.97,972.888
2922.42,969.292
2923.88,943.877
2925.33,928.938
2926.79,945.412
2928.24,924.786
2929.69,929.857
2931.15,929.916
2932.6,903.085
2934.06,883.623
2935.51,897.087
2936.97,910.21
2938.42,872.62
2939.87,881.243
2941.33,864.754
2942.78,889.369
2944.24,821.634
2945.69,859.245
2947.15,836.002
2948.6,844.314
2950.05,824.822
2951.51,809.72
2952.96,802.298
2954.42,784.289
2955.87,782.888
2957.32,782.918
2958.78,778.284
2960.23,773.302
2961.69,762.848
2963.14,765.806
2964.6,748.45
2966.05,757.525
2967.5,724.499
2968.96,725.517
2970.41,739.888
2971.87,724.301
2973.32,730.247
2974.78,728.063
2976.23,710.103
2977.68,711.169
2979.14,701.474
2980.59,679.139
2982.05,699.613
2983.5,709.721
2984.96,693.921
2986.41,685.861
2987.86,694.116
2989.32,668.825
2990.77,669.117
2992.23,659.15
2993.68,679.762
2995.13,672.283
2996.59,680.726
2998.04,672.226
2999.5,680.692
3000.95,672.033
3002.41,676.72
3003.86,672.186
3005.31,681.067
3006.77,655.787
3008.22,664.577
3009.68,663.454
3011.13,641.413
3012.59,636.264
3014.04,648.378
3015.49,654.032
3016.95,661.822
3018.4,654.972
3019.86,658.17
3021.31,644.601
3022.76,652.068
3024.22,640.937
3025.67,645.203
3027.13,649.111
3028.58,634.381
3030.04,640.564
3031.49,655.33
3032.94,645.554
3034.4,634.286
3035.85,632.854
3037.31,618.606
3038.76,638.435
3040.22,634.085
3041.67,641.486
3043.12,632.09
3044.58,630.889
3046.03,633.881
3047.49,635.791
3048.94,623.088
3050.4,649.525
3051.85,649.052
3053.3,635.941
3054.76,657.823
3056.21,647.137
3057.67,670.147
3059.12,657.725
3060.57,657.02
3062.03,669.22
3063.48,642.597
3064.94,663.841
3066.39,661.237
3067.85,668.502
3069.3,678.393
3070.75,661.071
3072.21,686.42
3073.66,688.527
3075.12,710.912
3076.57,713.897
3078.03,693.964
3079.48,710.834
3080.93,709.261
3082.39,698.813
3083.84,718.76
3085.3,742.326
3086.75,735.165
3088.2,742.133
3089.66,751.215
3091.11,743.957
3092.57,747.842
3094.02,771.596
3095.48,771.982
3096.93,817.527
3098.38,829.915
3099.84,824.822
3101.29,817.912
3102.75,847.857
3104.2,836.507
3105.66,859.631
3107.11,904.026
3108.56,858.052
3110.02,904.894
3111.47,907.83
3112.93,901.958
3114.38,924.2
3115.83,933.683
3117.29,961.953
3118.74,970.961
3120.2,993.536
3121.65,996.776
3123.11,995.961
3124.56,1006.53
3126.01,1041
3127.47,1042.84
3128.92,1059.83
3130.38,1035.55
3131.83,1049.72
3133.29,1053.89
3134.74,1070.64
3136.19,1068.74
3137.65,1057.25
3139.1,1063.1
3140.56,1093.72
3142.01,1085.5
3143.47,1083.82
3144.92,1077.86
3146.37,1066.05
3147.83,1063.97
3149.28,1051.68
3150.74,1087.56
3152.19,1075.63
3153.64,1072
3155.1,1060.34
3156.55,1069.03
3158.01,1106.5
3159.46,1117.59
3160.92,1081.14
3162.37,1103.11
3163.82,1117.04
3165.28,1114.03
3166.73,1130.82
3168.19,1122.42
3169.64,1172.35
3171.1,1144.29
3172.55,1179.48
3174,1178.84
3175.46,1192.97
3176.91,1196.96
3178.37,1212.3
3179.82,1238.22
3181.27,1225.81
3182.73,1248.05
3184.18,1254.03
3185.64,1247.72
3187.09,1264.59
3188.55,1268.67
3190,1285.55
3191.45,1324.89
3192.91,1308.41
3194.36,1350.63
3195.82,1359.41
3197.27,1341.86
3198.73,1294.2
3200.18,1318.81
3201.63,1309.43
3203.09,1306.96
3204.54,1302.75
3206,1265.48
3207.45,1274.35
3208.9,1205.79
3210.36,1218.09
3211.81,1203.55
3213.27,1209.69
3214.72,1169.36
3216.18,1136.58
3217.63,1128.41
3219.08,1090.73
3220.54,1074.69
3221.99,1038.68
3223.45,1001.7
3224.9,977.567
3226.36,939.28
3227.81,938.013
3229.26,932.348
3230.72,886.44
3232.17,859.839
3233.63,850.349
3235.08,842.942
3236.53,804.322
3237.99,786.098
3239.44,754.425
3240.9,750.985
3242.35,745.41
3243.81,716.218
3245.26,685.178
3246.71,673.844
3248.17,665.462
3249.62,665.573
3251.08,642.888
3252.53,637.873
3253.99,658.325
3255.44,620.034
3256.89,623.111
3258.35,620.049
3259.8,614.309
3261.26,596.449
3262.71,602.06
3264.17,584.135
3265.62,596.421
3267.07,567.908
3268.53,584.303
3269.98,577.754
3271.44,552.248
3272.89,555.782
3274.34,575.603
3275.8,555.215
3277.25,559.177
3278.71,547.142
3280.16,547.896
3281.62,549.401
3283.07,548.352
3284.52,545.561
3285.98,545.516
3287.43,532.803
3288.89,530.419
3290.34,519.009
3291.8,537.968
3293.25,518.9
3294.7,535.792
3296.16,544.535
3297.61,521.78
3299.07,529.284
3300.52,513.376
3301.97,542.678
3303.43,537.527
3304.88,533.284
3306.34,519.526
3307.79,528.666
3309.25,503.213
3310.7,517.825
3312.15,530.687
3313.61,512.283
3315.06,490.78
3316.52,514.604
3317.97,534.232
3319.43,524.042
3320.88,529.665
3322.33,506.624
3323.79,516.927
3325.24,504.043
3326.7,520.269
3328.15,511.556
3329.6,520.267
3331.06,519.016
3332.51,512.365
3333.97,519.444
3335.42,513.993
3336.88,516.779
3338.33,504.595
3339.78,516.099
3341.24,498.908
3342.69,510.684
3344.15,515.349
3345.6,502.134
3347.06,505.713
3348.51,506.486
3349.96,505.417
3351.42,504.236
3352.87,508.122
3354.33,512.39
3355.78,506.267
3357.24,499.325
3358.69,497.392
3360.14,497.671
3361.6,508.703
3363.05,510.095
3364.51,528.017
3365.96,526.154
3367.41,504.169
3368.87,502.88
3370.32,489.548
3371.78,500.959
3373.23,496.966
3374.69,497.573
3376.14,515.536
3377.59,484.776
3379.05,502.805
3380.5,489.011
3381.96,496.767
3383.41,506.659
3384.87,504.659
3386.32,519.136
3387.77,496.711
3389.23,484.915
3390.68,489.067
3392.14,505.388
3393.59,512.514
3395.04,488.202
3396.5,500.838
3397.95,505.902
3399.41,512.174
3400.86,502.694
3402.32,517.004
3403.77,508.153
3405.22,495.873
3406.68,498.534
3408.13,485.947
3409.59,508.972
3411.04,505.97
3412.5,504.788
3413.95,501.67
3415.4,503.793
3416.86,488.791
3418.31,490.363
3419.77,499.43
3421.22,511.912
3422.68,503.471
3424.13,492.986
3425.58,509.279
3427.04,498.301
3428.49,491.39
3429.95,480.66
3431.4,487.711
3432.85,482.615
3434.31,500.934
3435.76,490.741
3437.22,500.498
3438.67,499.56
3440.13,486.054
3441.58,508.209
3443.03,492.649
3444.49,487.314
3445.94,501.258
3447.4,482.851
3448.85,492.005
3450.31,498.244
3451.76,486.736
3453.21,491.817
3454.67,519.807
3456.12,484.056
3457.58,501.603
3459.03,495.684
3460.48,509.515
3461.94,499.443
3463.39,508.079
3464.85,502.727
3466.3,503.961
3467.76,499.27
3469.21,493.01
3470.66,486.215
3472.12,488.946
3473.57,500.585
3475.03,497.727
3476.48,498.915
3477.94,522.211
3479.39,515.231
3480.84,508.965
3482.3,486.501
3483.75,485.589
3485.21,497.912
3486.66,500.915
3488.11,491.6
3489.57,506.562
3491.02,508.927
3492.48,504.892
3493.93,493.227
3495.39,520.57
3496.84,501.624
3498.29,498.748
3499.75,490.329
3501.2,521.305
3502.66,506.145
3504.11,483.952
3505.57,487.836
3507.02,483.192
3508.47,535.202
3509.93,505.93
3511.38,517.072
3512.84,516.455
3514.29,494.891
3515.75,535.25
3517.2,530.997
3518.65,508.549
3520.11,507.38
3521.56,500.679
3523.02,506.336
3524.47,488.53
3525.92,499.612
3527.38,511.085
3528.83,498.43
3530.29,508.829
3531.74,500.043
3533.2,517.482
3534.65,499.915
3536.1,498.725
3537.56,508.825
3539.01,510.3
3540.47,508.646
3541.92,524.769
3543.38,517.926
3544.83,540.997
3546.28,504.357
3547.74,503.063
3549.19,521.155
3550.65,507.714
3552.1,509.52
3553.55,521.831
3555.01,519.914
3556.46,530.166
3557.92,523.6
3559.37,516.443
3560.83,508.392
3562.28,516.409
3563.73,513.56
3565.19,527.821
3566.64,507.951
3568.1,507.847
3569.55,507.917
3571.01,513.781
3572.46,503.832
3573.91,510.691
3575.37,503.628
3576.82,511.716
3578.28,526.293
3579.73,503.661
3581.18,511.84
3582.64,517.028
3584.09,489.172
3585.55,507.536
3587,514.726
3588.46,511.657
3589.91,524.93
3591.36,518.614
3592.82,498.516
3594.27,523.889
3595.73,501.891
3597.18,517.672
3598.64,525.562
3600.09,521.618
3601.54,508.124
3603,526.303
3604.45,511.616
3605.91,519.76
3607.36,516.929
3608.82,527.445
3610.27,516.733
3611.72,527.568
3613.18,521.404
3614.63,525.267
3616.09,529.755
3617.54,503.344
3618.99,502.88
3620.45,515.716
3621.9,499.276
3623.36,501.559
3624.81,513.482
3626.27,499.538
3627.72,508.871
3629.17,508.113
3630.63,519.92
3632.08,540.522
3633.54,522.319
3634.99,527.729
3636.45,523.407
3637.9,511.178
3639.35,529.492
3640.81,530.883
3642.26,517.872
3643.72,523.854
3645.17,512.101
3646.62,510.569
3648.08,513.563
3649.53,518.435
3650.99,522.175
3652.44,502.55
3653.9,536.421
3655.35,526.472
3656.8,521.029
3658.26,518.994
3659.71,510.483
3661.17,542.81
3662.62,524.477
3664.08,536.164
3665.53,522.855
3666.98,510.73
3668.44,523.517
3669.89,528.332
3671.35,548.226
3672.8,514.89
3674.25,530
3675.71,525.665
3677.16,524.401
3678.62,535.663
3680.07,527.245
3681.53,520.593
3682.98,532.004
3684.43,547.808
3685.89,535.129
3687.34,537.11
3688.8,527.706
3690.25,530.635
3691.71,540.078
3693.16,546.693
3694.61,537.377
3696.07,546.606
3697.52,549.524
3698.98,535.876
3700.43,553.046
3701.89,535.46
3703.34,540.186
3704.79,533.004
3706.25,525.137
3707.7,530.355
3709.16,540.583
3710.61,525.296
3712.06,557.864
3713.52,544.705
3714.97,543.38
3716.43,536.775
3717.88,530.834
3719.34,542.811
3720.79,548.357
3722.24,535.636
3723.7,552.316
3725.15,553.075
3726.61,539.199
3728.06,538.89
3729.52,530.258
3730.97,554.406
3732.42,528.853
3733.88,545.499
3735.33,543.395
3736.79,535.788
3738.24,541.247
3739.69,563.218
3741.15,543.802
3742.6,564.109
3744.06,537.313
3745.51,539.908
3746.97,531.845
3748.42,541.482
3749.87,558.475
3751.33,544.037
3752.78,548.939
3754.24,531.149
3755.69,549.116
3757.15,548.434
3758.6,564.97
3760.05,560.862
3761.51,583.377
3762.96,563.152
3764.42,557.997
3765.87,547.959
3767.32,585.266
3768.78,559.508
3770.23,560.273
3771.69,571.414
3773.14,558.743
3774.6,571.368
3776.05,558.392
3777.5,571.016
3778.96,553.258
3780.41,562.056
3781.87,557.452
3783.32,562.578
3784.78,558.073
3786.23,566.082
3787.68,577.88
3789.14,582.608
3790.59,576.168
3792.05,583.519
3793.5,575.922
3794.96,566.913
3796.41,554.123
3797.86,568.337
3799.32,570.968
3800.77,570.984
3802.23,590.126
3803.68,565.044
3805.13,577.275
3806.59,588.938
3808.04,601.763
3809.5,567.656
3810.95,579.152
3812.41,581.464
3813.86,580.77
3815.31,572.623
3816.77,580.394
3818.22,585.467
3819.68,583.183
3821.13,571.607
3822.59,581.253
3824.04,585.116
3825.49,575.13
3826.95,579.932
3828.4,579.065
3829.86,580.982
3831.31,592.969
3832.76,572.412
3834.22,593.622
3835.67,608.302
3837.13,590.499
3838.58,597.392
3840.04,606.468
3841.49,603.024
3842.94,579.055
3844.4,585.68
3845.85,600.163
3847.31,596.58
3848.76,587.372
3850.22,605.941
3851.67,596.406
3853.12,586.343
3854.58,604.415
3856.03,626.503
3857.49,620.443
3858.94,617.981
3860.4,611.861
3861.85,611.835
3863.3,620.912
3864.76,624.465
3866.21,611.525
3867.67,620.482
3869.12,598.993
3870.57,623.466
3872.03,640.537
3873.48,608.881
3874.94,612.34
3876.39,631.362
3877.85,617.217
3879.3,610.395
3880.75,631.127
3882.21,634.588
3883.66,625.8
3885.12,623.323
3886.57,624.883
3888.03,629.161
3889.48,621.337
3890.93,637.526
3892.39,638.322
3893.84,633.558
3895.3,659.87
3896.75,634.797
3898.2,649.763
3899.66,620.864
3901.11,636.179
3902.57,645.839
3904.02,633.188
3905.48,633.8
3906.93,655.883
3908.38,727.446
3909.84,690.243
3911.29,681.218
3912.75,659.656
3914.2,651.767
3915.66,671.996
3917.11,636.027
3918.56,657.297
3920.02,673.152
3921.47,663.63
3922.93,674.423
3924.38,665.939
3925.83,672.484
3927.29,674.13
3928.74,686.872
3930.2,711.101
3931.65,695.308
3933.11,693.205
3934.56,692.017
3936.01,683.438
3937.47,686.906
3938.92,687.058
3940.38,689.338
3941.83,702.13
3943.29,718.256
3944.74,711.169
3946.19,706.203
3947.65,708.237
3949.1,716.6
3950.56,731.03
3952.01,716.969
3953.47,703.732
3954.92,697.114
3956.37,719.812
3957.83,728.856
3959.28,735.406
3960.74,744.09
3962.19,713.641
3963.64,723.781
3965.1,753.647
3966.55,742.889
3968.01,727.65
3969.46,757.688
3970.92,762.529
3972.37,740.589
3973.82,741.06
3975.28,738.562
3976.73,754.01
3978.19,758.229
3979.64,766.488
3981.1,778.291
3982.55,757.977
3984,747.567
3985.46,770.025
3986.91,761.728
3988.37,755.812
3989.82,761.172
3991.27,756.22
3992.73,782.643
3994.18,787.885
3995.64,773.554
3997.09,759.022
3998.55,794.587
4000,773.873
