-50,-1.97314
-48.5458,-1.48902
-47.0916,-2.94139
-45.6373,-0.0366489
-44.1831,1.41571
-42.7289,1.89984
-41.2747,3.83633
-39.8205,2.86809
-38.3662,0.447473
-36.912,-1.00489
-35.4578,-2.94139
-34.0036,-4.39375
-32.5494,-3.90963
-31.0952,-2.94139
-29.6409,2.86809
-28.1867,8.67756
-26.7325,7.22519
-25.2783,4.80458
-23.8241,8.19344
-22.3698,15.4552
-20.9156,19.8124
-19.4614,22.233
-18.0072,29.0107
-16.553,28.5266
-15.0987,28.5266
-13.6445,30.9472
-12.1903,43.5344
-10.7361,79.3595
-9.28187,29.0107
-7.82765,29.0107
-6.37343,29.0107
-4.91921,29.0107
-3.46499,29.0107
-2.01077,29.0107
-0.556553,29.0107
0.897666,29.0107
2.35189,29.0107
3.8061,418.73
5.26032,85.6531
6.71454,75.9706
8.16876,75.9706
9.62298,69.1929
11.0772,59.9946
12.5314,54.1851
13.9856,53.2168
15.4399,45.955
16.8941,40.1455
18.3483,31.9155
19.8025,27.0742
21.2567,28.5266
22.711,20.2965
24.1652,18.3601
25.6194,15.4552
27.0736,14.9712
28.5278,14.0029
29.982,16.9076
31.4363,14.9712
32.8905,10.1299
34.3447,10.1299
35.7989,9.64581
37.2531,8.19344
38.7074,6.74107
40.1616,8.67756
41.6158,18.3601
43.07,26.5901
44.5242,44.5027
45.9785,77.423
47.4327,135.033
48.8869,248.318
50.3411,431.317
51.7953,623.029
53.2495,831.687
54.7038,1078.11
56.158,1270.3
57.6122,1440.71
59.0664,1575.3
60.5206,1645.02
61.9749,1700.68
63.4291,1754.91
64.8833,1791.7
66.3375,1844.95
67.7917,1871.58
69.246,1888.04
70.7002,1891.44
72.1544,1915.15
73.6086,1938.39
75.0628,1950.49
76.5171,1976.15
77.9713,2047.32
79.4255,2087.5
80.8797,2102.02
82.3339,2106.87
83.7882,2079.27
85.2424,2048.78
86.6966,1995.52
88.1508,1921.93
89.605,1834.79
91.0592,1768.94
92.5135,1700.68
93.9677,1594.18
95.4219,1516.72
96.8761,1538.99
98.3303,1493.48
99.7846,1445.55
101.239,1425.71
102.693,1414.08
104.147,1403.44
105.601,1340.99
107.056,1328.4
108.51,1325.98
109.964,1309.52
111.418,1318.23
112.873,1298.86
114.327,1283.85
115.781,1270.79
117.235,1225.28
118.689,1200.11
120.144,1176.38
121.598,1155.56
123.052,1149.27
124.506,1100.86
125.961,1071.33
127.415,1020.98
128.869,990.478
130.323,979.343
131.777,959.979
133.232,962.884
134.686,934.804
136.14,906.725
137.594,886.876
139.048,871.384
140.503,874.289
141.957,882.035
143.411,879.614
144.865,852.987
146.32,795.862
147.774,799.25
149.228,807.48
150.682,808.933
152.136,807.48
153.591,791.988
155.045,776.98
156.499,766.813
157.953,757.132
159.408,749.87
160.862,724.695
162.316,729.536
163.77,734.378
165.224,733.409
166.679,724.695
168.133,715.981
169.587,728.568
171.041,717.917
172.496,706.298
173.95,713.56
175.404,684.997
176.858,697.584
178.312,699.036
179.767,701.457
181.221,719.369
182.675,706.783
184.129,661.759
185.583,657.402
187.038,672.41
188.492,680.64
189.946,658.854
191.4,652.076
192.855,653.045
194.309,654.497
195.763,654.497
197.217,664.18
198.671,662.728
200.126,667.568
201.58,667.568
203.034,652.561
204.488,624.966
205.943,634.648
207.397,654.013
208.851,662.728
210.305,667.085
211.759,663.211
213.214,663.696
214.668,664.664
216.122,655.95
217.576,650.624
219.031,639.49
220.485,665.148
221.939,655.466
223.393,647.235
224.847,658.854
226.302,678.22
227.756,657.887
229.21,659.339
230.664,671.925
232.118,665.632
233.573,640.942
235.027,655.466
236.481,645.783
237.935,635.133
239.39,629.323
240.844,622.545
242.298,629.807
243.752,625.934
245.206,628.355
246.661,636.1
248.115,633.68
249.569,637.069
251.023,620.609
252.478,623.029
253.932,624.481
255.386,610.442
256.84,629.323
258.294,616.736
259.749,608.022
261.203,602.696
262.657,602.212
264.111,607.053
265.566,615.767
267.02,593.013
268.474,571.712
269.928,576.07
271.382,606.085
272.837,590.109
274.291,578.975
275.745,575.101
277.199,581.395
278.654,581.395
280.108,573.164
281.562,550.895
283.016,550.895
284.47,557.673
285.925,539.276
287.379,547.99
288.833,544.602
290.287,541.697
291.741,541.697
293.196,537.824
294.65,519.911
296.104,523.784
297.558,527.657
299.013,531.531
300.467,532.498
301.921,504.42
303.375,497.642
304.829,509.261
306.284,508.777
307.738,497.642
309.192,499.578
310.646,491.348
312.101,495.221
313.555,490.38
315.009,482.15
316.463,478.276
317.917,481.181
319.372,488.443
320.826,475.372
322.28,466.174
323.734,473.435
325.189,471.014
326.643,454.555
328.097,456.491
329.551,466.174
331.005,471.014
332.46,471.983
333.914,466.657
335.368,468.11
336.822,467.626
338.276,463.753
339.731,464.237
341.185,455.039
342.639,471.499
344.093,486.507
345.548,474.404
347.002,444.388
348.456,479.245
349.91,456.007
351.364,446.808
352.819,443.903
354.273,447.293
355.727,459.88
357.181,456.491
358.636,451.65
360.09,462.785
361.544,462.3
362.998,433.253
364.452,434.706
365.907,445.841
367.361,433.737
368.815,440.031
370.269,458.428
371.724,456.491
373.178,438.094
374.632,441.967
376.086,439.546
377.54,436.158
378.995,439.063
380.449,446.808
381.903,425.023
383.357,404.206
384.811,416.793
386.266,446.808
387.72,444.872
389.174,444.872
390.628,439.546
392.083,438.094
393.537,447.293
394.991,462.785
396.445,438.094
397.899,427.444
399.354,433.253
400.808,440.031
402.262,436.158
403.716,414.856
405.171,425.991
406.625,444.388
408.079,442.936
409.533,432.769
410.987,435.674
412.442,442.936
413.896,442.936
415.35,436.158
416.804,429.865
418.259,428.412
419.713,436.158
421.167,432.769
422.621,434.706
424.075,429.865
425.53,425.023
426.984,425.508
428.438,433.737
429.892,440.999
431.346,437.126
432.801,441.484
434.255,446.324
435.709,440.515
437.163,434.222
438.618,425.991
440.072,419.698
441.526,418.246
442.98,424.055
444.434,437.61
445.889,417.761
447.343,411.952
448.797,424.055
450.251,428.896
451.706,419.698
453.16,416.793
454.614,436.642
456.068,437.126
457.522,431.801
458.977,424.055
460.431,418.73
461.885,438.579
463.339,450.198
464.794,445.841
466.248,427.928
467.702,413.404
469.156,434.706
470.61,430.832
472.065,430.348
473.519,429.38
474.973,429.38
476.427,428.412
477.882,426.96
479.336,436.158
480.79,430.832
482.244,428.896
483.698,427.444
485.153,425.991
486.607,433.253
488.061,427.444
489.515,423.57
490.969,417.277
492.424,409.047
493.878,405.175
495.332,410.015
496.786,413.889
498.241,416.793
499.695,412.436
501.149,410.015
502.603,411.468
504.057,424.539
505.512,410.015
506.966,409.047
508.42,419.698
509.874,426.96
511.329,411.952
512.783,416.309
514.237,421.151
515.691,421.151
517.145,413.889
518.6,410.984
520.054,412.92
521.508,411.468
522.962,425.991
524.417,414.373
525.871,408.563
527.325,421.151
528.779,424.055
530.233,435.189
531.688,417.761
533.142,408.563
534.596,408.563
536.05,407.111
537.505,427.928
538.959,407.111
540.413,401.301
541.867,411.952
543.321,417.761
544.776,418.246
546.23,391.619
547.684,394.04
549.138,411.468
550.592,409.532
552.047,404.69
553.501,411.952
554.955,410.499
556.409,415.341
557.864,410.984
559.318,402.754
560.772,407.595
562.226,415.341
563.68,396.944
565.135,398.88
566.589,404.69
568.043,401.301
569.497,406.142
570.952,419.213
572.406,407.111
573.86,421.151
575.314,424.055
576.768,424.539
578.223,423.087
579.677,420.666
581.131,411.952
582.585,402.269
584.039,400.817
585.494,406.142
586.948,418.73
588.402,422.118
589.856,402.754
591.311,415.825
592.765,419.213
594.219,411.952
595.673,413.404
597.127,412.436
598.582,407.595
600.036,415.825
601.49,413.404
602.944,423.57
604.399,428.412
605.853,417.277
607.307,396.944
608.761,403.721
610.215,407.595
611.67,410.499
613.124,414.373
614.578,416.309
616.032,417.761
617.487,423.57
618.941,418.246
620.395,421.151
621.849,415.341
623.303,415.341
624.758,430.348
626.212,443.42
627.666,443.903
629.12,412.92
630.575,414.856
632.029,424.055
633.483,428.896
634.937,426.96
636.391,433.253
637.846,422.118
639.3,411.952
640.754,414.373
642.208,425.991
643.662,425.023
645.117,431.317
646.571,421.151
648.025,421.151
649.479,436.158
650.934,437.61
652.388,423.087
653.842,424.539
655.296,432.769
656.75,420.182
658.205,423.087
659.659,432.285
661.113,441.484
662.567,439.546
664.022,435.674
665.476,442.936
666.93,445.356
668.384,451.166
669.838,446.324
671.293,439.546
672.747,459.88
674.201,445.356
675.655,445.356
677.109,438.579
678.564,431.317
680.018,446.324
681.472,455.039
682.926,456.007
684.381,456.491
685.835,443.903
687.289,446.324
688.743,448.262
690.198,458.428
691.652,445.841
693.106,439.546
694.56,444.872
696.014,449.714
697.469,440.999
698.923,443.42
700.377,467.626
701.831,446.808
703.285,456.976
704.74,453.102
706.194,449.714
707.648,446.808
709.102,442.936
710.557,450.681
712.011,439.063
713.465,449.229
714.919,462.785
716.373,459.396
717.828,447.293
719.282,459.396
720.736,469.562
722.19,458.912
723.645,460.364
725.099,457.943
726.553,455.523
728.007,457.943
729.461,459.88
730.916,462.3
732.37,462.3
733.824,458.428
735.278,450.198
736.732,451.65
738.187,454.071
739.641,465.205
741.095,466.174
742.549,452.134
744.004,449.714
745.458,454.555
746.912,460.848
748.366,445.356
749.82,468.595
751.275,447.777
752.729,443.42
754.183,446.808
755.637,448.745
757.092,453.102
758.546,439.063
760,455.523
761.454,443.903
762.908,456.491
764.363,452.134
765.817,448.745
767.271,458.912
768.725,447.293
770.18,464.721
771.634,462.3
773.088,452.619
774.542,448.262
775.996,451.166
777.451,457.943
778.905,460.364
780.359,484.086
781.813,471.499
783.268,472.952
784.722,479.245
786.176,486.023
787.63,460.364
789.084,467.626
790.539,481.666
791.993,467.626
793.447,463.269
794.901,469.078
796.355,473.919
797.81,469.078
799.264,475.372
800.718,487.959
802.172,479.729
803.627,478.761
805.081,493.285
806.535,501.03
807.989,481.666
809.443,484.57
810.898,482.15
812.352,485.538
813.806,478.761
815.26,473.919
816.715,477.309
818.169,471.499
819.623,471.014
821.077,484.086
822.531,471.014
823.986,482.15
825.44,496.673
826.894,501.03
828.348,493.285
829.802,509.744
831.257,499.094
832.711,511.681
834.165,509.744
835.619,505.387
837.074,501.515
838.528,522.816
839.982,522.816
841.436,494.253
842.891,487.475
844.345,498.61
845.799,515.554
847.253,524.753
848.707,516.039
850.162,488.443
851.616,537.824
853.07,527.657
854.524,517.491
855.978,530.562
857.433,550.411
858.887,537.824
860.341,519.427
861.795,518.943
863.25,515.554
864.704,496.189
866.158,501.03
867.612,501.999
869.066,501.999
870.521,519.427
871.975,510.713
873.429,512.165
874.883,502.483
876.338,501.999
877.792,506.84
879.246,505.387
880.7,507.324
882.154,507.808
883.609,520.879
885.063,516.522
886.517,519.911
887.971,525.236
889.425,527.173
890.88,516.039
892.334,518.458
893.788,513.134
895.242,533.951
896.697,536.372
898.151,533.467
899.605,520.879
901.059,521.363
902.513,520.396
903.968,520.396
905.422,538.792
906.876,534.919
908.33,541.697
909.785,541.212
911.239,535.888
912.693,530.078
914.147,542.181
915.601,533.467
917.056,531.531
918.51,542.181
919.964,525.236
921.418,535.888
922.873,548.474
924.327,542.181
925.781,532.983
927.235,558.641
928.689,535.403
930.144,542.181
931.598,551.379
933.052,554.284
934.506,547.99
935.961,528.625
937.415,540.245
938.869,551.864
940.323,555.736
941.777,547.507
943.232,546.054
944.686,557.673
946.14,553.8
947.594,547.022
949.048,548.474
950.503,541.697
951.957,532.983
953.411,534.919
954.865,527.657
956.32,523.784
957.774,539.76
959.228,551.379
960.682,563.483
962.136,579.942
963.591,559.125
965.045,561.545
966.499,560.093
967.953,547.022
969.408,541.212
970.862,550.895
972.316,561.062
973.77,563.483
975.224,540.729
976.679,548.474
978.133,557.673
979.587,551.864
981.041,549.443
982.495,572.197
983.95,566.871
985.404,556.221
986.858,560.093
988.312,571.228
989.767,578.975
991.221,579.458
992.675,572.197
994.129,579.458
995.583,564.935
997.038,576.07
998.492,593.498
999.946,597.37
1001.4,585.268
1002.85,576.554
1004.31,583.332
1005.76,592.53
1007.22,597.855
1008.67,603.665
1010.13,602.212
1011.58,597.37
1013.03,589.141
1014.49,601.244
1015.94,613.347
1017.4,617.704
1018.85,604.148
1020.31,620.609
1021.76,640.457
1023.21,634.164
1024.67,623.998
1026.12,639.974
1027.58,636.1
1029.03,634.648
1030.48,651.109
1031.94,638.521
1033.39,644.814
1034.85,672.894
1036.3,652.561
1037.76,658.37
1039.21,676.767
1040.66,684.029
1042.12,696.617
1043.57,688.87
1045.03,713.56
1046.48,715.981
1047.94,702.91
1049.39,714.045
1050.84,713.56
1052.3,725.179
1053.75,748.901
1055.21,748.418
1056.66,742.608
1058.11,741.64
1059.57,758.099
1061.02,761.973
1062.48,763.425
1063.93,773.591
1065.39,785.21
1066.84,784.726
1068.29,806.996
1069.75,810.385
1071.2,829.266
1072.66,815.71
1074.11,824.425
1075.57,847.178
1077.02,839.432
1078.47,827.813
1079.93,842.821
1081.38,852.503
1082.84,857.829
1084.29,867.512
1085.75,859.765
1087.2,851.051
1088.65,849.115
1090.11,851.535
1091.56,851.051
1093.02,863.154
1094.47,859.765
1095.92,856.377
1097.38,852.503
1098.83,844.273
1100.29,841.853
1101.74,841.853
1103.2,830.234
1104.65,828.297
1106.1,807.48
1107.56,802.155
1109.01,802.639
1110.47,810.869
1111.92,804.576
1113.38,799.25
1114.83,810.385
1116.28,805.543
1117.74,802.155
1119.19,798.281
1120.65,787.631
1122.1,779.886
1123.55,793.924
1125.01,800.219
1126.46,785.21
1127.92,772.623
1129.37,773.591
1130.83,769.234
1132.28,774.56
1133.73,773.108
1135.19,801.186
1136.64,778.432
1138.1,791.988
1139.55,775.528
1141.01,762.456
1142.46,754.711
1143.91,750.354
1145.37,751.322
1146.82,761.004
1148.28,757.615
1149.73,755.195
1151.18,761.004
1152.64,775.528
1154.09,768.751
1155.55,757.615
1157,771.17
1158.46,777.948
1159.91,765.361
1161.36,797.798
1162.82,779.401
1164.27,774.075
1165.73,768.751
1167.18,761.489
1168.64,761.004
1170.09,767.782
1171.54,762.456
1173,762.456
1174.45,768.751
1175.91,757.132
1177.36,771.17
1178.82,770.203
1180.27,771.655
1181.72,779.886
1183.18,778.917
1184.63,779.886
1186.09,805.543
1187.54,791.988
1188.99,796.345
1190.45,789.567
1191.9,801.671
1193.36,786.663
1194.81,787.631
1196.27,785.695
1197.72,778.917
1199.17,793.441
1200.63,799.25
1202.08,810.869
1203.54,802.639
1204.99,815.71
1206.45,802.155
1207.9,795.862
1209.35,812.321
1210.81,817.162
1212.26,807.48
1213.72,805.059
1215.17,829.75
1216.62,826.845
1218.08,811.837
1219.53,827.33
1220.99,821.035
1222.44,824.425
1223.9,831.687
1225.35,836.044
1226.8,835.075
1228.26,839.432
1229.71,854.924
1231.17,860.249
1232.62,869.448
1234.08,824.425
1235.53,854.924
1236.98,860.249
1238.44,843.789
1239.89,841.853
1241.35,861.218
1242.8,884.94
1244.25,894.138
1245.71,885.908
1247.16,861.701
1248.62,908.178
1250.07,920.765
1251.53,902.852
1252.98,919.313
1254.43,939.646
1255.89,925.606
1257.34,938.677
1258.8,973.534
1260.25,956.59
1261.71,951.265
1263.16,974.502
1264.61,954.653
1266.07,995.32
1267.52,1013.72
1268.98,1027.76
1270.43,1046.15
1271.89,1071.81
1273.34,1088.75
1274.79,1088.27
1276.25,1135.72
1277.7,1110.05
1279.16,1145.89
1280.61,1172.5
1282.06,1191.88
1283.52,1222.38
1284.97,1256.26
1286.43,1301.29
1287.88,1336.14
1289.34,1323.55
1290.79,1355.99
1292.24,1410.69
1293.7,1509.46
1295.15,1514.3
1296.61,1554.48
1298.06,1604.83
1299.52,1667.28
1300.97,1724.41
1302.42,1777.17
1303.88,1851.25
1305.33,1948.56
1306.79,1970.83
1308.24,2098.64
1309.69,2163.51
1311.15,2284.53
1312.6,2391.05
1314.06,2503.36
1315.51,2607.93
1316.97,2700.88
1318.42,2789.48
1319.87,2881.95
1321.33,3011.21
1322.78,3134.66
1324.24,3176.78
1325.69,3305.55
1327.15,3316.69
1328.6,3316.69
1330.05,3334.6
1331.51,3359.29
1332.96,3353.97
1334.42,3318.14
1335.87,3274.57
1337.32,3232.93
1338.78,3145.31
1340.23,3047.52
1341.69,2981.19
1343.14,2880.49
1344.6,2729.93
1346.05,2653.44
1347.5,2534.35
1348.96,2447.21
1350.41,2351.83
1351.87,2259.84
1353.32,2199.33
1354.78,2079.75
1356.23,1988.74
1357.68,1901.11
1359.14,1863.35
1360.59,1767.98
1362.05,1660.99
1363.5,1589.82
1364.96,1565.13
1366.41,1542.86
1367.86,1493.97
1369.32,1451.84
1370.77,1429.09
1372.23,1402.95
1373.68,1352.12
1375.13,1324.04
1376.59,1312.9
1378.04,1287.25
1379.5,1262.07
1380.95,1238.84
1382.41,1233.51
1383.86,1210.27
1385.31,1208.34
1386.77,1210.75
1388.22,1190.42
1389.68,1186.06
1391.13,1159.92
1392.59,1127.49
1394.04,1146.85
1395.49,1170.08
1396.95,1146.37
1398.4,1151.69
1399.86,1136.68
1401.31,1129.42
1402.76,1115.86
1404.22,1112.48
1405.67,1138.62
1407.13,1110.55
1408.58,1130.39
1410.04,1116.35
1411.49,1127.49
1412.94,1106.67
1414.4,1120.7
1415.85,1108.61
1417.31,1120.7
1418.76,1127.49
1420.22,1130.39
1421.67,1124.1
1423.12,1122.16
1424.58,1151.21
1426.03,1116.35
1427.49,1132.81
1428.94,1151.69
1430.4,1147.82
1431.85,1125.07
1433.3,1150.24
1434.76,1178.32
1436.21,1168.64
1437.67,1155.56
1439.12,1172.5
1440.57,1175.9
1442.03,1171.06
1443.48,1200.11
1444.94,1205.43
1446.39,1194.78
1447.85,1230.12
1449.3,1205.92
1450.75,1280.95
1452.21,1267.89
1453.66,1257.23
1455.12,1266.43
1456.57,1293.06
1458.03,1289.18
1459.48,1291.12
1460.93,1300.8
1462.39,1315.81
1463.84,1331.78
1465.3,1346.8
1466.75,1345.34
1468.2,1391.81
1469.66,1403.44
1471.11,1419.41
1472.57,1446.04
1474.02,1451.84
1475.48,1461.53
1476.93,1507.52
1478.38,1518.17
1479.84,1527.37
1481.29,1559.8
1482.75,1577.24
1484.2,1601.93
1485.66,1634.85
1487.11,1669.71
1488.56,1709.89
1490.02,1737.48
1491.47,1731.67
1492.93,1766.04
1494.38,1810.1
1495.83,1883.69
1497.29,1922.42
1498.74,1959.7
1500.2,2012.94
1501.65,2062.81
1503.11,2154.3
1504.56,2199.33
1506.01,2274.37
1507.47,2327.62
1508.92,2415.25
1510.38,2503.84
1511.83,2594.86
1513.29,2697.01
1514.74,2827.73
1516.19,2943.92
1517.65,3100.28
1519.1,3277.48
1520.56,3480.33
1522.01,3686.56
1523.46,3917.49
1524.92,4173.1
1526.37,4432.11
1527.83,4686.27
1529.28,5095.35
1530.74,5468.13
1532.19,5944.02
1533.64,6479.47
1535.1,7037.17
1536.55,7641.35
1538.01,8258.13
1539.46,8991.57
1540.92,9772.46
1542.37,10589.7
1543.82,11479.5
1545.28,12426.9
1546.73,13392.7
1548.19,14336.8
1549.64,15407.2
1551.1,16333.3
1552.55,17313.7
1554,18307.1
1555.46,19274.3
1556.91,20095.9
1558.37,20974.1
1559.82,21437.4
1561.27,21671.3
1562.73,21841.2
1564.18,21895.4
1565.64,21627.2
1567.09,20988.7
1568.55,20319.6
1570,19459.3
1571.45,18423.3
1572.91,17265.7
1574.36,16059.8
1575.82,14907.5
1577.27,13586.9
1578.73,12598.3
1580.18,11614
1581.63,10630.8
1583.09,9805.38
1584.54,9065.65
1586,8324.93
1587.45,7699.46
1588.9,7175.63
1590.36,6649.88
1591.81,6247.57
1593.27,5816.21
1594.72,5504.44
1596.18,5248.82
1597.63,4955.45
1599.08,4769.54
1600.54,4511.99
1601.99,4231.19
1603.45,4088.86
1604.9,3906.35
1606.36,3672.51
1607.81,3507.92
1609.26,3340.41
1610.72,3184.04
1612.17,3042.67
1613.63,2869.84
1615.08,2741.55
1616.54,2636.01
1617.99,2514.99
1619.44,2402.18
1620.9,2277.28
1622.35,2225
1623.81,2160.61
1625.26,2080.24
1626.71,1962.6
1628.17,1920.48
1629.62,1871.1
1631.08,1818.82
1632.53,1767.5
1633.99,1736.03
1635.44,1714.24
1636.89,1679.38
1638.35,1628.56
1639.8,1567.55
1641.26,1545.28
1642.71,1543.83
1644.17,1514.79
1645.62,1458.14
1647.07,1458.14
1648.53,1418.44
1649.98,1396.17
1651.44,1370.51
1652.89,1380.68
1654.34,1342.44
1655.8,1340.99
1657.25,1315.81
1658.71,1315.32
1660.16,1288.21
1661.62,1258.2
1663.07,1221.4
1664.52,1212.69
1665.98,1212.69
1667.43,1193.81
1668.89,1194.29
1670.34,1179.29
1671.8,1168.15
1673.25,1139.59
1674.7,1139.59
1676.16,1115.38
1677.61,1120.7
1679.07,1091.66
1680.52,1112.48
1681.97,1119.74
1683.43,1087.3
1684.88,1051.96
1686.34,1041.31
1687.79,1058.25
1689.25,1048.08
1690.7,1031.62
1692.15,1017.11
1693.61,997.256
1695.06,1011.78
1696.52,1025.82
1697.97,1014.2
1699.43,989.026
1700.88,984.669
1702.33,977.407
1703.79,1003.07
1705.24,976.439
1706.7,964.82
1708.15,992.415
1709.6,976.923
1711.06,941.098
1712.51,956.59
1713.97,968.693
1715.42,956.59
1716.88,959.01
1718.33,960.463
1719.78,944.003
1721.24,935.773
1722.69,944.971
1724.15,954.169
1725.6,946.423
1727.06,945.939
1728.51,960.947
1729.96,959.979
1731.42,951.265
1732.87,952.717
1734.33,964.82
1735.78,944.003
1737.24,940.13
1738.69,952.233
1740.14,938.194
1741.6,910.599
1743.05,908.662
1744.51,926.575
1745.96,936.256
1747.41,911.566
1748.87,902.852
1750.32,899.947
1751.78,902.852
1753.23,890.265
1754.69,888.812
1756.14,896.559
1757.59,886.876
1759.05,881.551
1760.5,876.226
1761.96,866.06
1763.41,889.297
1764.87,883.972
1766.32,842.337
1767.77,859.281
1769.23,863.639
1770.68,865.091
1772.14,850.083
1773.59,868.964
1775.04,846.694
1776.5,841.853
1777.95,827.813
1779.41,822.004
1780.86,843.789
1782.32,827.33
1783.77,832.654
1785.22,822.973
1786.68,828.782
1788.13,843.306
1789.59,846.694
1791.04,848.146
1792.5,831.202
1793.95,825.877
1795.4,838.464
1796.86,832.654
1798.31,794.409
1799.77,801.186
1801.22,809.417
1802.68,795.377
1804.13,817.162
1805.58,820.552
1807.04,829.266
1808.49,820.552
1809.95,802.639
1811.4,824.909
1812.85,828.297
1814.31,812.805
1815.76,843.306
1817.22,800.219
1818.67,804.091
1820.13,835.075
1821.58,820.068
1823.03,823.456
1824.49,825.392
1825.94,837.98
1827.4,812.321
1828.85,816.195
1830.31,810.385
1831.76,811.837
1833.21,821.035
1834.67,844.273
1836.12,822.488
1837.58,829.266
1839.03,852.02
1840.48,828.297
1841.94,832.654
1843.39,841.368
1844.85,858.798
1846.3,856.377
1847.76,859.281
1849.21,870.417
1850.66,858.313
1852.12,853.472
1853.57,872.353
1855.03,858.313
1856.48,832.17
1857.94,871.384
1859.39,870.417
1860.84,886.393
1862.3,895.107
1863.75,877.193
1865.21,888.329
1866.66,906.242
1868.11,868.479
1869.57,871.869
1871.02,893.654
1872.48,863.154
1873.93,852.02
1875.39,850.083
1876.84,847.663
1878.29,841.368
1879.75,840.401
1881.2,841.368
1882.66,824.909
1884.11,832.654
1885.57,841.853
1887.02,821.52
1888.47,814.257
1889.93,813.774
1891.38,800.702
1892.84,798.766
1894.29,809.9
1895.75,805.059
1897.2,782.79
1898.65,780.369
1900.11,786.179
1901.56,773.108
1903.02,780.853
1904.47,786.663
1905.92,762.941
1907.38,750.354
1908.83,764.393
1910.29,773.591
1911.74,794.409
1913.2,777.465
1914.65,763.425
1916.1,745.513
1917.56,743.092
1919.01,757.132
1920.47,752.775
1921.92,768.751
1923.38,757.615
1924.83,749.87
1926.28,753.258
1927.74,766.33
1929.19,776.012
1930.65,776.98
1932.1,760.036
1933.55,764.877
1935.01,775.044
1936.46,765.846
1937.92,757.132
1939.37,770.687
1940.83,765.361
1942.28,772.623
1943.73,776.496
1945.19,770.687
1946.64,767.782
1948.1,772.139
1949.55,764.393
1951.01,763.909
1952.46,764.877
1953.91,759.552
1955.37,753.258
1956.82,763.909
1958.28,767.782
1959.73,777.465
1961.18,797.314
1962.64,795.862
1964.09,778.917
1965.55,776.496
1967,773.108
1968.46,763.909
1969.91,779.401
1971.36,810.385
1972.82,810.385
1974.27,811.353
1975.73,802.155
1977.18,802.155
1978.64,795.377
1980.09,792.472
1981.54,789.084
1983,797.798
1984.45,800.219
1985.91,805.059
1987.36,822.004
1988.82,801.671
1990.27,811.353
1991.72,796.345
1993.18,793.441
1994.63,797.314
1996.09,789.567
1997.54,814.257
1998.99,816.195
2000.45,818.614
2001.9,824.425
2003.36,794.893
2004.81,799.734
2006.27,786.663
2007.72,805.059
2009.17,800.702
2010.63,804.576
2012.08,818.614
2013.54,796.345
2014.99,771.655
2016.45,765.361
2017.9,782.79
2019.35,785.695
2020.81,755.679
2022.26,775.528
2023.72,776.012
2025.17,741.64
2026.62,745.513
2028.08,765.846
2029.53,791.505
2030.99,780.369
2032.44,755.195
2033.9,747.449
2035.35,758.584
2036.8,751.806
2038.26,724.695
2039.71,743.576
2041.17,728.084
2042.62,735.83
2044.08,743.092
2045.53,749.385
2046.98,746.48
2048.44,726.147
2049.89,735.345
2051.35,729.536
2052.8,717.917
2054.25,711.14
2055.71,713.56
2057.16,713.076
2058.62,707.267
2060.07,702.426
2061.53,716.465
2062.98,718.402
2064.43,708.719
2065.89,710.172
2067.34,700.974
2068.8,698.553
2070.25,689.354
2071.71,696.132
2073.16,692.258
2074.61,697.1
2076.07,684.997
2077.52,682.092
2078.98,708.719
2080.43,711.624
2081.89,701.941
2083.34,686.934
2084.79,677.735
2086.25,667.085
2087.7,677.735
2089.16,687.418
2090.61,686.934
2092.06,678.703
2093.52,685.481
2094.97,680.64
2096.43,670.473
2097.88,685.965
2099.34,697.1
2100.79,697.1
2102.24,688.386
2103.7,696.132
2105.15,690.806
2106.61,673.378
2108.06,688.386
2109.52,681.124
2110.97,668.053
2112.42,663.211
2113.88,677.251
2115.33,681.608
2116.79,677.251
2118.24,689.839
2119.69,713.56
2121.15,703.878
2122.6,678.703
2124.06,682.577
2125.51,695.163
2126.97,695.163
2128.42,674.346
2129.87,680.64
2131.33,699.521
2132.78,693.227
2134.24,682.577
2135.69,696.617
2137.15,700.974
2138.6,711.624
2140.05,715.497
2141.51,688.87
2142.96,689.354
2144.42,714.045
2145.87,705.331
2147.32,705.331
2148.78,714.045
2150.23,703.878
2151.69,709.688
2153.14,731.473
2154.6,718.886
2156.05,718.402
2157.5,715.012
2158.96,726.147
2160.41,709.688
2161.87,706.783
2163.32,704.362
2164.78,703.393
2166.23,706.783
2167.68,719.369
2169.14,726.631
2170.59,728.084
2172.05,727.116
2173.5,743.092
2174.96,723.726
2176.41,742.608
2177.86,761.489
2179.32,763.425
2180.77,753.258
2182.23,749.87
2183.68,764.877
2185.13,752.775
2186.59,736.799
2188.04,758.099
2189.5,735.83
2190.95,718.886
2192.41,750.354
2193.86,733.409
2195.31,742.123
2196.77,763.425
2198.22,749.385
2199.68,752.775
2201.13,752.775
2202.59,740.187
2204.04,748.901
2205.49,757.132
2206.95,739.702
2208.4,761.004
2209.86,750.354
2211.31,738.251
2212.76,751.322
2214.22,762.456
2215.67,755.679
2217.13,746.965
2218.58,738.251
2220.04,759.552
2221.49,752.29
2222.94,770.687
2224.4,761.973
2225.85,773.108
2227.31,787.147
2228.76,756.647
2230.22,737.766
2231.67,756.647
2233.12,755.195
2234.58,770.203
2236.03,774.56
2237.49,778.432
2238.94,762.941
2240.4,753.742
2241.85,757.132
2243.3,764.393
2244.76,764.877
2246.21,771.655
2247.67,786.179
2249.12,782.306
2250.57,768.751
2252.03,775.044
2253.48,795.377
2254.94,783.758
2256.39,785.21
2257.85,800.702
2259.3,786.179
2260.75,797.314
2262.21,789.084
2263.66,781.338
2265.12,782.306
2266.57,789.567
2268.03,792.957
2269.48,773.591
2270.93,792.472
2272.39,798.281
2273.84,799.25
2275.3,790.536
2276.75,815.226
2278.2,821.035
2279.66,825.877
2281.11,818.131
2282.57,829.266
2284.02,804.091
2285.48,828.297
2286.93,803.607
2288.38,805.543
2289.84,825.392
2291.29,831.687
2292.75,817.647
2294.2,833.139
2295.66,850.567
2297.11,862.186
2298.56,861.701
2300.02,853.472
2301.47,877.193
2302.93,870.417
2304.38,861.218
2305.83,837.011
2307.29,850.567
2308.74,865.575
2310.2,861.218
2311.65,866.543
2313.11,887.845
2314.56,897.043
2316.01,904.789
2317.47,874.289
2318.92,884.94
2320.38,901.884
2321.83,912.535
2323.29,918.828
2324.74,908.662
2326.19,908.178
2327.65,912.535
2329.1,911.566
2330.56,902.852
2332.01,927.058
2333.47,925.122
2334.92,933.836
2336.37,919.313
2337.83,928.511
2339.28,917.376
2340.74,932.868
2342.19,937.709
2343.64,945.939
2345.1,953.201
2346.55,960.463
2348.01,953.686
2349.46,955.622
2350.92,976.439
2352.37,971.598
2353.82,986.121
2355.28,1005.49
2356.73,1012.75
2358.19,992.899
2359.64,996.288
2361.1,997.74
2362.55,1027.76
2364,1045.67
2365.46,1042.28
2366.91,1066.97
2368.37,1093.59
2369.82,1079.56
2371.27,1084.4
2372.73,1112.48
2374.18,1106.67
2375.64,1142.01
2377.09,1135.23
2378.55,1158.95
2380,1184.13
2381.45,1205.92
2382.91,1196.71
2384.36,1215.11
2385.82,1239.8
2387.27,1266.43
2388.73,1293.54
2390.18,1351.63
2391.63,1355.99
2393.09,1337.11
2394.54,1388.43
2396,1403.92
2397.45,1419.9
2398.9,1469.76
2400.36,1477.99
2401.81,1505.58
2403.27,1534.15
2404.72,1579.66
2406.18,1571.91
2407.63,1609.18
2409.08,1643.56
2410.54,1654.69
2411.99,1668.25
2413.45,1695.36
2414.9,1699.24
2416.36,1723.44
2417.81,1743.29
2419.26,1760.71
2420.72,1787.83
2422.17,1741.83
2423.63,1797.99
2425.08,1793.15
2426.53,1805.26
2427.99,1804.78
2429.44,1795.57
2430.9,1775.73
2432.35,1773.31
2433.81,1764.11
2435.26,1779.6
2436.71,1763.14
2438.17,1753.46
2439.62,1771.85
2441.08,1764.59
2442.53,1749.1
2443.99,1727.8
2445.44,1729.25
2446.89,1687.13
2448.35,1667.77
2449.8,1639.21
2451.26,1653.73
2452.71,1653.25
2454.17,1645.98
2455.62,1613.06
2457.07,1605.8
2458.53,1654.69
2459.98,1648.4
2461.44,1594.66
2462.89,1576.26
2464.34,1583.05
2465.8,1584.99
2467.25,1576.26
2468.71,1567.07
2470.16,1583.53
2471.62,1556.42
2473.07,1522.04
2474.52,1509.46
2475.98,1517.69
2477.43,1514.79
2478.89,1512.37
2480.34,1501.71
2481.8,1512.37
2483.25,1536.57
2484.7,1553.51
2486.16,1529.31
2487.61,1502.2
2489.07,1472.66
2490.52,1514.3
2491.97,1502.68
2493.43,1513.81
2494.88,1496.87
2496.34,1533.67
2497.79,1530.27
2499.25,1539.48
2500.7,1552.55
2502.15,1548.19
2503.61,1542.38
2505.06,1533.18
2506.52,1546.73
2507.97,1560.29
2509.43,1570.94
2510.88,1559.32
2512.33,1596.6
2513.79,1599.02
2515.24,1605.31
2516.7,1599.02
2518.15,1623.71
2519.6,1638.72
2521.06,1615.48
2522.51,1649.37
2523.97,1683.74
2525.42,1669.22
2526.88,1695.36
2528.33,1722.47
2529.78,1729.25
2531.24,1729.25
2532.69,1729.74
2534.15,1752.48
2535.6,1802.36
2537.06,1815.42
2538.51,1842.54
2539.96,1867.23
2541.42,1869.64
2542.87,1853.18
2544.33,1916.61
2545.78,1961.14
2547.24,1952.91
2548.69,1999.39
2550.14,2014.4
2551.6,2050.7
2553.05,2085.08
2554.51,2090.41
2555.96,2154.8
2557.41,2191.58
2558.87,2238.55
2560.32,2304.87
2561.78,2340.21
2563.23,2352.32
2564.69,2387.66
2566.14,2414.77
2567.59,2474.32
2569.05,2545
2570.5,2593.9
2571.96,2661.18
2573.41,2736.22
2574.87,2812.71
2576.32,2802.55
2577.77,2915.83
2579.23,3018.47
2580.68,3086.73
2582.14,3159.35
2583.59,3223.74
2585.04,3280.86
2586.5,3388.34
2587.95,3520.02
2589.41,3646.86
2590.86,3724.81
2592.32,3848.74
2593.77,3977.03
2595.22,4094.67
2596.68,4260.72
2598.13,4414.19
2599.59,4561.85
2601.04,4777.29
2602.5,4887.67
2603.95,5068.24
2605.4,5264.8
2606.86,5477.33
2608.31,5637.09
2609.77,5869.95
2611.22,6106.69
2612.68,6362.79
2614.13,6591.78
2615.58,6884.67
2617.04,7194.03
2618.49,7476.27
2619.95,7747.86
2621.4,8048.99
2622.85,8431.45
2624.31,8677.38
2625.76,9067.1
2627.22,9375
2628.67,9681.45
2630.13,10105.5
2631.58,10475.4
2633.03,10755.2
2634.49,11174.5
2635.94,11448.5
2637.4,11841.6
2638.85,12270.5
2640.31,12504.8
2641.76,12794.4
2643.21,13068.9
2644.67,13340
2646.12,13659
2647.58,13891.9
2649.03,14052.6
2650.48,14185.7
2651.94,14389.1
2653.39,14434.6
2654.85,14580.2
2656.3,14706.2
2657.76,14625.8
2659.21,14646.1
2660.66,14653.8
2662.12,14465.6
2663.57,14381.3
2665.03,14300.4
2666.48,14064.2
2667.94,13834.7
2669.39,13503.6
2670.84,13275.6
2672.3,13030.6
2673.75,12714
2675.21,12455.5
2676.66,12172.2
2678.11,11865.8
2679.57,11377.8
2681.02,11056.9
2682.48,10611.9
2683.93,10342.8
2685.39,9986.45
2686.84,9600.12
2688.29,9171.18
2689.75,8837.63
2691.2,8495.35
2692.66,8085.78
2694.11,7852.43
2695.57,7482.57
2697.02,7185.31
2698.47,6846.91
2699.93,6596.62
2701.38,6286.79
2702.84,6072.8
2704.29,5806.54
2705.75,5545.59
2707.2,5302.07
2708.65,5091.48
2710.11,4897.83
2711.56,4688.69
2713.02,4508.6
2714.47,4406.45
2715.92,4169.71
2717.38,4040.93
2718.83,3909.26
2720.29,3766.92
2721.74,3631.37
2723.2,3528.73
2724.65,3354.45
2726.1,3246.01
2727.56,3150.15
2729.01,3086.24
2730.47,2976.35
2731.92,2901.79
2733.38,2813.2
2734.83,2682.97
2736.28,2629.24
2737.74,2581.79
2739.19,2554.2
2740.65,2470.44
2742.1,2382.82
2743.55,2319.88
2745.01,2318.43
2746.46,2255.98
2747.92,2203.69
2749.37,2113.64
2750.83,2153.82
2752.28,2041.99
2753.73,2045.38
2755.19,1994.55
2756.64,1929.19
2758.1,1898.69
2759.55,1880.78
2761.01,1866.74
2762.46,1809.61
2763.91,1746.19
2765.37,1751.04
2766.82,1749.58
2768.28,1699.24
2769.73,1676
2771.18,1655.67
2772.64,1638.72
2774.09,1595.63
2775.55,1617.41
2777,1579.66
2778.46,1556.9
2779.91,1521.56
2781.36,1533.67
2782.82,1519.62
2784.27,1516.23
2785.73,1498.81
2787.18,1493
2788.64,1433.94
2790.09,1427.64
2791.54,1438.78
2793,1418.92
2794.45,1401.02
2795.91,1356.47
2797.36,1352.6
2798.82,1352.12
2800.27,1381.16
2801.72,1354.54
2803.18,1309.03
2804.63,1352.6
2806.09,1324.04
2807.54,1310.96
2808.99,1308.06
2810.45,1285.79
2811.9,1264.97
2813.36,1257.23
2814.81,1292.08
2816.27,1259.66
2817.72,1236.41
2819.17,1246.58
2820.63,1247.55
2822.08,1226.24
2823.54,1205.92
2824.99,1215.59
2826.45,1212.69
2827.9,1193.81
2829.35,1204.94
2830.81,1194.29
2832.26,1246.58
2833.72,1191.88
2835.17,1177.83
2836.62,1201.07
2838.08,1188
2839.53,1170.58
2840.99,1187.04
2842.44,1190.9
2843.9,1177.35
2845.35,1168.64
2846.8,1183.16
2848.26,1173
2849.71,1153.14
2851.17,1164.77
2852.62,1181.23
2854.08,1145.39
2855.53,1131.84
2856.98,1135.23
2858.44,1144.91
2859.89,1136.68
2861.35,1148.79
2862.8,1166.7
2864.25,1148.79
2865.71,1173
2867.16,1154.12
2868.62,1136.2
2870.07,1131.36
2871.53,1124.58
2872.98,1154.12
2874.43,1182.19
2875.89,1135.23
2877.34,1137.16
2878.8,1154.12
2880.25,1158.47
2881.71,1163.31
2883.16,1157.02
2884.61,1138.14
2886.07,1143.46
2887.52,1141.04
2888.98,1132.81
2890.43,1162.83
2891.89,1190.9
2893.34,1166.21
2894.79,1161.37
2896.25,1156.53
2897.7,1181.23
2899.16,1171.06
2900.61,1162.35
2902.06,1155.56
2903.52,1157.02
2904.97,1128.93
2906.43,1140.07
2907.88,1152.18
2909.34,1135.72
2910.79,1137.16
2912.24,1119.74
2913.7,1097.96
2915.15,1119.74
2916.61,1102.8
2918.06,1084.88
2919.52,1091.66
2920.97,1086.34
2922.42,1068.9
2923.88,1074.23
2925.33,1053.9
2926.79,1053.41
2928.24,1050.02
2929.69,1040.83
2931.15,1056.81
2932.6,1025.33
2934.06,1047.6
2935.51,1025.82
2936.97,1006.94
2938.42,998.709
2939.87,981.764
2941.33,955.622
2942.78,963.367
2944.24,986.121
2945.69,964.336
2947.15,953.686
2948.6,932.868
2950.05,927.058
2951.51,924.154
2952.96,883.972
2954.42,876.71
2955.87,907.694
2957.32,876.226
2958.78,871.869
2960.23,859.765
2961.69,881.551
2963.14,862.67
2964.6,837.98
2966.05,829.266
2967.5,818.614
2968.96,844.758
2970.41,832.654
2971.87,852.503
2973.32,839.916
2974.78,823.456
2976.23,812.321
2977.68,796.829
2979.14,794.409
2980.59,817.647
2982.05,799.25
2983.5,786.179
2984.96,798.766
2986.41,780.853
2987.86,788.6
2989.32,791.505
2990.77,761.489
2992.23,800.219
2993.68,757.132
2995.13,770.687
2996.59,767.298
2998.04,783.758
2999.5,766.33
3000.95,762.941
3002.41,762.941
3003.86,757.615
3005.31,761.489
3006.77,753.258
3008.22,752.775
3009.68,739.702
3011.13,733.409
3012.59,728.568
3014.04,739.219
3015.49,740.187
3016.95,760.52
3018.4,746.48
3019.86,730.021
3021.31,746.965
3022.76,751.322
3024.22,720.822
3025.67,731.957
3027.13,734.862
3028.58,724.695
3030.04,752.775
3031.49,717.917
3032.94,720.822
3034.4,730.505
3035.85,731.957
3037.31,720.338
3038.76,714.045
3040.22,718.886
3041.67,734.378
3043.12,717.433
3044.58,721.307
3046.03,736.314
3047.49,728.568
3048.94,707.751
3050.4,740.671
3051.85,723.243
3053.3,728.084
3054.76,714.529
3056.21,732.925
3057.67,753.742
3059.12,727.116
3060.57,726.147
3062.03,767.782
3063.48,743.092
3064.94,741.156
3066.39,743.092
3067.85,753.742
3069.3,739.702
3070.75,737.766
3072.21,761.489
3073.66,759.552
3075.12,750.838
3076.57,761.973
3078.03,776.496
3079.48,754.711
3080.93,775.044
3082.39,763.425
3083.84,760.52
3085.3,736.799
3086.75,787.147
3088.2,774.075
3089.66,786.663
3091.11,820.552
3092.57,801.671
3094.02,791.02
3095.48,817.162
3096.93,839.432
3098.38,820.068
3099.84,826.845
3101.29,858.313
3102.75,859.281
3104.2,832.17
3105.66,850.567
3107.11,934.804
3108.56,891.233
3110.02,895.59
3111.47,932.868
3112.93,941.098
3114.38,949.812
3115.83,966.272
3117.29,968.693
3118.74,971.114
3120.2,985.153
3121.65,985.153
3123.11,994.352
3124.56,1028.24
3126.01,991.931
3127.47,1026.3
3128.92,1053.41
3130.38,1061.64
3131.83,1090.21
3133.29,1079.07
3134.74,1072.78
3136.19,1106.18
3137.65,1096.02
3139.1,1093.59
3140.56,1094.57
3142.01,1087.79
3143.47,1091.66
3144.92,1095.05
3146.37,1102.31
3147.83,1136.68
3149.28,1084.4
3150.74,1126.03
3152.19,1161.85
3153.64,1160.41
3155.1,1123.61
3156.55,1145.39
3158.01,1099.89
3159.46,1122.16
3160.92,1144.91
3162.37,1151.21
3163.82,1172.5
3165.28,1165.73
3166.73,1174.93
3168.19,1193.33
3169.64,1218.99
3171.1,1203.98
3172.55,1205.92
3174,1218.99
3175.46,1222.86
3176.91,1250.45
3178.37,1285.31
3179.82,1253.84
3181.27,1300.32
3182.73,1314.36
3184.18,1322.11
3185.64,1352.6
3187.09,1376.33
3188.55,1392.79
3190,1391.81
3191.45,1402.95
3192.91,1420.38
3194.36,1415.06
3195.82,1412.63
3197.27,1431.52
3198.73,1438.29
3200.18,1425.71
3201.63,1431.03
3203.09,1415.54
3204.54,1439.26
3206,1420.86
3207.45,1394.24
3208.9,1372.93
3210.36,1377.78
3211.81,1368.1
3213.27,1335.17
3214.72,1309.03
3216.18,1302.73
3217.63,1253.84
3219.08,1232.54
3220.54,1203.49
3221.99,1159.44
3223.45,1132.81
3224.9,1092.63
3226.36,1079.56
3227.81,1090.21
3229.26,1032.12
3230.72,1013.23
3232.17,974.986
3233.63,956.59
3235.08,940.13
3236.53,890.265
3237.99,892.686
3239.44,839.432
3240.9,832.17
3242.35,823.456
3243.81,822.488
3245.26,795.377
3246.71,769.718
3248.17,755.195
3249.62,769.234
3251.08,748.901
3252.53,728.568
3253.99,729.536
3255.44,715.012
3256.89,699.521
3258.35,711.14
3259.8,695.648
3261.26,678.22
3262.71,667.568
3264.17,674.83
3265.62,665.148
3267.07,651.592
3268.53,655.466
3269.98,641.426
3271.44,635.133
3272.89,658.854
3274.34,657.887
3275.8,622.545
3277.25,619.641
3278.71,618.188
3280.16,616.736
3281.62,617.704
3283.07,619.157
3284.52,607.053
3285.98,620.609
3287.43,601.728
3288.89,604.148
3290.34,606.085
3291.8,582.363
3293.25,598.823
3294.7,630.291
3296.16,611.894
3297.61,605.601
3299.07,598.339
3300.52,615.767
3301.97,611.41
3303.43,585.752
3304.88,601.728
3306.34,605.601
3307.79,594.951
3309.25,617.704
3310.7,585.752
3312.15,599.791
3313.61,588.656
3315.06,587.204
3316.52,592.53
3317.97,575.101
3319.43,597.37
3320.88,594.951
3322.33,585.752
3323.79,588.656
3325.24,594.951
3326.7,598.339
3328.15,583.332
3329.6,583.332
3331.06,592.53
3332.51,589.625
3333.97,589.141
3335.42,603.665
3336.88,556.221
3338.33,596.403
3339.78,578.006
3341.24,572.197
3342.69,577.522
3344.15,586.236
3345.6,586.236
3347.06,582.363
3348.51,592.53
3349.96,564.45
3351.42,577.522
3352.87,564.45
3354.33,573.649
3355.78,579.942
3357.24,585.752
3358.69,582.847
3360.14,572.68
3361.6,590.109
3363.05,571.228
3364.51,572.197
3365.96,582.847
3367.41,585.268
3368.87,572.68
3370.32,571.228
3371.78,558.641
3373.23,565.419
3374.69,579.458
3376.14,589.625
3377.59,576.07
3379.05,562.998
3380.5,558.157
3381.96,571.228
3383.41,573.649
3384.87,555.252
3386.32,561.545
3387.77,582.847
3389.23,569.776
3390.68,580.911
3392.14,561.545
3393.59,576.554
3395.04,616.252
3396.5,577.037
3397.95,568.808
3399.41,574.133
3400.86,561.062
3402.32,577.522
3403.77,585.752
3405.22,566.387
3406.68,555.252
3408.13,562.998
3409.59,576.07
3411.04,583.332
3412.5,562.514
3413.95,560.578
3415.4,558.157
3416.86,556.221
3418.31,578.49
3419.77,564.935
3421.22,577.037
3422.68,576.07
3424.13,530.562
3425.58,580.911
3427.04,570.744
3428.49,570.744
3429.95,560.578
3431.4,571.712
3432.85,563.483
3434.31,547.99
3435.76,570.26
3437.22,572.197
3438.67,556.704
3440.13,565.419
3441.58,534.435
3443.03,553.8
3444.49,566.871
3445.94,551.379
3447.4,539.276
3448.85,572.197
3450.31,543.15
3451.76,570.26
3453.21,569.292
3454.67,580.911
3456.12,552.347
3457.58,584.299
3459.03,562.03
3460.48,585.752
3461.94,576.554
3463.39,569.776
3464.85,571.712
3466.3,552.831
3467.76,549.443
3469.21,550.895
3470.66,568.808
3472.12,562.514
3473.57,561.545
3475.03,554.768
3476.48,556.704
3477.94,571.712
3479.39,583.815
3480.84,555.252
3482.3,556.704
3483.75,569.776
3485.21,563.966
3486.66,548.959
3488.11,568.808
3489.57,560.093
3491.02,556.704
3492.48,578.49
3493.93,567.84
3495.39,554.768
3496.84,570.26
3498.29,570.26
3499.75,562.03
3501.2,554.768
3502.66,563.966
3504.11,555.252
3505.57,548.474
3507.02,571.228
3508.47,567.84
3509.93,570.744
3511.38,569.776
3512.84,561.062
3514.29,549.927
3515.75,574.618
3517.2,563.483
3518.65,573.164
3520.11,584.784
3521.56,561.545
3523.02,557.673
3524.47,565.902
3525.92,558.157
3527.38,558.641
3528.83,575.585
3530.29,568.808
3531.74,569.776
3533.2,581.879
3534.65,577.037
3536.1,583.815
3537.56,561.545
3539.01,545.569
3540.47,573.649
3541.92,572.197
3543.38,545.569
3544.83,545.569
3546.28,559.609
3547.74,561.545
3549.19,572.197
3550.65,586.236
3552.1,555.252
3553.55,569.292
3555.01,572.197
3556.46,567.355
3557.92,566.871
3559.37,541.212
3560.83,564.45
3562.28,561.545
3563.73,547.507
3565.19,551.379
3566.64,539.76
3568.1,542.665
3569.55,550.411
3571.01,555.736
3572.46,557.188
3573.91,551.864
3575.37,546.054
3576.82,554.768
3578.28,563.483
3579.73,567.355
3581.18,572.68
3582.64,567.355
3584.09,546.538
3585.55,562.998
3587,570.744
3588.46,546.054
3589.91,552.831
3591.36,549.927
3592.82,550.411
3594.27,545.569
3595.73,570.26
3597.18,567.355
3598.64,575.585
3600.09,571.228
3601.54,576.554
3603,571.228
3604.45,562.998
3605.91,549.443
3607.36,567.355
3608.82,564.935
3610.27,555.736
3611.72,571.228
3613.18,540.245
3614.63,571.712
3616.09,559.609
3617.54,569.776
3618.99,572.68
3620.45,589.141
3621.9,554.284
3623.36,565.902
3624.81,566.387
3626.27,566.387
3627.72,574.618
3629.17,559.125
3630.63,580.911
3632.08,554.768
3633.54,562.03
3634.99,571.712
3636.45,569.292
3637.9,561.062
3639.35,563.966
3640.81,556.704
3642.26,572.197
3643.72,556.221
3645.17,545.086
3646.62,556.221
3648.08,573.164
3649.53,560.578
3650.99,583.815
3652.44,571.228
3653.9,554.768
3655.35,562.998
3656.8,567.84
3658.26,578.006
3659.71,593.982
3661.17,568.323
3662.62,566.387
3664.08,563.483
3665.53,582.363
3666.98,556.704
3668.44,565.902
3669.89,579.458
3671.35,579.458
3672.8,574.133
3674.25,564.935
3675.71,570.26
3677.16,567.355
3678.62,569.292
3680.07,564.45
3681.53,562.514
3682.98,569.776
3684.43,571.228
3685.89,570.26
3687.34,570.26
3688.8,588.173
3690.25,570.744
3691.71,571.712
3693.16,582.363
3694.61,553.316
3696.07,558.641
3697.52,555.252
3698.98,575.101
3700.43,548.959
3701.89,577.522
3703.34,568.323
3704.79,562.03
3706.25,583.332
3707.7,567.355
3709.16,562.03
3710.61,567.84
3712.06,587.204
3713.52,588.173
3714.97,575.101
3716.43,580.911
3717.88,566.387
3719.34,578.975
3720.79,581.395
3722.24,571.228
3723.7,574.133
3725.15,595.918
3726.61,597.37
3728.06,602.212
3729.52,578.49
3730.97,573.649
3732.42,557.673
3733.88,574.133
3735.33,597.855
3736.79,595.434
3738.24,573.164
3739.69,584.299
3741.15,585.268
3742.6,589.141
3744.06,589.141
3745.51,571.712
3746.97,572.197
3748.42,578.49
3749.87,582.847
3751.33,585.268
3752.78,581.879
3754.24,579.458
3755.69,577.037
3757.15,590.594
3758.6,609.958
3760.05,584.784
3761.51,583.815
3762.96,584.299
3764.42,578.975
3765.87,582.847
3767.32,582.363
3768.78,589.625
3770.23,587.689
3771.69,583.815
3773.14,581.395
3774.6,576.554
3776.05,579.942
3777.5,603.18
3778.96,588.656
3780.41,595.918
3781.87,585.752
3783.32,599.308
3784.78,608.022
3786.23,596.887
3787.68,578.49
3789.14,577.522
3790.59,592.53
3792.05,587.204
3793.5,601.244
3794.96,588.656
3796.41,576.07
3797.86,574.133
3799.32,595.434
3800.77,592.53
3802.23,606.569
3803.68,578.49
3805.13,595.434
3806.59,598.339
3808.04,608.506
3809.5,588.173
3810.95,582.847
3812.41,628.839
3813.86,609.958
3815.31,615.284
3816.77,597.855
3818.22,608.989
3819.68,620.124
3821.13,609.474
3822.59,605.601
3824.04,594.951
3825.49,611.894
3826.95,600.76
3828.4,594.466
3829.86,596.403
3831.31,607.053
3832.76,585.752
3834.22,605.117
3835.67,598.823
3837.13,593.982
3838.58,617.704
3840.04,593.013
3841.49,616.736
3842.94,574.133
3844.4,608.989
3845.85,603.665
3847.31,597.855
3848.76,639.49
3850.22,619.157
3851.67,608.506
3853.12,614.315
3854.58,596.887
3856.03,614.315
3857.49,593.982
3858.94,614.315
3860.4,647.235
3861.85,639.974
3863.3,624.481
3864.76,623.514
3866.21,626.902
3867.67,625.934
3869.12,611.894
3870.57,608.022
3872.03,610.442
3873.48,619.157
3874.94,630.776
3876.39,638.521
3877.85,608.989
3879.3,617.704
3880.75,611.41
3882.21,603.18
3883.66,625.934
3885.12,642.395
3886.57,629.807
3888.03,617.704
3889.48,624.481
3890.93,631.259
3892.39,650.14
3893.84,635.133
3895.3,641.426
3896.75,641.91
3898.2,643.847
3899.66,643.362
3901.11,640.942
3902.57,662.728
3904.02,654.497
3905.48,652.076
3906.93,646.267
3908.38,648.204
3909.84,647.719
3911.29,644.814
3912.75,644.331
3914.2,663.211
3915.66,664.664
3917.11,650.624
3918.56,642.395
3920.02,650.14
3921.47,657.887
3922.93,662.244
3924.38,670.958
3925.83,663.696
3927.29,677.251
3928.74,642.878
3930.2,679.672
3931.65,678.22
3933.11,663.211
3934.56,678.22
3936.01,685.965
3937.47,683.544
3938.92,679.672
3940.38,703.878
3941.83,702.91
3943.29,695.163
3944.74,675.799
3946.19,699.521
3947.65,721.307
3949.1,685.481
3950.56,688.87
3952.01,715.497
3953.47,711.14
3954.92,680.64
3956.37,697.584
3957.83,701.941
3959.28,723.726
3960.74,733.893
3962.19,709.688
3963.64,695.648
3965.1,721.79
3966.55,736.314
3968.01,733.409
3969.46,723.726
3970.92,703.393
3972.37,721.307
3973.82,715.497
3975.28,742.608
3976.73,730.505
3978.19,718.402
3979.64,754.711
3981.1,736.799
3982.55,739.219
3984,752.29
3985.46,742.608
3986.91,747.933
3988.37,739.219
3989.82,758.099
3991.27,761.489
3992.73,765.846
3994.18,768.751
3995.64,768.266
3997.09,736.799
3998.55,721.307
4000,768.266
