-50,-2.11997
-48.5458,-1.41647
-47.0916,-3.00079
-45.6373,-0.246091
-44.1831,1.21779
-42.7289,1.99319
-41.2747,3.71022
-39.8205,3.12401
-38.3662,0.501414
-36.912,-1.15998
-35.4578,-3.08595
-34.0036,-4.42346
-32.5494,-3.69459
-31.0952,-3.15433
-29.6409,2.75044
-28.1867,8.80818
-26.7325,7.45716
-25.2783,4.97191
-23.8241,8.17293
-22.3698,15.3995
-20.9156,20.0057
-19.4614,22.4464
-18.0072,29.1378
-16.553,28.8872
-15.0987,28.6104
-13.6445,30.9421
-12.1903,43.8377
-10.7361,79.6586
-9.28187,29.1544
-7.82765,29.1544
-6.37343,29.1544
-4.91921,29.1544
-3.46499,29.1544
-2.01077,29.1544
-0.556553,29.1544
0.897666,29.1544
2.35189,29.1544
3.8061,421.463
5.26032,86.3552
6.71454,76.637
8.16876,76.3075
9.62298,69.6902
11.0772,60.464
12.5314,54.796
13.9856,53.4275
15.4399,46.0377
16.8941,40.6508
18.3483,32.3353
19.8025,27.4411
21.2567,28.6283
22.711,20.269
24.1652,18.4995
25.6194,15.6747
27.0736,14.9217
28.5278,13.9316
29.982,16.8979
31.4363,14.9092
32.8905,10.3449
34.3447,10.3704
35.7989,9.91353
37.2531,8.1621
38.7074,6.78207
40.1616,8.97678
41.6158,18.6989
43.07,26.9092
44.5242,44.7831
45.9785,77.9153
47.4327,136.188
48.8869,249.898
50.3411,434.364
51.7953,627.227
53.2495,837.142
54.7038,1085.32
56.158,1278.71
57.6122,1450.43
59.0664,1586.18
60.5206,1656.05
61.9749,1712.44
63.4291,1766.62
64.8833,1803.77
66.3375,1857.62
67.7917,1884.22
69.246,1900.85
70.7002,1904.36
72.1544,1928.1
73.6086,1951.28
75.0628,1963.44
76.5171,1989.45
77.9713,2061.24
79.4255,2101.67
80.8797,2116.08
82.3339,2120.92
83.7882,2093.57
85.2424,2062.86
86.6966,2009.18
88.1508,1934.81
89.605,1847.42
91.0592,1781.13
92.5135,1711.99
93.9677,1605
95.4219,1527.08
96.8761,1549.36
98.3303,1503.54
99.7846,1455.42
101.239,1435.18
102.693,1423.71
104.147,1413.13
105.601,1349.93
107.056,1337.25
108.51,1334.77
109.964,1318.55
111.418,1327.28
112.873,1307.57
114.327,1292.52
115.781,1279.53
117.235,1233.72
118.689,1208.11
120.144,1184.44
121.598,1163.38
123.052,1156.91
124.506,1108.32
125.961,1078.77
127.415,1028
128.869,997.28
130.323,985.797
131.777,966.643
133.232,969.369
134.686,940.974
136.14,912.649
137.594,892.675
139.048,877.29
140.503,879.976
141.957,888.037
143.411,885.732
144.865,858.636
146.32,801.011
147.774,804.54
149.228,812.863
150.682,814.276
152.136,812.886
153.591,797.578
155.045,782.247
156.499,772.103
157.953,762.147
159.408,755.03
160.862,729.503
162.316,734.34
163.77,739.279
165.224,738.427
166.679,729.395
168.133,720.808
169.587,733.704
171.041,722.864
172.496,711.136
173.95,718.452
175.404,689.872
176.858,702.172
178.312,703.885
179.767,706.293
181.221,724.044
182.675,711.61
184.129,666.301
185.583,662.023
187.038,676.918
188.492,685.152
189.946,663.436
191.4,656.602
192.855,657.289
194.309,659.132
195.763,659.08
197.217,668.566
198.671,667.372
200.126,672.217
201.58,672.274
203.034,656.894
204.488,629.004
205.943,639.169
207.397,658.408
208.851,667.303
210.305,671.764
211.759,667.923
213.214,668.201
214.668,669.238
216.122,660.615
217.576,655.039
219.031,643.707
220.485,669.743
221.939,660.135
223.393,651.823
224.847,663.406
226.302,682.821
227.756,662.315
229.21,663.782
230.664,676.242
232.118,669.995
233.573,645.296
235.027,659.948
236.481,650.332
237.935,639.642
239.39,633.356
240.844,626.598
242.298,634.261
243.752,630.287
245.206,632.643
246.661,640.422
248.115,637.999
249.569,641.459
251.023,625.017
252.478,627.113
253.932,628.779
255.386,614.808
256.84,633.343
258.294,620.94
259.749,612.034
261.203,607.005
262.657,606.376
264.111,611.13
265.566,619.887
267.02,597.159
268.474,575.418
269.928,579.975
271.382,610.119
272.837,594.261
274.291,583.001
275.745,578.801
277.199,585.244
278.654,585.538
280.108,576.887
281.562,554.505
283.016,554.439
284.47,561.236
285.925,543.101
287.379,551.56
288.833,548.218
290.287,545.505
291.741,545.351
293.196,541.625
294.65,523.253
296.104,527.437
297.558,531.329
299.013,534.932
300.467,535.886
301.921,507.633
303.375,500.888
304.829,512.83
306.284,512.02
307.738,501.24
309.192,502.802
310.646,494.583
312.101,498.474
313.555,493.724
315.009,485.348
316.463,481.58
317.917,484.621
319.372,491.845
320.826,478.665
322.28,469.144
323.734,476.615
325.189,474.118
326.643,457.759
328.097,459.635
329.551,469.419
331.005,474.369
332.46,475.146
333.914,469.778
335.368,471.056
336.822,470.564
338.276,466.653
339.731,467.377
341.185,458.167
342.639,474.726
344.093,489.601
345.548,477.49
347.002,447.57
348.456,482.32
349.91,459.297
351.364,449.63
352.819,446.768
354.273,450.306
355.727,463.122
357.181,459.436
358.636,454.843
360.09,466
361.544,465.213
362.998,435.988
364.452,437.816
365.907,448.754
367.361,436.895
368.815,443.18
370.269,461.684
371.724,459.727
373.178,441.07
374.632,444.848
376.086,442.651
377.54,438.951
378.995,442.113
380.449,449.811
381.903,428.027
383.357,407.146
384.811,419.459
386.266,449.717
387.72,447.836
389.174,448.073
390.628,442.338
392.083,440.89
393.537,450.477
394.991,465.948
396.445,440.955
397.899,430.437
399.354,436.173
400.808,443.094
402.262,439.122
403.716,417.891
405.171,429.114
406.625,447.628
408.079,445.761
409.533,435.521
410.987,438.397
412.442,446.089
413.896,445.94
415.35,439.078
416.804,432.97
418.259,431.355
419.713,439.007
421.167,435.589
422.621,437.552
424.075,432.999
425.53,427.893
426.984,428.575
428.438,436.895
429.892,444.106
431.346,440.156
432.801,444.556
434.255,449.216
435.709,443.539
437.163,437.326
438.618,429.038
440.072,422.768
441.526,421.094
442.98,427.086
444.434,440.347
445.889,420.701
447.343,414.705
448.797,427.075
450.251,431.871
451.706,422.318
453.16,419.393
454.614,439.484
456.068,440.035
457.522,434.864
458.977,427.109
460.431,421.411
461.885,441.332
463.339,453.41
464.794,448.931
466.248,430.698
467.702,416.333
469.156,437.876
470.61,433.693
472.065,433.306
473.519,432.334
474.973,432.331
476.427,431.48
477.882,429.696
479.336,439.18
480.79,433.682
482.244,431.985
483.698,430.236
485.153,429.088
486.607,436.05
488.061,430.116
489.515,426.232
490.969,419.916
492.424,411.818
493.878,407.741
495.332,412.702
496.786,416.92
498.241,419.489
499.695,415.424
501.149,412.753
502.603,414.357
504.057,427.459
505.512,413.019
506.966,411.739
508.42,422.325
509.874,429.731
511.329,414.888
512.783,419.034
514.237,424.114
515.691,423.93
517.145,416.634
518.6,413.57
520.054,415.477
521.508,414.393
522.962,428.741
524.417,417.136
525.871,411.515
527.325,423.925
528.779,426.851
530.233,437.994
531.688,420.469
533.142,411.295
534.596,411.218
536.05,409.697
537.505,430.677
538.959,409.959
540.413,403.905
541.867,414.744
543.321,420.374
544.776,421.029
546.23,394.064
547.684,396.922
549.138,414.049
550.592,412.283
552.047,407.397
553.501,414.941
554.955,413.44
556.409,418.044
557.864,413.609
559.318,405.436
560.772,410.279
562.226,418.336
563.68,399.483
565.135,401.757
566.589,407.215
568.043,403.828
569.497,408.89
570.952,421.812
572.406,409.869
573.86,424.016
575.314,427.139
576.768,427.51
578.223,426.138
579.677,423.652
581.131,414.569
582.585,404.985
584.039,403.408
585.494,408.69
586.948,421.574
588.402,424.776
589.856,405.522
591.311,418.437
592.765,422.232
594.219,414.772
595.673,416.257
597.127,415.161
598.582,410.179
600.036,418.802
601.49,416.253
602.944,426.372
604.399,431.494
605.853,420.221
607.307,399.431
608.761,406.496
610.215,410.562
611.67,413.509
613.124,417.37
614.578,419.082
616.032,420.703
617.487,426.477
618.941,420.861
620.395,423.936
621.849,418.371
623.303,417.952
624.758,433.048
626.212,446.539
627.666,446.961
629.12,415.53
630.575,417.6
632.029,427.151
633.483,431.768
634.937,429.812
636.391,436.344
637.846,425.05
639.3,414.693
640.754,417
642.208,428.806
643.662,428.09
645.117,434.415
646.571,423.759
648.025,424.156
649.479,439.205
650.934,440.423
652.388,426.002
653.842,427.553
655.296,435.623
656.75,422.844
658.205,426.054
659.659,435.291
661.113,444.306
662.567,442.527
664.022,438.782
665.476,446.018
666.93,448.565
668.384,454.264
669.838,449.107
671.293,442.557
672.747,462.978
674.201,448.137
675.655,448.564
677.109,441.476
678.564,434.05
680.018,449.122
681.472,457.922
682.926,458.969
684.381,459.445
685.835,446.738
687.289,449.3
688.743,451.267
690.198,461.613
691.652,449.056
693.106,442.476
694.56,448.047
696.014,452.92
697.469,444.14
698.923,446.521
700.377,470.935
701.831,449.964
703.285,460.128
704.74,456.135
706.194,452.903
707.648,449.887
709.102,445.869
710.557,453.801
712.011,441.833
713.465,452.254
714.919,466.144
716.373,462.43
717.828,450.477
719.282,462.384
720.736,472.539
722.19,461.855
723.645,463.639
725.099,461.17
726.553,458.422
728.007,460.999
729.461,463.184
730.916,465.289
732.37,465.418
733.824,461.659
735.278,453.427
736.732,454.753
738.187,457.295
739.641,468.122
741.095,469.465
742.549,455.049
744.004,452.795
745.458,457.78
746.912,463.819
748.366,448.573
749.82,471.55
751.275,450.816
752.729,446.361
754.183,449.653
755.637,452.023
757.092,456.198
758.546,442.035
760,458.751
761.454,446.866
762.908,459.475
764.363,455.232
765.817,451.655
767.271,462.154
768.725,450.493
770.18,467.867
771.634,465.19
773.088,455.541
774.542,451.469
775.996,453.989
777.451,460.911
778.905,463.407
780.359,487.452
781.813,474.684
783.268,476.312
784.722,482.477
786.176,489.135
787.63,463.702
789.084,470.754
790.539,485.123
791.993,470.601
793.447,466.331
794.901,472.424
796.355,477.16
797.81,472.446
799.264,478.461
800.718,491.316
802.172,482.89
803.627,482.215
805.081,496.601
806.535,504.437
807.989,484.986
809.443,488.011
810.898,485.451
812.352,488.588
813.806,482.197
815.26,476.97
816.715,480.573
818.169,474.696
819.623,474.029
821.077,487.143
822.531,474.072
823.986,485.333
825.44,500.099
826.894,504.482
828.348,496.574
829.802,512.988
831.257,502.455
832.711,515.15
834.165,513.19
835.619,508.858
837.074,504.714
838.528,526.5
839.982,526.455
841.436,497.532
842.891,490.864
844.345,502.107
845.799,518.821
847.253,528.491
848.707,519.29
850.162,491.743
851.616,541.525
853.07,531.161
854.524,521.223
855.978,534.38
857.433,554.072
858.887,541.397
860.341,522.713
861.795,522.496
863.25,519.264
864.704,499.628
866.158,504.246
867.612,505.556
869.066,505.314
870.521,522.778
871.975,513.946
873.429,515.457
874.883,506.062
876.338,505.407
877.792,510.028
879.246,508.628
880.7,510.585
882.154,511.371
883.609,524.509
885.063,519.976
886.517,523.607
887.971,528.836
889.425,530.584
890.88,519.601
892.334,522.172
893.788,516.73
895.242,537.68
896.697,540.021
898.151,537.12
899.605,524.458
901.059,524.935
902.513,523.808
903.968,524.042
905.422,542.379
906.876,538.396
908.33,545.231
909.785,544.918
911.239,539.319
912.693,533.832
914.147,545.929
915.601,537.119
917.056,535.37
918.51,545.705
919.964,528.816
921.418,539.745
922.873,552.275
924.327,545.965
925.781,536.506
927.235,562.453
928.689,538.817
930.144,545.721
931.598,555.244
933.052,558.229
934.506,551.557
935.961,532.035
937.415,543.725
938.869,555.488
940.323,559.633
941.777,551.369
943.232,549.573
944.686,561.474
946.14,557.618
947.594,550.63
949.048,552.251
950.503,545.446
951.957,536.369
953.411,538.391
954.865,531.25
956.32,527.275
957.774,543.174
959.228,554.927
960.682,567.533
962.136,583.813
963.591,562.755
965.045,565.464
966.499,563.831
967.953,550.61
969.408,545.056
970.862,554.84
972.316,564.65
973.77,567.491
975.224,544.212
976.679,551.947
978.133,561.33
979.587,555.767
981.041,553.046
982.495,576.198
983.95,570.656
985.404,559.897
986.858,563.752
988.312,574.897
989.767,582.919
991.221,583.593
992.675,576.268
994.129,583.162
995.583,568.732
997.038,580.004
998.492,597.611
999.946,601.574
1001.4,589.387
1002.85,580.34
1004.31,587.185
1005.76,596.635
1007.22,601.747
1008.67,607.67
1010.13,606.117
1011.58,601.543
1013.03,593.355
1014.49,605.232
1015.94,617.689
1017.4,621.878
1018.85,608.404
1020.31,625.027
1021.76,644.963
1023.21,638.499
1024.67,628.398
1026.12,644.247
1027.58,640.331
1029.03,638.708
1030.48,655.469
1031.94,642.653
1033.39,649.105
1034.85,677.589
1036.3,656.921
1037.76,662.752
1039.21,681.514
1040.66,688.689
1042.12,701.377
1043.57,693.669
1045.03,718.313
1046.48,720.677
1047.94,707.744
1049.39,719.102
1050.84,718.576
1052.3,729.991
1053.75,753.85
1055.21,753.371
1056.66,747.841
1058.11,746.526
1059.57,763.004
1061.02,767.243
1062.48,768.551
1063.93,778.609
1065.39,790.379
1066.84,789.818
1068.29,812.59
1069.75,815.868
1071.2,834.752
1072.66,821.101
1074.11,830.13
1075.57,853.147
1077.02,845.315
1078.47,833.423
1079.93,848.648
1081.38,858.145
1082.84,863.772
1084.29,873.27
1085.75,865.705
1087.2,856.569
1088.65,854.836
1090.11,857.48
1091.56,856.832
1093.02,869.144
1094.47,865.785
1095.92,862.145
1097.38,858.382
1098.83,849.808
1100.29,847.542
1101.74,847.416
1103.2,835.954
1104.65,833.727
1106.1,812.959
1107.56,807.423
1109.01,808.055
1110.47,816.289
1111.92,810.133
1113.38,804.686
1114.83,815.983
1116.28,810.916
1117.74,807.399
1119.19,803.578
1120.65,792.902
1122.1,785.141
1123.55,799.373
1125.01,805.826
1126.46,790.384
1127.92,777.914
1129.37,779.05
1130.83,774.549
1132.28,780.024
1133.73,778.441
1135.19,806.419
1136.64,783.534
1138.1,797.42
1139.55,780.943
1141.01,767.709
1142.46,759.737
1143.91,755.634
1145.37,756.444
1146.82,766.283
1148.28,762.78
1149.73,760.233
1151.18,765.916
1152.64,780.635
1154.09,773.936
1155.55,762.739
1157,776.37
1158.46,783.318
1159.91,770.441
1161.36,803.223
1162.82,784.539
1164.27,779.265
1165.73,773.783
1167.18,766.707
1168.64,766.157
1170.09,772.942
1171.54,767.565
1173,767.583
1174.45,774.124
1175.91,762.129
1177.36,776.447
1178.82,775.319
1180.27,776.973
1181.72,785.231
1183.18,784.068
1184.63,785.003
1186.09,811.161
1187.54,797.373
1188.99,801.653
1190.45,794.929
1191.9,807.148
1193.36,792.17
1194.81,793.053
1196.27,790.872
1197.72,783.982
1199.17,798.744
1200.63,804.524
1202.08,816.288
1203.54,807.988
1204.99,821.462
1206.45,807.611
1207.9,801.232
1209.35,817.993
1210.81,822.888
1212.26,812.732
1213.72,810.5
1215.17,835.212
1216.62,832.495
1218.08,817.472
1219.53,832.774
1220.99,826.437
1222.44,829.965
1223.9,837.55
1225.35,841.729
1226.8,840.596
1228.26,845.332
1229.71,860.944
1231.17,866.23
1232.62,875.522
1234.08,829.905
1235.53,860.875
1236.98,865.955
1238.44,849.499
1239.89,847.763
1241.35,867.264
1242.8,891.123
1244.25,900.022
1245.71,891.857
1247.16,867.76
1248.62,914.448
1250.07,926.992
1251.53,909.04
1252.98,925.75
1254.43,945.927
1255.89,932.038
1257.34,944.881
1258.8,980.299
1260.25,962.984
1261.71,957.634
1263.16,981.293
1264.61,961.231
1266.07,1002
1267.52,1020.49
1268.98,1034.86
1270.43,1053.12
1271.89,1079.08
1273.34,1096.22
1274.79,1095.61
1276.25,1143.46
1277.7,1117.34
1279.16,1153.85
1280.61,1180.48
1282.06,1199.72
1283.52,1230.58
1284.97,1264.89
1286.43,1309.97
1287.88,1345.13
1289.34,1332.38
1290.79,1365.17
1292.24,1420.45
1293.7,1519.83
1295.15,1524.39
1296.61,1565.19
1298.06,1615.91
1299.52,1678.34
1300.97,1736.17
1302.42,1789.34
1303.88,1863.78
1305.33,1961.52
1306.79,1984.26
1308.24,2112.59
1309.69,2178.24
1311.15,2299.98
1312.6,2407.35
1314.06,2520.45
1315.51,2625.41
1316.97,2719.38
1318.42,2808.1
1319.87,2901.66
1321.33,3031.52
1322.78,3155.62
1324.24,3198.47
1325.69,3327.89
1327.15,3338.91
1328.6,3338.89
1330.05,3357.39
1331.51,3382.2
1332.96,3376.66
1334.42,3340.41
1335.87,3296.49
1337.32,3254.96
1338.78,3166.8
1340.23,3068.03
1341.69,3001.15
1343.14,2900.15
1344.6,2748.59
1346.05,2671.39
1347.5,2551.41
1348.96,2463.63
1350.41,2367.85
1351.87,2274.96
1353.32,2214.33
1354.78,2093.74
1356.23,2002.41
1357.68,1913.78
1359.14,1876.06
1360.59,1779.71
1362.05,1672.2
1363.5,1600.49
1364.96,1575.73
1366.41,1553.29
1367.86,1504.15
1369.32,1461.86
1370.77,1438.82
1372.23,1412.62
1373.68,1361.35
1375.13,1333.1
1376.59,1321.69
1378.04,1296.07
1379.5,1270.5
1380.95,1247.38
1382.41,1242
1383.86,1218.5
1385.31,1216.72
1386.77,1219.15
1388.22,1198.47
1389.68,1193.85
1391.13,1167.55
1392.59,1135.25
1394.04,1154.85
1395.49,1178.02
1396.95,1154.22
1398.4,1159.3
1399.86,1144.58
1401.31,1137.06
1402.76,1123.27
1404.22,1120.23
1405.67,1146.29
1407.13,1118.1
1408.58,1137.89
1410.04,1123.67
1411.49,1135.3
1412.94,1114.21
1414.4,1128.51
1415.85,1116.07
1417.31,1128.32
1418.76,1134.91
1420.22,1137.86
1421.67,1131.52
1423.12,1129.58
1424.58,1159.09
1426.03,1124.02
1427.49,1140.23
1428.94,1159.71
1430.4,1155.8
1431.85,1132.76
1433.3,1157.91
1434.76,1186.12
1436.21,1176.62
1437.67,1163.19
1439.12,1180.33
1440.57,1183.71
1442.03,1178.82
1443.48,1208
1444.94,1213.7
1446.39,1203.03
1447.85,1238.43
1449.3,1214.05
1450.75,1289.83
1452.21,1276.31
1453.66,1265.9
1455.12,1274.93
1456.57,1301.65
1458.03,1297.9
1459.48,1299.92
1460.93,1309.53
1462.39,1324.51
1463.84,1340.89
1465.3,1355.67
1466.75,1354.31
1468.2,1401
1469.66,1413
1471.11,1429.25
1472.57,1455.58
1474.02,1461.51
1475.48,1471.29
1476.93,1517.76
1478.38,1528.25
1479.84,1537.57
1481.29,1570.55
1482.75,1587.8
1484.2,1612.93
1485.66,1645.85
1487.11,1681.06
1488.56,1721.4
1490.02,1749.04
1491.47,1743.57
1492.93,1777.81
1494.38,1822.33
1495.83,1896.18
1497.29,1935.3
1498.74,1972.7
1500.2,2026.73
1501.65,2076.67
1503.11,2168.67
1504.56,2214.16
1506.01,2289.83
1507.47,2343.56
1508.92,2431.52
1510.38,2520.96
1511.83,2612.33
1513.29,2715.28
1514.74,2847.01
1516.19,2963.62
1517.65,3121.38
1519.1,3299.75
1520.56,3503.66
1522.01,3711.32
1523.46,3944.05
1524.92,4201.29
1526.37,4462.09
1527.83,4718.16
1529.28,5129.86
1530.74,5504.99
1532.19,5984.08
1533.64,6523.49
1535.1,7084.87
1536.55,7692.94
1538.01,8313.94
1539.46,9052.41
1540.92,9838.67
1542.37,10661.3
1543.82,11557
1545.28,12510.7
1546.73,13483.1
1548.19,14433.5
1549.64,15511.4
1551.1,16443.7
1552.55,17430.6
1554,18431.1
1555.46,19404.5
1556.91,20231.9
1558.37,21115.8
1559.82,21582.5
1561.27,21817.6
1562.73,21988.9
1564.18,22043.5
1565.64,21773.5
1567.09,21130.4
1568.55,20456.7
1570,19590.8
1571.45,18547.8
1572.91,17382.5
1574.36,16168.3
1575.82,15008.3
1577.27,13678.7
1578.73,12683.4
1580.18,11692.4
1581.63,10702.6
1583.09,9871.81
1584.54,9127.11
1586,8381.21
1587.45,7751.34
1588.9,7224.1
1590.36,6694.65
1591.81,6290.05
1593.27,5855.39
1594.72,5541.61
1596.18,5284.47
1597.63,4988.93
1599.08,4801.85
1600.54,4542.27
1601.99,4259.72
1603.45,4116.66
1604.9,3932.88
1606.36,3697.49
1607.81,3531.71
1609.26,3363.07
1610.72,3205.54
1612.17,3063.42
1613.63,2889.44
1615.08,2760.24
1616.54,2653.66
1617.99,2532.08
1619.44,2418.19
1620.9,2292.58
1622.35,2240.01
1623.81,2175.16
1625.26,2094.29
1626.71,1976.07
1628.17,1933.53
1629.62,1883.97
1631.08,1831.22
1632.53,1779.57
1633.99,1747.73
1635.44,1726.02
1636.89,1690.67
1638.35,1639.52
1639.8,1578.21
1641.26,1555.94
1642.71,1554.39
1644.17,1525.08
1645.62,1468.01
1647.07,1467.91
1648.53,1427.82
1649.98,1405.76
1651.44,1379.76
1652.89,1389.88
1654.34,1351.54
1655.8,1350.02
1657.25,1324.92
1658.71,1324.06
1660.16,1297.16
1661.62,1266.54
1663.07,1229.81
1664.52,1220.82
1665.98,1220.95
1667.43,1202.06
1668.89,1202.17
1670.34,1187.49
1671.8,1176.2
1673.25,1147.2
1674.7,1147.18
1676.16,1123.03
1677.61,1128.09
1679.07,1098.87
1680.52,1119.76
1681.97,1127.33
1683.43,1094.53
1684.88,1059.02
1686.34,1048.23
1687.79,1065.63
1689.25,1055.22
1690.7,1038.4
1692.15,1023.99
1693.61,1003.91
1695.06,1018.74
1696.52,1032.56
1697.97,1021.05
1699.43,995.564
1700.88,991.236
1702.33,984.227
1703.79,1009.98
1705.24,983.214
1706.7,971.526
1708.15,999.054
1709.6,983.701
1711.06,947.619
1712.51,963.108
1713.97,975.269
1715.42,963.172
1716.88,965.312
1718.33,967.2
1719.78,950.617
1721.24,942.3
1722.69,951.301
1724.15,960.525
1725.6,952.962
1727.06,952.564
1728.51,967.604
1729.96,966.438
1731.42,957.747
1732.87,959.031
1734.33,971.161
1735.78,950.192
1737.24,946.329
1738.69,958.687
1740.14,944.683
1741.6,916.686
1743.05,914.592
1744.51,933.024
1745.96,942.757
1747.41,917.92
1748.87,909.115
1750.32,905.857
1751.78,909.145
1753.23,896.178
1754.69,894.89
1756.14,902.82
1757.59,892.975
1759.05,887.546
1760.5,882.24
1761.96,871.773
1763.41,895.347
1764.87,889.922
1766.32,847.89
1767.77,864.884
1769.23,869.311
1770.68,871.114
1772.14,855.797
1773.59,874.781
1775.04,852.347
1776.5,847.505
1777.95,833.497
1779.41,827.66
1780.86,849.726
1782.32,833.155
1783.77,838.386
1785.22,828.745
1786.68,834.578
1788.13,848.95
1789.59,852.46
1791.04,853.657
1792.5,836.947
1793.95,831.647
1795.4,844.13
1796.86,838.197
1798.31,799.613
1799.77,806.828
1801.22,814.746
1802.68,800.615
1804.13,822.829
1805.58,826.33
1807.04,834.803
1808.49,826.037
1809.95,807.871
1811.4,830.599
1812.85,833.994
1814.31,818.236
1815.76,848.992
1817.22,805.525
1818.67,809.481
1820.13,840.922
1821.58,825.627
1823.03,828.934
1824.49,830.978
1825.94,843.678
1827.4,818.035
1828.85,821.923
1830.31,816.109
1831.76,817.102
1833.21,826.51
1834.67,849.912
1836.12,828.264
1837.58,834.723
1839.03,857.728
1840.48,834.049
1841.94,838.385
1843.39,847.109
1844.85,864.645
1846.3,862.112
1847.76,865.32
1849.21,876.504
1850.66,863.878
1852.12,859.461
1853.57,878.139
1855.03,864.003
1856.48,837.804
1857.94,877.374
1859.39,876.153
1860.84,892.179
1862.3,901.01
1863.75,883.028
1865.21,894.189
1866.66,912.159
1868.11,874.572
1869.57,877.847
1871.02,899.652
1872.48,868.798
1873.93,857.625
1875.39,855.862
1876.84,853.355
1878.29,846.858
1879.75,846.011
1881.2,846.91
1882.66,830.688
1884.11,838.263
1885.57,847.78
1887.02,827.192
1888.47,819.841
1889.93,819.297
1891.38,806.361
1892.84,804.351
1894.29,815.553
1895.75,810.316
1897.2,788.109
1898.65,785.595
1900.11,791.717
1901.56,778.215
1903.02,786.276
1904.47,792.007
1905.92,768.281
1907.38,755.582
1908.83,769.423
1910.29,779.043
1911.74,799.562
1913.2,782.633
1914.65,768.461
1916.1,750.567
1917.56,747.962
1919.01,762.304
1920.47,757.796
1921.92,773.972
1923.38,762.938
1924.83,755.014
1926.28,758.48
1927.74,771.642
1929.19,781.275
1930.65,782.329
1932.1,765.27
1933.55,769.91
1935.01,780.21
1936.46,771.202
1937.92,762.08
1939.37,775.776
1940.83,770.372
1942.28,777.96
1943.73,781.542
1945.19,775.696
1946.64,773.21
1948.1,777.332
1949.55,769.57
1951.01,769.171
1952.46,770.26
1953.91,764.56
1955.37,758.268
1956.82,769.277
1958.28,773.045
1959.73,782.724
1961.18,802.549
1962.64,801.155
1964.09,784.327
1965.55,781.614
1967,778.224
1968.46,768.848
1969.91,784.472
1971.36,815.776
1972.82,815.722
1974.27,816.677
1975.73,807.518
1977.18,807.356
1978.64,800.623
1980.09,797.758
1981.54,794.511
1983,803.138
1984.45,805.811
1985.91,810.565
1987.36,827.686
1988.82,806.938
1990.27,816.839
1991.72,801.767
1993.18,798.8
1994.63,802.796
1996.09,794.973
1997.54,819.68
1998.99,821.615
2000.45,824.125
2001.9,829.997
2003.36,800.099
2004.81,805.15
2006.27,792.183
2007.72,810.371
2009.17,806.068
2010.63,810.036
2012.08,824.234
2013.54,801.719
2014.99,776.898
2016.45,770.661
2017.9,788.258
2019.35,790.828
2020.81,760.721
2022.26,780.926
2023.72,781.164
2025.17,746.738
2026.62,750.676
2028.08,771.159
2029.53,796.654
2030.99,785.651
2032.44,760.475
2033.9,752.358
2035.35,763.583
2036.8,756.702
2038.26,729.693
2039.71,748.427
2041.17,733.033
2042.62,740.757
2044.08,747.933
2045.53,754.3
2046.98,751.339
2048.44,730.941
2049.89,740.27
2051.35,734.282
2052.8,722.739
2054.25,716.182
2055.71,718.16
2057.16,717.747
2058.62,712.183
2060.07,707.108
2061.53,721.453
2062.98,723.094
2064.43,713.393
2065.89,715.163
2067.34,705.509
2068.8,703.244
2070.25,694.177
2071.71,700.619
2073.16,696.955
2074.61,701.762
2076.07,689.401
2077.52,686.526
2078.98,713.41
2080.43,716.629
2081.89,706.559
2083.34,691.418
2084.79,682.327
2086.25,671.644
2087.7,682.188
2089.16,692.228
2090.61,691.617
2092.06,683.184
2093.52,690.348
2094.97,685.474
2096.43,675.078
2097.88,690.513
2099.34,701.706
2100.79,701.869
2102.24,693.01
2103.7,701.028
2105.15,695.367
2106.61,677.717
2108.06,693.123
2109.52,685.738
2110.97,672.531
2112.42,667.463
2113.88,681.704
2115.33,686.068
2116.79,681.831
2118.24,694.62
2119.69,718.453
2121.15,708.529
2122.6,683.419
2124.06,686.957
2125.51,699.808
2126.97,699.655
2128.42,679.053
2129.87,685.192
2131.33,704.217
2132.78,697.84
2134.24,687.16
2135.69,701.161
2137.15,705.791
2138.6,716.322
2140.05,720.476
2141.51,693.76
2142.96,693.789
2144.42,719.002
2145.87,709.91
2147.32,710.322
2148.78,719.03
2150.23,708.706
2151.69,714.487
2153.14,736.498
2154.6,723.977
2156.05,723.369
2157.5,719.755
2158.96,730.905
2160.41,714.512
2161.87,711.601
2163.32,708.915
2164.78,708.185
2166.23,711.596
2167.68,724.089
2169.14,731.467
2170.59,733.223
2172.05,732.106
2173.5,748.016
2174.96,728.427
2176.41,747.841
2177.86,766.538
2179.32,768.373
2180.77,758.437
2182.23,754.716
2183.68,770.133
2185.13,757.934
2186.59,741.587
2188.04,763.17
2189.5,740.869
2190.95,723.931
2192.41,755.347
2193.86,738.316
2195.31,747.062
2196.77,768.404
2198.22,754.482
2199.68,757.938
2201.13,757.891
2202.59,745.206
2204.04,753.916
2205.49,762.469
2206.95,744.67
2208.4,766.141
2209.86,755.381
2211.31,743.403
2212.76,756.633
2214.22,767.625
2215.67,760.847
2217.13,752.064
2218.58,743.188
2220.04,764.538
2221.49,757.321
2222.94,775.802
2224.4,766.964
2225.85,778.104
2227.31,792.395
2228.76,761.708
2230.22,742.66
2231.67,761.594
2233.12,760.21
2234.58,775.605
2236.03,779.722
2237.49,783.61
2238.94,768.22
2240.4,758.992
2241.85,762.382
2243.3,769.422
2244.76,769.821
2246.21,777.064
2247.67,791.611
2249.12,787.746
2250.57,774.164
2252.03,780.279
2253.48,800.713
2254.94,789.256
2256.39,790.377
2257.85,806.266
2259.3,791.598
2260.75,802.733
2262.21,794.248
2263.66,786.606
2265.12,787.682
2266.57,795.055
2268.03,798.423
2269.48,778.737
2270.93,797.625
2272.39,803.844
2273.84,804.796
2275.3,795.995
2276.75,820.516
2278.2,826.658
2279.66,831.356
2281.11,823.584
2282.57,834.843
2284.02,809.352
2285.48,833.914
2286.93,809.138
2288.38,811.138
2289.84,830.806
2291.29,837.177
2292.75,823.056
2294.2,838.73
2295.66,856.312
2297.11,868.15
2298.56,867.534
2300.02,859.229
2301.47,883.258
2302.93,876.475
2304.38,867.099
2305.83,842.639
2307.29,856.552
2308.74,871.381
2310.2,867.17
2311.65,872.514
2313.11,893.772
2314.56,903.092
2316.01,911.08
2317.47,880.008
2318.92,891.056
2320.38,907.843
2321.83,918.779
2323.29,925.238
2324.74,914.567
2326.19,914.155
2327.65,918.722
2329.1,917.572
2330.56,908.932
2332.01,933.154
2333.47,931.621
2334.92,940.017
2336.37,925.623
2337.83,934.828
2339.28,923.704
2340.74,939.126
2342.19,944.027
2343.64,952.537
2345.1,959.422
2346.55,966.884
2348.01,960.164
2349.46,961.907
2350.92,982.824
2352.37,978.281
2353.82,993.02
2355.28,1012.16
2356.73,1019.7
2358.19,999.6
2359.64,1003.06
2361.1,1004.62
2362.55,1034.65
2364,1052.94
2365.46,1049.1
2366.91,1074.4
2368.37,1101.18
2369.82,1086.81
2371.27,1091.95
2372.73,1119.94
2374.18,1114.04
2375.64,1149.87
2377.09,1142.79
2378.55,1166.74
2380,1192.07
2381.45,1214.11
2382.91,1204.69
2384.36,1223.16
2385.82,1248.17
2387.27,1275
2388.73,1302.44
2390.18,1360.57
2391.63,1365.13
2393.09,1346.39
2394.54,1397.86
2396,1413.54
2397.45,1429.6
2398.9,1479.69
2400.36,1488.01
2401.81,1515.79
2403.27,1544.45
2404.72,1590.26
2406.18,1582.35
2407.63,1619.95
2409.08,1654.73
2410.54,1665.93
2411.99,1679.65
2413.45,1706.97
2414.9,1710.82
2416.36,1734.97
2417.81,1754.88
2419.26,1772.78
2420.72,1799.86
2422.17,1753.78
2423.63,1810.32
2425.08,1805.17
2426.53,1817.44
2427.99,1817.07
2429.44,1807.62
2430.9,1787.66
2432.35,1785.36
2433.81,1776.23
2435.26,1791.64
2436.71,1774.91
2438.17,1765.45
2439.62,1783.97
2441.08,1776.45
2442.53,1761.04
2443.99,1739.63
2445.44,1741.1
2446.89,1698.69
2448.35,1679.06
2449.8,1650.22
2451.26,1664.67
2452.71,1664.26
2454.17,1657.31
2455.62,1623.94
2457.07,1616.67
2458.53,1665.81
2459.98,1659.55
2461.44,1605.3
2462.89,1587.12
2464.34,1593.86
2465.8,1595.54
2467.25,1586.77
2468.71,1577.53
2470.16,1594.41
2471.62,1567.06
2473.07,1532.33
2474.52,1519.64
2475.98,1527.93
2477.43,1525.24
2478.89,1522.67
2480.34,1512.02
2481.8,1522.39
2483.25,1547.14
2484.7,1564.01
2486.16,1539.49
2487.61,1512.52
2489.07,1482.82
2490.52,1524.64
2491.97,1512.7
2493.43,1524.26
2494.88,1506.98
2496.34,1544.08
2497.79,1540.71
2499.25,1549.74
2500.7,1562.81
2502.15,1558.45
2503.61,1552.92
2505.06,1543.48
2506.52,1557.21
2507.97,1570.94
2509.43,1581.67
2510.88,1569.88
2512.33,1607.33
2513.79,1610.07
2515.24,1616.33
2516.7,1609.89
2518.15,1634.53
2519.6,1649.92
2521.06,1626.34
2522.51,1660.3
2523.97,1695.03
2525.42,1680.69
2526.88,1706.95
2528.33,1733.91
2529.78,1740.89
2531.24,1741.11
2532.69,1741.23
2534.15,1764.25
2535.6,1814.44
2537.06,1827.75
2538.51,1855.17
2539.96,1879.99
2541.42,1882.28
2542.87,1865.53
2544.33,1929.68
2545.78,1974.57
2547.24,1966.06
2548.69,2012.91
2550.14,2027.81
2551.6,2064.43
2553.05,2099.31
2554.51,2104.46
2555.96,2169.14
2557.41,2206.63
2558.87,2253.85
2560.32,2320.51
2561.78,2356.15
2563.23,2368.26
2564.69,2404.03
2566.14,2430.97
2567.59,2491.27
2569.05,2562.13
2570.5,2611.21
2571.96,2679.16
2573.41,2754.62
2574.87,2831.55
2576.32,2821.28
2577.77,2935.64
2579.23,3039.04
2580.68,3107.59
2582.14,3180.94
2583.59,3245.69
2585.04,3303.18
2586.5,3411.15
2587.95,3543.8
2589.41,3671.56
2590.86,3749.87
2592.32,3874.63
2593.77,4003.73
2595.22,4122.19
2596.68,4289.48
2598.13,4443.92
2599.59,4592.67
2601.04,4809.52
2602.5,4920.48
2603.95,5102.29
2605.4,5300.42
2606.86,5514.14
2608.31,5675.32
2609.77,5909.58
2611.22,6147.85
2612.68,6405.63
2614.13,6636.49
2615.58,6931.01
2617.04,7242.86
2618.49,7526.96
2619.95,7800.45
2621.4,8103.42
2622.85,8488.67
2624.31,8736.05
2625.76,9128.55
2627.22,9438.22
2628.67,9746.84
2630.13,10173.8
2631.58,10546.1
2633.03,10827.8
2634.49,11250
2635.94,11525.7
2637.4,11921.9
2638.85,12353.6
2640.31,12589.3
2641.76,12881.1
2643.21,13157.2
2644.67,13430.4
2646.12,13751.2
2647.58,13985.8
2649.03,14147.5
2650.48,14281.7
2651.94,14486.5
2653.39,14532
2654.85,14678.7
2656.3,14805.7
2657.76,14724.9
2659.21,14745
2660.66,14752.9
2662.12,14563.4
2663.57,14478.7
2665.03,14397.3
2666.48,14159.4
2667.94,13928.2
2669.39,13594.9
2670.84,13365.6
2672.3,13118.8
2673.75,12799.9
2675.21,12539.4
2676.66,12254.3
2678.11,11946.1
2679.57,11454.6
2681.02,11131.5
2682.48,10683.4
2683.93,10412.4
2685.39,10054
2686.84,9665.2
2688.29,9233.33
2689.75,8897.6
2691.2,8552.58
2692.66,8140.69
2694.11,7905.43
2695.57,7533.24
2697.02,7233.73
2698.47,6893.3
2699.93,6641.1
2701.38,6329.52
2702.84,6113.66
2704.29,5845.89
2705.75,5583.18
2707.2,5337.97
2708.65,5126
2710.11,4931.14
2711.56,4720.33
2713.02,4538.92
2714.47,4436.17
2715.92,4197.78
2717.38,4068.23
2718.83,3935.63
2720.29,3792.24
2721.74,3656.16
2723.2,3552.73
2724.65,3377.13
2726.1,3267.8
2727.56,3171.29
2729.01,3107.26
2730.47,2996.71
2731.92,2921.41
2733.38,2832.26
2734.83,2701.32
2736.28,2646.86
2737.74,2599.32
2739.19,2571.26
2740.65,2487.02
2742.1,2398.98
2743.55,2335.45
2745.01,2334.28
2746.46,2271.37
2747.92,2218.39
2749.37,2127.92
2750.83,2168.25
2752.28,2055.62
2753.73,2059.36
2755.19,2008.28
2756.64,1942.06
2758.1,1911.76
2759.55,1893.52
2761.01,1879.22
2762.46,1821.66
2763.91,1757.84
2765.37,1762.89
2766.82,1761.51
2768.28,1710.74
2769.73,1687.16
2771.18,1666.92
2772.64,1650
2774.09,1606.39
2775.55,1628.29
2777,1590.41
2778.46,1567.35
2779.91,1531.71
2781.36,1544.26
2782.82,1529.67
2784.27,1526.64
2785.73,1508.93
2787.18,1503.11
2788.64,1443.62
2790.09,1437.39
2791.54,1448.63
2793,1428.52
2794.45,1410.5
2795.91,1365.6
2797.36,1361.9
2798.82,1361.43
2800.27,1390.47
2801.72,1363.69
2803.18,1318.06
2804.63,1361.91
2806.09,1332.97
2807.54,1319.96
2808.99,1316.94
2810.45,1294.72
2811.9,1273.5
2813.36,1265.57
2814.81,1300.68
2816.27,1267.96
2817.72,1244.58
2819.17,1255.13
2820.63,1256.2
2822.08,1234.63
2823.54,1213.94
2824.99,1223.71
2826.45,1221.07
2827.9,1202.07
2829.35,1212.97
2830.81,1202.47
2832.26,1255.21
2833.72,1200.11
2835.17,1185.77
2836.62,1209.19
2838.08,1196.15
2839.53,1178.61
2840.99,1195.12
2842.44,1199.11
2843.9,1185.14
2845.35,1176.55
2846.8,1191.22
2848.26,1181.07
2849.71,1160.76
2851.17,1172.62
2852.62,1189.37
2854.08,1153.12
2855.53,1139.61
2856.98,1142.72
2858.44,1152.86
2859.89,1144.23
2861.35,1156.53
2862.8,1174.71
2864.25,1156.43
2865.71,1180.7
2867.16,1161.9
2868.62,1143.67
2870.07,1139.19
2871.53,1132.39
2872.98,1161.71
2874.43,1190.28
2875.89,1142.87
2877.34,1144.9
2878.8,1162.11
2880.25,1166.29
2881.71,1171.23
2883.16,1165.08
2884.61,1145.96
2886.07,1151.04
2887.52,1148.79
2888.98,1140.55
2890.43,1170.55
2891.89,1199.03
2893.34,1174.29
2894.79,1169.18
2896.25,1164.5
2897.7,1189.08
2899.16,1178.95
2900.61,1170.01
2902.06,1163.28
2903.52,1164.92
2904.97,1136.42
2906.43,1147.67
2907.88,1159.97
2909.34,1143.6
2910.79,1145
2912.24,1127.52
2913.7,1105.48
2915.15,1127.5
2916.61,1110.4
2918.06,1092.06
2919.52,1099.05
2920.97,1093.77
2922.42,1076.02
2923.88,1081.35
2925.33,1060.81
2926.79,1060.41
2928.24,1056.92
2929.69,1047.86
2931.15,1063.85
2932.6,1032.19
2934.06,1054.62
2935.51,1032.63
2936.97,1013.73
2938.42,1005.61
2939.87,988.497
2941.33,962.161
2942.78,970.071
2944.24,992.932
2945.69,970.925
2947.15,960.132
2948.6,939.198
2950.05,933.537
2951.51,930.438
2952.96,889.987
2954.42,882.467
2955.87,913.704
2957.32,882.305
2958.78,877.817
2960.23,865.601
2961.69,887.438
2963.14,868.348
2964.6,843.885
2966.05,834.776
2967.5,824.004
2968.96,850.368
2970.41,838.157
2971.87,858.338
2973.32,845.798
2974.78,829.059
2976.23,817.875
2977.68,802.39
2979.14,799.715
2980.59,823.028
2982.05,804.776
2983.5,791.597
2984.96,804.342
2986.41,786.008
2987.86,793.875
2989.32,796.704
2990.77,766.42
2992.23,805.445
2993.68,762.111
2995.13,775.96
2996.59,772.682
2998.04,788.948
2999.5,771.391
3000.95,768.18
3002.41,767.874
3003.86,762.884
3005.31,766.821
3006.77,758.155
3008.22,757.826
3009.68,744.608
3011.13,738.36
3012.59,733.556
3014.04,744.165
3015.49,745.071
3016.95,765.748
3018.4,751.697
3019.86,734.955
3021.31,751.835
3022.76,756.322
3024.22,725.499
3025.67,736.726
3027.13,739.641
3028.58,729.609
3030.04,757.727
3031.49,722.884
3032.94,725.59
3034.4,735.526
3035.85,737.036
3037.31,725.204
3038.76,718.675
3040.22,723.909
3041.67,739.228
3043.12,722.489
3044.58,726.166
3046.03,741.252
3047.49,733.709
3048.94,712.522
3050.4,745.562
3051.85,727.936
3053.3,733.201
3054.76,719.249
3056.21,737.692
3057.67,758.866
3059.12,732.212
3060.57,731.23
3062.03,773.116
3063.48,748.364
3064.94,746.213
3066.39,747.893
3067.85,759.058
3069.3,744.886
3070.75,742.519
3072.21,766.497
3073.66,764.892
3075.12,755.921
3076.57,767.019
3078.03,781.687
3079.48,759.747
3080.93,780.356
3082.39,768.604
3083.84,765.822
3085.3,741.821
3086.75,792.433
3088.2,779.17
3089.66,791.897
3091.11,826.209
3092.57,806.934
3094.02,796.495
3095.48,822.884
3096.93,845.169
3098.38,825.682
3099.84,832.585
3101.29,863.969
3102.75,865.073
3104.2,837.978
3105.66,856.175
3107.11,941.144
3108.56,897.297
3110.02,901.709
3111.47,939.198
3112.93,947.33
3114.38,956.173
3115.83,972.58
3117.29,975.337
3118.74,977.774
3120.2,991.763
3121.65,991.704
3123.11,1001.31
3124.56,1035.01
3126.01,998.498
3127.47,1033.38
3128.92,1060.56
3130.38,1068.72
3131.83,1097.79
3133.29,1086.43
3134.74,1080.1
3136.19,1113.55
3137.65,1103.27
3139.1,1100.91
3140.56,1101.73
3142.01,1095.23
3143.47,1098.95
3144.92,1102.34
3146.37,1109.61
3147.83,1144.25
3149.28,1091.89
3150.74,1133.49
3152.19,1169.6
3153.64,1168.02
3155.1,1131.17
3156.55,1153.15
3158.01,1107.43
3159.46,1129.53
3160.92,1152.9
3162.37,1159.18
3163.82,1180.23
3165.28,1173.61
3166.73,1183.05
3168.19,1201.58
3169.64,1227.17
3171.1,1212.2
3172.55,1213.94
3174,1227.23
3175.46,1231.22
3176.91,1259.1
3178.37,1293.99
3179.82,1262.55
3181.27,1309.25
3182.73,1323.07
3184.18,1330.98
3185.64,1361.61
3187.09,1385.52
3188.55,1402
3190,1401.26
3191.45,1412.38
3192.91,1430.06
3194.36,1424.41
3195.82,1422.02
3197.27,1441.01
3198.73,1447.92
3200.18,1435.43
3201.63,1440.84
3203.09,1425.17
3204.54,1449.13
3206,1430.43
3207.45,1403.49
3208.9,1382.14
3210.36,1387.02
3211.81,1377.44
3213.27,1344.26
3214.72,1317.65
3216.18,1311.33
3217.63,1262.14
3219.08,1240.97
3220.54,1211.76
3221.99,1167.19
3223.45,1140.5
3224.9,1100.24
3226.36,1086.85
3227.81,1097.44
3229.26,1039.15
3230.72,1020.31
3232.17,981.401
3233.63,962.863
3235.08,946.251
3236.53,896.239
3237.99,898.832
3239.44,844.916
3240.9,837.825
3242.35,829.128
3243.81,828.061
3245.26,800.936
3246.71,775.147
3248.17,760.139
3249.62,774.637
3251.08,754.113
3252.53,733.388
3253.99,734.295
3255.44,720.095
3256.89,704.289
3258.35,716.134
3259.8,700.186
3261.26,683.011
3262.71,672.182
3264.17,679.461
3265.62,669.511
3267.07,656.204
3268.53,660.01
3269.98,645.949
3271.44,639.447
3272.89,663.203
3274.34,662.307
3275.8,626.775
3277.25,623.954
3278.71,622.541
3280.16,620.757
3281.62,621.914
3283.07,623.538
3284.52,611.065
3285.98,624.827
3287.43,605.792
3288.89,608.2
3290.34,610.045
3291.8,586.21
3293.25,602.715
3294.7,634.411
3296.16,616.133
3297.61,609.773
3299.07,602.403
3300.52,620.017
3301.97,615.523
3303.43,589.761
3304.88,605.583
3306.34,609.58
3307.79,599.139
3309.25,621.959
3310.7,589.731
3312.15,603.831
3313.61,592.425
3315.06,591.259
3316.52,596.656
3317.97,579.086
3319.43,601.416
3320.88,599.142
3322.33,589.946
3323.79,592.533
3325.24,598.839
3326.7,602.609
3328.15,587.333
3329.6,587.042
3331.06,596.397
3332.51,593.796
3333.97,592.891
3335.42,607.777
3336.88,559.977
3338.33,600.402
3339.78,581.979
3341.24,576.079
3342.69,581.344
3344.15,590.157
3345.6,589.987
3347.06,586.431
3348.51,596.708
3349.96,568.211
3351.42,581.533
3352.87,568.132
3354.33,577.401
3355.78,583.676
3357.24,589.731
3358.69,586.63
3360.14,576.394
3361.6,594.305
3363.05,574.947
3364.51,576.024
3365.96,586.928
3367.41,589.103
3368.87,576.764
3370.32,575.213
3371.78,562.468
3373.23,569.426
3374.69,583.194
3376.14,593.64
3377.59,580.044
3379.05,567
3380.5,561.717
3381.96,575.175
3383.41,577.716
3384.87,559.113
3386.32,565.5
3387.77,586.953
3389.23,573.393
3390.68,584.815
3392.14,565.311
3393.59,580.595
3395.04,620.496
3396.5,581.094
3397.95,572.51
3399.41,578.136
3400.86,564.831
3402.32,581.475
3403.77,589.623
3405.22,570.133
3406.68,559.09
3408.13,566.646
3409.59,580.023
3411.04,587.386
3412.5,566.539
3413.95,564.59
3415.4,561.854
3416.86,560.224
3418.31,582.181
3419.77,568.552
3421.22,581.171
3422.68,579.946
3424.13,534.045
3425.58,584.817
3427.04,574.445
3428.49,574.685
3429.95,564.092
3431.4,575.531
3432.85,567.434
3434.31,551.501
3435.76,573.91
3437.22,576.19
3438.67,559.796
3440.13,568.985
3441.58,537.674
3443.03,556.85
3444.49,570.283
3445.94,554.392
3447.4,543.015
3448.85,576.796
3450.31,546.315
3451.76,573.422
3453.21,572.863
3454.67,584.526
3456.12,555.165
3457.58,588.943
3459.03,566.414
3460.48,588.237
3461.94,579.932
3463.39,573.706
3464.85,575.286
3466.3,554.467
3467.76,552.504
3469.21,554.86
3470.66,571.467
3472.12,564.91
3473.57,565.883
3475.03,558.799
3476.48,559.751
3477.94,575.677
3479.39,589.254
3480.84,557.289
3482.3,560.924
3483.75,573.286
3485.21,568.034
3486.66,552.752
3488.11,573.216
3489.57,564.929
3491.02,561.511
3492.48,583.154
3493.93,571.322
3495.39,556.698
3496.84,572.649
3498.29,575.399
3499.75,567.112
3501.2,555.791
3502.66,568.842
3504.11,558.286
3505.57,550.001
3507.02,578.008
3508.47,573.746
3509.93,573.656
3511.38,574.464
3512.84,564.375
3514.29,552.008
3515.75,580.409
3517.2,569.338
3518.65,576.621
3520.11,585.333
3521.56,565.836
3523.02,562.896
3524.47,570.141
3525.92,556.994
3527.38,557.692
3528.83,577.974
3530.29,571.517
3531.74,573.436
3533.2,585.818
3534.65,579.875
3536.1,590.458
3537.56,565.968
3539.01,544.42
3540.47,578.931
3541.92,576.617
3543.38,544.006
3544.83,547.867
3546.28,559.483
3547.74,561.712
3549.19,579.815
3550.65,590.237
3552.1,557.361
3553.55,574.82
3555.01,582.041
3556.46,574.329
3557.92,572.792
3559.37,543.492
3560.83,565.547
3562.28,561.7
3563.73,552.4
3565.19,558.04
3566.64,541.743
3568.1,548.829
3569.55,556.373
3571.01,560.242
3572.46,565.461
3573.91,555.792
3575.37,548.343
3576.82,560.611
3578.28,565.273
3579.73,569.096
3581.18,578.975
3582.64,573.831
3584.09,553.378
3585.55,566.047
3587,577.456
3588.46,549.006
3589.91,554.959
3591.36,549.975
3592.82,547.088
3594.27,542.011
3595.73,572.45
3597.18,572.13
3598.64,576.942
3600.09,575.558
3601.54,580.315
3603,576.451
3604.45,568.351
3605.91,555.272
3607.36,575.546
3608.82,572.364
3610.27,561.426
3611.72,570.634
3613.18,538.658
3614.63,572.986
3616.09,564.087
3617.54,572.074
3618.99,579.803
3620.45,591.779
3621.9,556.068
3623.36,572.605
3624.81,576.108
3626.27,567.134
3627.72,575.068
3629.17,561.213
3630.63,583.836
3632.08,557.997
3633.54,556.012
3634.99,579.268
3636.45,574.633
3637.9,563.146
3639.35,565.901
3640.81,560.254
3642.26,573.11
3643.72,553.212
3645.17,545.696
3646.62,561.848
3648.08,578.942
3649.53,559.581
3650.99,586.241
3652.44,580.404
3653.9,560.228
3655.35,571.518
3656.8,577.055
3658.26,582.404
3659.71,593.437
3661.17,573.563
3662.62,567.662
3664.08,563.78
3665.53,580.966
3666.98,561.981
3668.44,578.052
3669.89,587.235
3671.35,587.32
3672.8,578.815
3674.25,568.721
3675.71,576.801
3677.16,568.15
3678.62,572.169
3680.07,569.848
3681.53,569.347
3682.98,571.838
3684.43,565.825
3685.89,576.207
3687.34,571.891
3688.8,592.466
3690.25,575.681
3691.71,571.344
3693.16,585.584
3694.61,548.087
3696.07,554.903
3697.52,562.739
3698.98,585.059
3700.43,553.673
3701.89,581.558
3703.34,571.088
3704.79,556.775
3706.25,581.24
3707.7,567.046
3709.16,563.73
3710.61,573.632
3712.06,592.985
3713.52,605.898
3714.97,585.234
3716.43,586.639
3717.88,562.907
3719.34,582.656
3720.79,586.449
3722.24,579.414
3723.7,583.165
3725.15,599.337
3726.61,593.015
3728.06,608.037
3729.52,574.915
3730.97,580.595
3732.42,568.008
3733.88,582.202
3735.33,607.192
3736.79,595.889
3738.24,570.455
3739.69,579.828
3741.15,591.229
3742.6,596.503
3744.06,596.676
3745.51,571.854
3746.97,573.013
3748.42,590.152
3749.87,586.981
3751.33,585.823
3752.78,575.374
3754.24,576.693
3755.69,576.257
3757.15,589.159
3758.6,620.957
3760.05,597.315
3761.51,603.088
3762.96,585.296
3764.42,578.581
3765.87,582.497
3767.32,582.776
3768.78,585.743
3770.23,576.777
3771.69,586.658
3773.14,588.272
3774.6,592.15
3776.05,584.292
3777.5,608.891
3778.96,583.243
3780.41,595.6
3781.87,579.105
3783.32,581.077
3784.78,613.112
3786.23,597.085
3787.68,584.726
3789.14,588.932
3790.59,602.965
3792.05,578.091
3793.5,609.048
3794.96,586.256
3796.41,567.606
3797.86,570.056
3799.32,599.702
3800.77,587.327
3802.23,612.511
3803.68,572.055
3805.13,599.591
3806.59,612.192
3808.04,612.519
3809.5,584.023
3810.95,591.143
3812.41,639.527
3813.86,612.608
3815.31,618.23
3816.77,599.943
3818.22,621.457
3819.68,639.109
3821.13,644.169
3822.59,621.787
3824.04,615.471
3825.49,620.188
3826.95,608.58
3828.4,605.051
3829.86,594.704
3831.31,613.816
3832.76,591.983
3834.22,620.406
3835.67,601.612
3837.13,600.2
3838.58,630.061
3840.04,611.477
3841.49,610.192
3842.94,563.171
3844.4,611.684
3845.85,603.43
3847.31,602.191
3848.76,638.473
3850.22,612.819
3851.67,615.486
3853.12,635.696
3854.58,602.741
3856.03,627.462
3857.49,599.952
3858.94,606.777
3860.4,645.756
3861.85,645.994
3863.3,627.758
3864.76,622.537
3866.21,646.624
3867.67,620.269
3869.12,620.726
3870.57,605.783
3872.03,616.355
3873.48,632.8
3874.94,646.191
3876.39,650.514
3877.85,615.065
3879.3,615.439
3880.75,621.438
3882.21,609.494
3883.66,632.882
3885.12,653.781
3886.57,652.781
3888.03,637.322
3889.48,634.027
3890.93,637.641
3892.39,646.238
3893.84,654.195
3895.3,643.413
3896.75,649.122
3898.2,630.226
3899.66,661.348
3901.11,662.959
3902.57,668.157
3904.02,665.293
3905.48,650.568
3906.93,642.064
3908.38,653.915
3909.84,673.675
3911.29,629.99
3912.75,648.448
3914.2,664.916
3915.66,683.51
3917.11,642.661
3918.56,672.928
3920.02,657.588
3921.47,673.802
3922.93,665.179
3924.38,672.875
3925.83,672.792
3927.29,698.002
3928.74,661.907
3930.2,704.685
3931.65,685.342
3933.11,658.033
3934.56,685.222
3936.01,704.997
3937.47,710.27
3938.92,710.143
3940.38,701.295
3941.83,693.149
3943.29,685.047
3944.74,686.207
3946.19,716.017
3947.65,720.998
3949.1,710.874
3950.56,700.371
3952.01,732.533
3953.47,690.952
3954.92,712.906
3956.37,685.005
3957.83,716.88
3959.28,733.663
3960.74,727.448
3962.19,725.203
3963.64,708.116
3965.1,717.456
3966.55,747.096
3968.01,716.211
3969.46,722.089
3970.92,707.055
3972.37,716.666
3973.82,729.445
3975.28,741.852
3976.73,734.669
3978.19,728.829
3979.64,758.707
3981.1,745.136
3982.55,739.263
3984,732.192
3985.46,749.528
3986.91,735.735
3988.37,748.448
3989.82,761.23
3991.27,773.519
3992.73,768.787
3994.18,781.751
3995.64,760.923
3997.09,760.513
3998.55,738.865
4000,751.659
