-50,71.7993
-48.5458,73.6103
-47.0916,74.5492
-45.6373,76.9279
-44.1831,76.5878
-42.7289,75.6773
-41.2747,70.8982
-39.8205,65.5874
-38.3662,66.3089
-36.912,72.0502
-35.4578,77.6328
-34.0036,74.6713
-32.5494,77.9059
-31.0952,83.8223
-29.6409,85.8252
-28.1867,86.1364
-26.7325,89.5337
-25.2783,83.7087
-23.8241,95.0432
-22.3698,101.096
-20.9156,95.8619
-19.4614,99.915
-18.0072,101.815
-16.553,108.289
-15.0987,125.755
-13.6445,142.582
-12.1903,163.789
-10.7361,218.376
-9.28187,151.963
-7.82765,151.963
-6.37343,151.963
-4.91921,151.963
-3.46499,151.963
-2.01077,151.963
-0.556553,151.963
0.897666,151.963
2.35189,151.963
3.8061,783.948
5.26032,271.653
6.71454,248.073
8.16876,225.014
9.62298,210.983
11.0772,200.397
12.5314,184.944
13.9856,167.013
15.4399,157.141
16.8941,146.008
18.3483,132.535
19.8025,123.321
21.2567,118.806
22.711,114.112
24.1652,109.115
25.6194,107.09
27.0736,105.668
28.5278,103.936
29.982,101.102
31.4363,98.1134
32.8905,93.586
34.3447,93.5394
35.7989,86.7038
37.2531,84.7628
38.7074,88.2664
40.1616,98.9214
41.6158,111.768
43.07,122.298
44.5242,145.664
45.9785,187.93
47.4327,252.954
48.8869,392.669
50.3411,601.415
51.7953,837.13
53.2495,1105.93
54.7038,1377.88
56.158,1629.15
57.6122,1855.19
59.0664,2015.86
60.5206,2146.05
61.9749,2199.59
63.4291,2262.88
64.8833,2323.15
66.3375,2383.18
67.7917,2375.29
69.246,2405.95
70.7002,2413.92
72.1544,2478.37
73.6086,2536.91
75.0628,2540.64
76.5171,2532.65
77.9713,2610.5
79.4255,2707.69
80.8797,2749.12
82.3339,2703.87
83.7882,2718.56
85.2424,2664.06
86.6966,2588.29
88.1508,2530.94
89.605,2502.58
91.0592,2397.56
92.5135,2302.05
93.9677,2219.68
95.4219,2128.85
96.8761,2076.33
98.3303,2008.48
99.7846,1934.26
101.239,1900.48
102.693,1882.62
104.147,1864.88
105.601,1786.61
107.056,1761.74
108.51,1741.66
109.964,1724.46
111.418,1743.37
112.873,1722.02
114.327,1702.9
115.781,1673.3
117.235,1621.6
118.689,1562.12
120.144,1573.04
121.598,1573.16
123.052,1536.54
124.506,1489.54
125.961,1487.9
127.415,1461.91
128.869,1422.62
130.323,1396.31
131.777,1374.67
133.232,1395.05
134.686,1340.48
136.14,1286.77
137.594,1274.92
139.048,1273.81
140.503,1246.44
141.957,1243.93
143.411,1237.65
144.865,1219.67
146.32,1219.06
147.774,1182.42
149.228,1156.35
150.682,1139.18
152.136,1124.4
153.591,1080.17
155.045,1089.81
156.499,1091.2
157.953,1078.9
159.408,1075.76
160.862,1085.37
162.316,1082.56
163.77,1091.44
165.224,1090.57
166.679,1053.14
168.133,1026.58
169.587,1051.33
171.041,1054.99
172.496,1029.54
173.95,1011.71
175.404,1009.92
176.858,1016.53
178.312,1018.64
179.767,1021.23
181.221,1020.96
182.675,1034.98
184.129,1039.43
185.583,1034.27
187.038,1019.48
188.492,1000.74
189.946,1010.62
191.4,1027.64
192.855,1031.47
194.309,1056.26
195.763,1068.74
197.217,1028.92
198.671,1015.16
200.126,1019.87
201.58,1009.09
203.034,981.779
204.488,959.699
205.943,986.952
207.397,995.764
208.851,987.334
210.305,974.5
211.759,976.115
213.214,971.032
214.668,979.068
216.122,972.76
217.576,955.218
219.031,969.298
220.485,970.237
221.939,979.227
223.393,976.323
224.847,959.303
226.302,993.239
227.756,968.299
229.21,988.678
230.664,996.37
232.118,976.655
233.573,952.607
235.027,974.366
236.481,975.17
237.935,966.609
239.39,972.182
240.844,970.777
242.298,981.534
243.752,975.36
245.206,973.524
246.661,966.629
248.115,974.835
249.569,931.253
251.023,926.188
252.478,930.24
253.932,935.061
255.386,926.635
256.84,940.136
258.294,944.909
259.749,924.474
261.203,930.519
262.657,965.354
264.111,916.992
265.566,933.388
267.02,921.573
268.474,912.461
269.928,932.962
271.382,922.808
272.837,907.325
274.291,906.57
275.745,912.259
277.199,912.27
278.654,902.851
280.108,881.236
281.562,874.731
283.016,883.653
284.47,881.628
285.925,859.551
287.379,880.637
288.833,858.747
290.287,851.888
291.741,856.136
293.196,847.906
294.65,832.936
296.104,822.45
297.558,825.107
299.013,815.946
300.467,808.308
301.921,820.952
303.375,804.298
304.829,811.066
306.284,820.384
307.738,823.735
309.192,805.458
310.646,813.757
312.101,813.058
313.555,810.063
315.009,811.575
316.463,798.966
317.917,803.247
319.372,786.925
320.826,773.447
322.28,770.192
323.734,773.959
325.189,776.153
326.643,766.525
328.097,759.39
329.551,756.838
331.005,762.376
332.46,791.319
333.914,798.096
335.368,767.238
336.822,762.526
338.276,775.326
339.731,762.239
341.185,772.756
342.639,775.918
344.093,776.797
345.548,769.477
347.002,757.312
348.456,787.79
349.91,756.919
351.364,733.19
352.819,739.392
354.273,759.754
355.727,762.03
357.181,735.275
358.636,740.327
360.09,751.478
361.544,757.931
362.998,762.182
364.452,758.35
365.907,760.478
367.361,754.949
368.815,734.147
370.269,713.836
371.724,744.839
373.178,745.542
374.632,750.684
376.086,746.391
377.54,745.353
378.995,760.061
380.449,770.946
381.903,729.948
383.357,731.29
384.811,735.235
386.266,733.953
387.72,760.504
389.174,748.486
390.628,749.069
392.083,748.8
393.537,740.795
394.991,725.515
396.445,746.005
397.899,750.56
399.354,757.055
400.808,756.189
402.262,742.741
403.716,715.594
405.171,760.254
406.625,742.341
408.079,743.151
409.533,744.984
410.987,730.76
412.442,768.499
413.896,763.745
415.35,722.175
416.804,725.999
418.259,758.283
419.713,737.436
421.167,737.964
422.621,747.77
424.075,756.456
425.53,758.337
426.984,757.535
428.438,761.559
429.892,760.569
431.346,780.253
432.801,778.917
434.255,765.635
435.709,765.274
437.163,731.627
438.618,744.89
440.072,755.318
441.526,771.463
442.98,779.47
444.434,772.984
445.889,756.343
447.343,744.222
448.797,752.879
450.251,773.634
451.706,789.398
453.16,765.982
454.614,757.672
456.068,757.326
457.522,754.607
458.977,767.214
460.431,789.717
461.885,777.825
463.339,794.056
464.794,773.744
466.248,750.317
467.702,755.47
469.156,781.828
470.61,762.941
472.065,769.639
473.519,779.405
474.973,769.816
476.427,755.854
477.882,795.558
479.336,785.865
480.79,777.039
482.244,758.597
483.698,750.232
485.153,756.809
486.607,761.067
488.061,764.137
489.515,754.496
490.969,739.25
492.424,739.834
493.878,765.536
495.332,760.961
496.786,738.389
498.241,756.639
499.695,762.93
501.149,755.035
502.603,747.004
504.057,725.085
505.512,727.775
506.966,727.908
508.42,725.128
509.874,730.128
511.329,720.276
512.783,732.108
514.237,703.289
515.691,711.152
517.145,726.841
518.6,728.749
520.054,728.567
521.508,731.72
522.962,713.427
524.417,715.174
525.871,725.067
527.325,723.325
528.779,705.739
530.233,722.746
531.688,719.594
533.142,726.213
534.596,724.873
536.05,717.401
537.505,737.636
538.959,716.553
540.413,712.418
541.867,710.827
543.321,710.338
544.776,724.029
546.23,742.572
547.684,721.552
549.138,744.106
550.592,745.877
552.047,729.503
553.501,718.092
554.955,723.506
556.409,722.601
557.864,722.792
559.318,717.824
560.772,707.172
562.226,721.1
563.68,736.719
565.135,732.88
566.589,722.714
568.043,716.576
569.497,730.478
570.952,719.606
572.406,704.13
573.86,711.93
575.314,737.5
576.768,744.817
578.223,740.143
579.677,724.442
581.131,728.856
582.585,716.207
584.039,719.055
585.494,726.383
586.948,719.821
588.402,724.2
589.856,743.221
591.311,712.836
592.765,724.88
594.219,696.663
595.673,694.534
597.127,724.735
598.582,732.871
600.036,700.089
601.49,723.703
602.944,725.266
604.399,730.476
605.853,736.015
607.307,723.16
608.761,699.202
610.215,734.992
611.67,764.186
613.124,759.293
614.578,742.919
616.032,734.949
617.487,705.727
618.941,737.63
620.395,742.205
621.849,738.494
623.303,732.036
624.758,744.733
626.212,748.233
627.666,727.043
629.12,738.344
630.575,739.952
632.029,747.519
633.483,753.958
634.937,742.149
636.391,744.579
637.846,716.383
639.3,727.819
640.754,732.648
642.208,746.672
643.662,743.372
645.117,709.985
646.571,736.251
648.025,741.473
649.479,736.854
650.934,738.592
652.388,742.733
653.842,740.87
655.296,774.734
656.75,765.387
658.205,740.066
659.659,736.87
661.113,755.19
662.567,745.764
664.022,739.885
665.476,755.464
666.93,757.455
668.384,748.823
669.838,733.931
671.293,744.679
672.747,752.604
674.201,774.743
675.655,750.567
677.109,760.239
678.564,775.082
680.018,768.033
681.472,780.207
682.926,773.804
684.381,768.217
685.835,760.742
687.289,757.527
688.743,762.244
690.198,755.746
691.652,762.645
693.106,771.245
694.56,758.312
696.014,768.267
697.469,772.734
698.923,772.495
700.377,765.344
701.831,783.516
703.285,771.313
704.74,750.42
706.194,764.262
707.648,773.213
709.102,773.273
710.557,777.339
712.011,781.221
713.465,780.269
714.919,777.77
716.373,772.574
717.828,777.027
719.282,799.409
720.736,795.083
722.19,779.152
723.645,774.72
725.099,776.246
726.553,783.024
728.007,788.571
729.461,770.448
730.916,758.78
732.37,776.674
733.824,786.683
735.278,785.759
736.732,782.284
738.187,771.011
739.641,767.988
741.095,776.777
742.549,788.524
744.004,798.559
745.458,790.477
746.912,791.269
748.366,776.311
749.82,771.406
751.275,769.88
752.729,779.297
754.183,786.843
755.637,778.238
757.092,784.42
758.546,772.241
760,786.964
761.454,799.598
762.908,811.154
764.363,812.225
765.817,799.863
767.271,794.767
768.725,799.737
770.18,802.605
771.634,799.348
773.088,791.169
774.542,797.481
775.996,780.382
777.451,768.965
778.905,809.549
780.359,784.073
781.813,786.198
783.268,800.984
784.722,805.028
786.176,798.016
787.63,805.191
789.084,813.142
790.539,799.731
791.993,777.689
793.447,790.745
794.901,797.838
796.355,814.599
797.81,823.058
799.264,816.352
800.718,804.534
802.172,800.662
803.627,804.052
805.081,814.756
806.535,816.683
807.989,824.276
809.443,810.053
810.898,827.939
812.352,826.07
813.806,836.264
815.26,832.43
816.715,815.277
818.169,807.184
819.623,822.208
821.077,823.875
822.531,840.588
823.986,836.976
825.44,836.656
826.894,832.455
828.348,839.394
829.802,829.403
831.257,864.069
832.711,836.984
834.165,852.356
835.619,853.505
837.074,838.494
838.528,830.857
839.982,824.524
841.436,830.193
842.891,851.654
844.345,851.364
845.799,851.878
847.253,857.48
848.707,861.997
850.162,853.065
851.616,876.418
853.07,891.224
854.524,872.046
855.978,857.994
857.433,884.048
858.887,894.211
860.341,893.464
861.795,888.297
863.25,875.001
864.704,861.453
866.158,862.684
867.612,883.775
869.066,888.574
870.521,852.334
871.975,840.627
873.429,843.322
874.883,842.346
876.338,844.828
877.792,859.93
879.246,869.17
880.7,854.48
882.154,861.963
883.609,854.011
885.063,869.173
886.517,878.548
887.971,862.493
889.425,854.997
890.88,858.253
892.334,857.637
893.788,875.432
895.242,873.145
896.697,865.953
898.151,862.699
899.605,863.181
901.059,872.388
902.513,866.325
903.968,863.533
905.422,880.183
906.876,855.596
908.33,884.028
909.785,900.232
911.239,889.292
912.693,873.635
914.147,888.75
915.601,877.838
917.056,908.94
918.51,900.295
919.964,888.785
921.418,893.471
922.873,903.45
924.327,909.899
925.781,887.098
927.235,891.504
928.689,910.154
930.144,898.449
931.598,892.187
933.052,910.184
934.506,930.467
935.961,915.709
937.415,902.061
938.869,906.859
940.323,914.525
941.777,895.713
943.232,887.875
944.686,896.732
946.14,896.122
947.594,897.059
949.048,886.8
950.503,925.313
951.957,920.775
953.411,886.247
954.865,870.594
956.32,891.686
957.774,915.257
959.228,913.379
960.682,915.942
962.136,888.653
963.591,923.708
965.045,901.75
966.499,895
967.953,908.561
969.408,914.228
970.862,927.552
972.316,945.118
973.77,939.932
975.224,914.408
976.679,905.567
978.133,928.54
979.587,927.521
981.041,932.164
982.495,941.078
983.95,917.452
985.404,941.571
986.858,943.976
988.312,940.639
989.767,966.4
991.221,950.077
992.675,932.141
994.129,937.476
995.583,940.926
997.038,970.006
998.492,966.772
999.946,939.169
1001.4,951.399
1002.85,958.028
1004.31,953.673
1005.76,967.237
1007.22,969.025
1008.67,1014.72
1010.13,987.08
1011.58,1005.36
1013.03,1007.59
1014.49,994.767
1015.94,990.275
1017.4,987.871
1018.85,1008.04
1020.31,998.998
1021.76,993.015
1023.21,1031.09
1024.67,1042.06
1026.12,1042.45
1027.58,1036.87
1029.03,1025.11
1030.48,1045
1031.94,1076.08
1033.39,1042.6
1034.85,1043.53
1036.3,1075.87
1037.76,1074.88
1039.21,1077.73
1040.66,1092.01
1042.12,1100.06
1043.57,1102.84
1045.03,1094.74
1046.48,1084.02
1047.94,1112.23
1049.39,1113.75
1050.84,1118.55
1052.3,1133.33
1053.75,1135.94
1055.21,1155.09
1056.66,1136.05
1058.11,1160.56
1059.57,1160.73
1061.02,1166.85
1062.48,1161.89
1063.93,1196.83
1065.39,1214.61
1066.84,1215.32
1068.29,1241.67
1069.75,1238.51
1071.2,1221.72
1072.66,1241.92
1074.11,1252.89
1075.57,1277.42
1077.02,1278.8
1078.47,1282.03
1079.93,1306.08
1081.38,1305.38
1082.84,1289.6
1084.29,1314.95
1085.75,1301.43
1087.2,1307.77
1088.65,1302.81
1090.11,1277.94
1091.56,1288.03
1093.02,1345.55
1094.47,1307.18
1095.92,1295.32
1097.38,1294.72
1098.83,1293.55
1100.29,1294.49
1101.74,1290.67
1103.2,1290.21
1104.65,1270.91
1106.1,1260.62
1107.56,1280.87
1109.01,1293.47
1110.47,1262.12
1111.92,1288.1
1113.38,1276.26
1114.83,1267.55
1116.28,1267.53
1117.74,1243
1119.19,1268.36
1120.65,1278.13
1122.1,1223.42
1123.55,1224.14
1125.01,1252.72
1126.46,1247.46
1127.92,1245.12
1129.37,1235.86
1130.83,1206.77
1132.28,1225.25
1133.73,1231.49
1135.19,1265.35
1136.64,1246.97
1138.1,1229.95
1139.55,1260.02
1141.01,1262.32
1142.46,1247.08
1143.91,1261.77
1145.37,1258.38
1146.82,1242.62
1148.28,1236.83
1149.73,1250.86
1151.18,1206.99
1152.64,1228.37
1154.09,1242.33
1155.55,1241.12
1157,1252.13
1158.46,1266.3
1159.91,1235.05
1161.36,1253.42
1162.82,1278.62
1164.27,1273.86
1165.73,1268.16
1167.18,1259.43
1168.64,1262.45
1170.09,1250.84
1171.54,1241.65
1173,1273.53
1174.45,1251.6
1175.91,1245.19
1177.36,1284.35
1178.82,1257.27
1180.27,1280.67
1181.72,1295.27
1183.18,1286.18
1184.63,1282.13
1186.09,1286.85
1187.54,1272.95
1188.99,1298.8
1190.45,1293.9
1191.9,1268.87
1193.36,1299.99
1194.81,1322.15
1196.27,1317.66
1197.72,1304.57
1199.17,1316.81
1200.63,1326.04
1202.08,1303.06
1203.54,1352
1204.99,1317.02
1206.45,1342.67
1207.9,1359.34
1209.35,1347.57
1210.81,1355.29
1212.26,1362.02
1213.72,1327.18
1215.17,1316.79
1216.62,1360.33
1218.08,1348.82
1219.53,1353.17
1220.99,1347.04
1222.44,1362.73
1223.9,1371.73
1225.35,1370.21
1226.8,1381
1228.26,1411.44
1229.71,1432.71
1231.17,1431.8
1232.62,1381.75
1234.08,1398.09
1235.53,1406.52
1236.98,1425.87
1238.44,1404.42
1239.89,1411.77
1241.35,1437.78
1242.8,1418.93
1244.25,1435.86
1245.71,1468.83
1247.16,1478.48
1248.62,1486.86
1250.07,1528.04
1251.53,1509.46
1252.98,1511.06
1254.43,1531.16
1255.89,1543.97
1257.34,1550.11
1258.8,1550.99
1260.25,1572.01
1261.71,1608.36
1263.16,1568.06
1264.61,1625.38
1266.07,1643.05
1267.52,1644.47
1268.98,1657.25
1270.43,1683.16
1271.89,1707.45
1273.34,1751.87
1274.79,1755.35
1276.25,1733.48
1277.7,1795.09
1279.16,1821.31
1280.61,1855.37
1282.06,1878.23
1283.52,1928.5
1284.97,1955.43
1286.43,1981.18
1287.88,2055.62
1289.34,2126.5
1290.79,2147.78
1292.24,2161.41
1293.7,2235.53
1295.15,2274.82
1296.61,2371.24
1298.06,2403.39
1299.52,2473.02
1300.97,2606.75
1302.42,2694.45
1303.88,2751.08
1305.33,2886.3
1306.79,2986.27
1308.24,3071.08
1309.69,3199.41
1311.15,3366.17
1312.6,3501.22
1314.06,3654.87
1315.51,3789.77
1316.97,3979.01
1318.42,4150.67
1319.87,4246.35
1321.33,4478.86
1322.78,4674.37
1324.24,4883.44
1325.69,4983.84
1327.15,5120.71
1328.6,5263.72
1330.05,5338.03
1331.51,5369.6
1332.96,5433.29
1334.42,5441.96
1335.87,5385.64
1337.32,5361.12
1338.78,5249.58
1340.23,5173.71
1341.69,5039.47
1343.14,4872.86
1344.6,4708.4
1346.05,4566.39
1347.5,4400.71
1348.96,4233.59
1350.41,4063.44
1351.87,3877.12
1353.32,3690.26
1354.78,3557.78
1356.23,3410.7
1357.68,3258.5
1359.14,3158.88
1360.59,2997.7
1362.05,2880.32
1363.5,2789.38
1364.96,2707.61
1366.41,2606.22
1367.86,2529.3
1369.32,2487.08
1370.77,2418.49
1372.23,2351.11
1373.68,2331.29
1375.13,2229.5
1376.59,2226.04
1378.04,2130.51
1379.5,2094.26
1380.95,2050.49
1382.41,2035.78
1383.86,2029.46
1385.31,1990.63
1386.77,1958.09
1388.22,1934.55
1389.68,1913.11
1391.13,1907.08
1392.59,1933.26
1394.04,1855.76
1395.49,1884.05
1396.95,1875.67
1398.4,1856.26
1399.86,1859.67
1401.31,1819.34
1402.76,1791.87
1404.22,1810.2
1405.67,1806.99
1407.13,1789.45
1408.58,1780.76
1410.04,1776.7
1411.49,1771.88
1412.94,1757.49
1414.4,1792.01
1415.85,1784.44
1417.31,1761.63
1418.76,1784.66
1420.22,1803.07
1421.67,1772.3
1423.12,1741.2
1424.58,1758.99
1426.03,1775.66
1427.49,1789.69
1428.94,1807.65
1430.4,1782.26
1431.85,1752.39
1433.3,1779.51
1434.76,1795.96
1436.21,1775.05
1437.67,1809.9
1439.12,1824.39
1440.57,1801.9
1442.03,1803.65
1443.48,1834.51
1444.94,1823.21
1446.39,1847.3
1447.85,1834.98
1449.3,1814.32
1450.75,1878.1
1452.21,1910.83
1453.66,1896.3
1455.12,1874.5
1456.57,1881.49
1458.03,1909.57
1459.48,1919.95
1460.93,1924.28
1462.39,1952.05
1463.84,1945.22
1465.3,1949
1466.75,1935.52
1468.2,2011.25
1469.66,1987.98
1471.11,2013.61
1472.57,2041.05
1474.02,2072.26
1475.48,2070.94
1476.93,2104.06
1478.38,2145.1
1479.84,2148.2
1481.29,2157.73
1482.75,2213.38
1484.2,2241.92
1485.66,2217.91
1487.11,2310.34
1488.56,2338.49
1490.02,2372.43
1491.47,2378.94
1492.93,2376.5
1494.38,2364.38
1495.83,2465.3
1497.29,2530.31
1498.74,2595.53
1500.2,2673
1501.65,2717.22
1503.11,2762.79
1504.56,2774.18
1506.01,2796.23
1507.47,2933.82
1508.92,3014
1510.38,3089.57
1511.83,3185.01
1513.29,3283.64
1514.74,3372.7
1516.19,3490.13
1517.65,3632.73
1519.1,3811.04
1520.56,4005.06
1522.01,4164.45
1523.46,4387.72
1524.92,4637.5
1526.37,4876.69
1527.83,5195.16
1529.28,5562.55
1530.74,5746.04
1532.19,6198.84
1533.64,6696.1
1535.1,7194.63
1536.55,7757.67
1538.01,8469.46
1539.46,9203.82
1540.92,9980.33
1542.37,10803.9
1543.82,11708.9
1545.28,12720.5
1546.73,13725.3
1548.19,14878.6
1549.64,15890.7
1551.1,17098.2
1552.55,18246
1554,19480.6
1555.46,20629.4
1556.91,21767.9
1558.37,22930.9
1559.82,24010.7
1561.27,24976
1562.73,25755.1
1564.18,26358.8
1565.64,26593.6
1567.09,26627.8
1568.55,26692.1
1570,26270.9
1571.45,25602.7
1572.91,24825.7
1574.36,23720.8
1575.82,22299.4
1577.27,21000.2
1578.73,19732
1580.18,18204.3
1581.63,16776.9
1583.09,15385.8
1584.54,14179.1
1586,13097.7
1587.45,11983.2
1588.9,11034.2
1590.36,10231.3
1591.81,9529.77
1593.27,8801.51
1594.72,8325.4
1596.18,7748.34
1597.63,7395.04
1599.08,7039.46
1600.54,6619.33
1601.99,6285.77
1603.45,6047.44
1604.9,5709.55
1606.36,5490.92
1607.81,5287.65
1609.26,5066.41
1610.72,4822.65
1612.17,4543.17
1613.63,4329.58
1615.08,4104.59
1616.54,3914.59
1617.99,3738.49
1619.44,3550.89
1620.9,3433.7
1622.35,3255.36
1623.81,3129.54
1625.26,2999.55
1626.71,2922
1628.17,2826.53
1629.62,2717.67
1631.08,2661.53
1632.53,2611.22
1633.99,2535.52
1635.44,2469.37
1636.89,2406.31
1638.35,2340.96
1639.8,2286.1
1641.26,2240.06
1642.71,2211.55
1644.17,2166.25
1645.62,2169.58
1647.07,2039.66
1648.53,2073.13
1649.98,2036.05
1651.44,1963.26
1652.89,1995.49
1654.34,1941.51
1655.8,1942.69
1657.25,1895.5
1658.71,1838.22
1660.16,1821.95
1661.62,1826.6
1663.07,1790.48
1664.52,1775.6
1665.98,1777.45
1667.43,1771.06
1668.89,1733.69
1670.34,1727.35
1671.8,1728.33
1673.25,1706.99
1674.7,1709.63
1676.16,1650.38
1677.61,1713.31
1679.07,1740.26
1680.52,1644.79
1681.97,1642.18
1683.43,1611.64
1684.88,1607.89
1686.34,1633.3
1687.79,1625.9
1689.25,1587.6
1690.7,1566.15
1692.15,1568.24
1693.61,1575.51
1695.06,1569.9
1696.52,1553.5
1697.97,1541.6
1699.43,1553.81
1700.88,1518.83
1702.33,1520.62
1703.79,1509.07
1705.24,1494.96
1706.7,1540.67
1708.15,1479.29
1709.6,1448.06
1711.06,1477.26
1712.51,1454.63
1713.97,1485.11
1715.42,1492.46
1716.88,1455.31
1718.33,1479.66
1719.78,1464.47
1721.24,1460.76
1722.69,1473.97
1724.15,1455.91
1725.6,1440.33
1727.06,1431.92
1728.51,1444.5
1729.96,1450.3
1731.42,1435.63
1732.87,1457.23
1734.33,1440.64
1735.78,1444.92
1737.24,1428.25
1738.69,1438.46
1740.14,1435.26
1741.6,1432.24
1743.05,1443.32
1744.51,1444.96
1745.96,1438.39
1747.41,1422.97
1748.87,1425.69
1750.32,1399.99
1751.78,1385.45
1753.23,1391.79
1754.69,1408.95
1756.14,1413.26
1757.59,1374.31
1759.05,1378.23
1760.5,1375.4
1761.96,1377.18
1763.41,1382.12
1764.87,1337.96
1766.32,1349.75
1767.77,1383.66
1769.23,1370.38
1770.68,1367.51
1772.14,1376.9
1773.59,1341.11
1775.04,1342.47
1776.5,1367.62
1777.95,1348.81
1779.41,1312.1
1780.86,1353.33
1782.32,1351.05
1783.77,1346.27
1785.22,1320.86
1786.68,1296.64
1788.13,1319
1789.59,1305.06
1791.04,1322.72
1792.5,1328.52
1793.95,1322.71
1795.4,1334.17
1796.86,1320.72
1798.31,1330.89
1799.77,1320.06
1801.22,1319.02
1802.68,1296.48
1804.13,1288.3
1805.58,1303.59
1807.04,1317.34
1808.49,1301.41
1809.95,1296.62
1811.4,1293.55
1812.85,1287.64
1814.31,1275.54
1815.76,1288.54
1817.22,1284.48
1818.67,1294.31
1820.13,1270.33
1821.58,1295.4
1823.03,1286.88
1824.49,1275.51
1825.94,1285.09
1827.4,1294.82
1828.85,1256.33
1830.31,1255.93
1831.76,1281.15
1833.21,1313.89
1834.67,1292.78
1836.12,1275.66
1837.58,1304.62
1839.03,1297.23
1840.48,1293.52
1841.94,1313.08
1843.39,1306.82
1844.85,1326.39
1846.3,1324.26
1847.76,1332.12
1849.21,1339.69
1850.66,1311.58
1852.12,1300.35
1853.57,1313.2
1855.03,1325.62
1856.48,1377.95
1857.94,1353
1859.39,1361.21
1860.84,1353.18
1862.3,1360.34
1863.75,1324.1
1865.21,1369.56
1866.66,1355.65
1868.11,1367.28
1869.57,1335.83
1871.02,1329.72
1872.48,1316.17
1873.93,1328.58
1875.39,1344.68
1876.84,1322.72
1878.29,1353.15
1879.75,1331.54
1881.2,1335.24
1882.66,1358.61
1884.11,1328.89
1885.57,1316.69
1887.02,1321.61
1888.47,1299.46
1889.93,1294.82
1891.38,1283.65
1892.84,1291.05
1894.29,1303.47
1895.75,1289.51
1897.2,1269.7
1898.65,1281.19
1900.11,1261.54
1901.56,1283.5
1903.02,1243.97
1904.47,1257.04
1905.92,1244.14
1907.38,1279.21
1908.83,1238.99
1910.29,1265.6
1911.74,1239.53
1913.2,1225.74
1914.65,1277.81
1916.1,1246.69
1917.56,1244.3
1919.01,1208.38
1920.47,1265.74
1921.92,1219.28
1923.38,1209.44
1924.83,1267.78
1926.28,1215.75
1927.74,1216.85
1929.19,1222.93
1930.65,1247.66
1932.1,1236.17
1933.55,1235.76
1935.01,1242.6
1936.46,1215.13
1937.92,1250.35
1939.37,1284.71
1940.83,1243.46
1942.28,1250.28
1943.73,1253.07
1945.19,1228.52
1946.64,1223.63
1948.1,1257.24
1949.55,1247.04
1951.01,1235.61
1952.46,1227.2
1953.91,1222.8
1955.37,1237.61
1956.82,1262.66
1958.28,1281.33
1959.73,1271.26
1961.18,1248.69
1962.64,1265
1964.09,1282.6
1965.55,1276.9
1967,1267.4
1968.46,1276.48
1969.91,1280.5
1971.36,1299.53
1972.82,1294.12
1974.27,1279.39
1975.73,1249.13
1977.18,1291.83
1978.64,1294.01
1980.09,1306.32
1981.54,1284.48
1983,1273.91
1984.45,1280.77
1985.91,1309.53
1987.36,1273.52
1988.82,1272.79
1990.27,1301.01
1991.72,1305.6
1993.18,1300.26
1994.63,1321.68
1996.09,1313.96
1997.54,1328.36
1998.99,1265.47
2000.45,1298.26
2001.9,1303.64
2003.36,1277.3
2004.81,1275.3
2006.27,1298.01
2007.72,1312.59
2009.17,1336.01
2010.63,1287.75
2012.08,1289.41
2013.54,1317.35
2014.99,1293.46
2016.45,1231.41
2017.9,1267.31
2019.35,1285.45
2020.81,1283.61
2022.26,1264.82
2023.72,1263.31
2025.17,1249.73
2026.62,1246.95
2028.08,1298.99
2029.53,1288.68
2030.99,1263.81
2032.44,1244.16
2033.9,1255.71
2035.35,1265.45
2036.8,1238.7
2038.26,1229.9
2039.71,1231.94
2041.17,1236.19
2042.62,1246.39
2044.08,1218.63
2045.53,1225.78
2046.98,1221.86
2048.44,1244.1
2049.89,1241.1
2051.35,1207.32
2052.8,1216.99
2054.25,1221.56
2055.71,1248.08
2057.16,1225.93
2058.62,1188.04
2060.07,1177.1
2061.53,1200.01
2062.98,1215.91
2064.43,1222.23
2065.89,1205.15
2067.34,1179.11
2068.8,1156.92
2070.25,1174.3
2071.71,1188.52
2073.16,1191.5
2074.61,1180.66
2076.07,1163.26
2077.52,1176.31
2078.98,1198.38
2080.43,1176
2081.89,1176.15
2083.34,1169.77
2084.79,1149.47
2086.25,1150.5
2087.7,1164.1
2089.16,1171.43
2090.61,1173.71
2092.06,1178.97
2093.52,1194.18
2094.97,1181.63
2096.43,1167.52
2097.88,1190.55
2099.34,1198.88
2100.79,1184.86
2102.24,1156.22
2103.7,1179.84
2105.15,1267.95
2106.61,1295.67
2108.06,1203.43
2109.52,1191.75
2110.97,1187.25
2112.42,1187.04
2113.88,1187.82
2115.33,1182
2116.79,1174.92
2118.24,1173.57
2119.69,1186.67
2121.15,1193.17
2122.6,1179.01
2124.06,1192.71
2125.51,1199.16
2126.97,1197.81
2128.42,1191.19
2129.87,1196.79
2131.33,1205.5
2132.78,1204.25
2134.24,1198.57
2135.69,1198.98
2137.15,1193.79
2138.6,1189.33
2140.05,1194.17
2141.51,1194.01
2142.96,1212.9
2144.42,1205.04
2145.87,1200.46
2147.32,1214.35
2148.78,1222.73
2150.23,1205.77
2151.69,1206.5
2153.14,1205.86
2154.6,1211.18
2156.05,1213.37
2157.5,1197.89
2158.96,1201.01
2160.41,1214.09
2161.87,1239.09
2163.32,1233.23
2164.78,1225.08
2166.23,1222.48
2167.68,1238.75
2169.14,1224.49
2170.59,1248.56
2172.05,1240.15
2173.5,1245.65
2174.96,1233.18
2176.41,1243.36
2177.86,1267.45
2179.32,1263.51
2180.77,1271.28
2182.23,1243.12
2183.68,1245.45
2185.13,1237.3
2186.59,1254.61
2188.04,1260.5
2189.5,1250.47
2190.95,1263.54
2192.41,1278.03
2193.86,1252.33
2195.31,1265.28
2196.77,1267.86
2198.22,1239.18
2199.68,1252.62
2201.13,1267.85
2202.59,1253.18
2204.04,1281.77
2205.49,1240.2
2206.95,1261.7
2208.4,1271.6
2209.86,1255.22
2211.31,1272.96
2212.76,1276.37
2214.22,1252.87
2215.67,1259.67
2217.13,1251.01
2218.58,1258
2220.04,1247.95
2221.49,1319.68
2222.94,1250.96
2224.4,1230.14
2225.85,1280.4
2227.31,1277.21
2228.76,1273.44
2230.22,1259.38
2231.67,1258.42
2233.12,1291.42
2234.58,1253.67
2236.03,1256.92
2237.49,1282.53
2238.94,1273.42
2240.4,1261.74
2241.85,1283.96
2243.3,1308.69
2244.76,1294.82
2246.21,1283.44
2247.67,1274.17
2249.12,1279.59
2250.57,1262.5
2252.03,1274.68
2253.48,1301.26
2254.94,1294.81
2256.39,1255.34
2257.85,1267.2
2259.3,1291.48
2260.75,1281.09
2262.21,1283.8
2263.66,1293.42
2265.12,1314.62
2266.57,1294.13
2268.03,1293.78
2269.48,1295.47
2270.93,1301.6
2272.39,1321.69
2273.84,1268.05
2275.3,1289.58
2276.75,1308.68
2278.2,1322.61
2279.66,1328.28
2281.11,1296.43
2282.57,1311.23
2284.02,1333.6
2285.48,1333.68
2286.93,1329.47
2288.38,1278.22
2289.84,1362.17
2291.29,1330.04
2292.75,1343.6
2294.2,1335.56
2295.66,1355.47
2297.11,1372.62
2298.56,1373.4
2300.02,1361.5
2301.47,1345.94
2302.93,1339.25
2304.38,1357.25
2305.83,1365.93
2307.29,1351.27
2308.74,1374.22
2310.2,1357.58
2311.65,1367.35
2313.11,1387.75
2314.56,1369.81
2316.01,1380.02
2317.47,1367.09
2318.92,1383.52
2320.38,1417.48
2321.83,1425.58
2323.29,1412.63
2324.74,1412.37
2326.19,1418.41
2327.65,1403.48
2329.1,1383.79
2330.56,1416.93
2332.01,1451.8
2333.47,1404.6
2334.92,1448.3
2336.37,1434.85
2337.83,1455.94
2339.28,1469.02
2340.74,1440.25
2342.19,1446.63
2343.64,1493.27
2345.1,1469.54
2346.55,1476.51
2348.01,1495.65
2349.46,1462.26
2350.92,1498.6
2352.37,1484.53
2353.82,1504.3
2355.28,1511.35
2356.73,1487.06
2358.19,1509.7
2359.64,1527.59
2361.1,1541.96
2362.55,1549.4
2364,1579.75
2365.46,1568.81
2366.91,1542.35
2368.37,1560.19
2369.82,1580.19
2371.27,1591.03
2372.73,1610.28
2374.18,1599.99
2375.64,1623.02
2377.09,1656.41
2378.55,1653.89
2380,1657.78
2381.45,1657.41
2382.91,1671.69
2384.36,1696.6
2385.82,1750.76
2387.27,1782.97
2388.73,1720.82
2390.18,1794.14
2391.63,1823.63
2393.09,1845.33
2394.54,1821.74
2396,1819.04
2397.45,1870.59
2398.9,1927.92
2400.36,1950.04
2401.81,1985.44
2403.27,2023.83
2404.72,2040.14
2406.18,2063.83
2407.63,2095.56
2409.08,2141.11
2410.54,2158.08
2411.99,2155.98
2413.45,2228.29
2414.9,2235.76
2416.36,2222.54
2417.81,2254.76
2419.26,2273.96
2420.72,2261.51
2422.17,2352.68
2423.63,2358.81
2425.08,2397.81
2426.53,2404.59
2427.99,2370.11
2429.44,2393.69
2430.9,2363.8
2432.35,2375.55
2433.81,2396.63
2435.26,2361.35
2436.71,2385.18
2438.17,2363.01
2439.62,2381.34
2441.08,2404.04
2442.53,2398.15
2443.99,2407.53
2445.44,2381.64
2446.89,2296.77
2448.35,2321.34
2449.8,2302.03
2451.26,2317.23
2452.71,2276.58
2454.17,2255.14
2455.62,2284.14
2457.07,2281.25
2458.53,2250.56
2459.98,2252.99
2461.44,2186.97
2462.89,2235.81
2464.34,2198.56
2465.8,2204.52
2467.25,2175.22
2468.71,2166.33
2470.16,2145.5
2471.62,2130.57
2473.07,2120.61
2474.52,2133.64
2475.98,2133.47
2477.43,2143.99
2478.89,2108.44
2480.34,2112.91
2481.8,2055.95
2483.25,2061.4
2484.7,2127.39
2486.16,2064.83
2487.61,2059.12
2489.07,2005.91
2490.52,2058.48
2491.97,2077.83
2493.43,2072.61
2494.88,2074.76
2496.34,2090.89
2497.79,2120.32
2499.25,2084
2500.7,2069.39
2502.15,2103.77
2503.61,2085.75
2505.06,2063.11
2506.52,2070
2507.97,2092.78
2509.43,2094.28
2510.88,2085.7
2512.33,2119.54
2513.79,2108.3
2515.24,2131.31
2516.7,2106.26
2518.15,2111.52
2519.6,2149.19
2521.06,2127.76
2522.51,2133
2523.97,2132.79
2525.42,2142.75
2526.88,2151.69
2528.33,2193.95
2529.78,2209.81
2531.24,2234.7
2532.69,2240.25
2534.15,2258.74
2535.6,2274.34
2537.06,2306.48
2538.51,2334.25
2539.96,2300.21
2541.42,2343.96
2542.87,2311.65
2544.33,2381.62
2545.78,2406.05
2547.24,2433.83
2548.69,2464.55
2550.14,2444.21
2551.6,2496.76
2553.05,2532.22
2554.51,2559.15
2555.96,2605.89
2557.41,2614.43
2558.87,2634.2
2560.32,2678.01
2561.78,2705.08
2563.23,2721.64
2564.69,2793.08
2566.14,2807.94
2567.59,2842.13
2569.05,2958.06
2570.5,2921.08
2571.96,2955.43
2573.41,3045.06
2574.87,3100.92
2576.32,3174.9
2577.77,3229.16
2579.23,3335.36
2580.68,3378.51
2582.14,3443.08
2583.59,3509.15
2585.04,3556.69
2586.5,3664.85
2587.95,3797.23
2589.41,3830.31
2590.86,3899.38
2592.32,3978.84
2593.77,4107.91
2595.22,4247.46
2596.68,4434.7
2598.13,4485.38
2599.59,4609.02
2601.04,4763.01
2602.5,4919.26
2603.95,5095.58
2605.4,5201.39
2606.86,5391.38
2608.31,5587.7
2609.77,5804.47
2611.22,6002.78
2612.68,6265.41
2614.13,6350.83
2615.58,6766.43
2617.04,6903.98
2618.49,7165.15
2619.95,7486.51
2621.4,7761
2622.85,8058.93
2624.31,8323.73
2625.76,8700.41
2627.22,9033.87
2628.67,9329.28
2630.13,9746.77
2631.58,10112.1
2633.03,10613.6
2634.49,11024.4
2635.94,11358.3
2637.4,11732.4
2638.85,12179.7
2640.31,12568.2
2641.76,12964.1
2643.21,13350.8
2644.67,13730.4
2646.12,14144.5
2647.58,14506.2
2649.03,14874.3
2650.48,15130.5
2651.94,15448.3
2653.39,15738.6
2654.85,15890.4
2656.3,16167
2657.76,16262.7
2659.21,16575.2
2660.66,16640.5
2662.12,16645.3
2663.57,16711.2
2665.03,16697.3
2666.48,16678.9
2667.94,16591.7
2669.39,16565.9
2670.84,16389.8
2672.3,16201.7
2673.75,15898.9
2675.21,15633.8
2676.66,15317.8
2678.11,14968.5
2679.57,14707.3
2681.02,14326.4
2682.48,14011.7
2683.93,13538.6
2685.39,13012.5
2686.84,12699
2688.29,12345.3
2689.75,11962.6
2691.2,11481.5
2692.66,10989.3
2694.11,10659.2
2695.57,10265.2
2697.02,9820.96
2698.47,9533.55
2699.93,8970.77
2701.38,8532.69
2702.84,8243.22
2704.29,7938.89
2705.75,7614.39
2707.2,7308.58
2708.65,6992.87
2710.11,6762.39
2711.56,6473.36
2713.02,6140.16
2714.47,6058.71
2715.92,5772.12
2717.38,5540.32
2718.83,5328.71
2720.29,5123.32
2721.74,4942.44
2723.2,4744.04
2724.65,4639.6
2726.1,4487.85
2727.56,4370.13
2729.01,4183.34
2730.47,4046.7
2731.92,3939.42
2733.38,3862.81
2734.83,3620.78
2736.28,3547.05
2737.74,3503.68
2739.19,3436.12
2740.65,3256.63
2742.1,3222.16
2743.55,3188.85
2745.01,3119.34
2746.46,2998.09
2747.92,3000.88
2749.37,2850.68
2750.83,2897.62
2752.28,2829.54
2753.73,2712.67
2755.19,2671.8
2756.64,2591.87
2758.1,2590.14
2759.55,2601.62
2761.01,2540.79
2762.46,2470.44
2763.91,2490.97
2765.37,2436.14
2766.82,2418.09
2768.28,2381
2769.73,2356.14
2771.18,2318.3
2772.64,2281.3
2774.09,2277.89
2775.55,2235.33
2777,2182.39
2778.46,2172.41
2779.91,2170.69
2781.36,2139.61
2782.82,2103.04
2784.27,2086.82
2785.73,2061.77
2787.18,2063.94
2788.64,2072.5
2790.09,2058.36
2791.54,2032.02
2793,2007.5
2794.45,1968.19
2795.91,1937.94
2797.36,1946.87
2798.82,1929.32
2800.27,1959.43
2801.72,1904.19
2803.18,1876.07
2804.63,1893.24
2806.09,1895.15
2807.54,1876.39
2808.99,1871.67
2810.45,1885.53
2811.9,1833.58
2813.36,1834.69
2814.81,1825.6
2816.27,1794.61
2817.72,1849.89
2819.17,1789.37
2820.63,1815.57
2822.08,1792.73
2823.54,1784.29
2824.99,1788.52
2826.45,1763.84
2827.9,1754.31
2829.35,1795.04
2830.81,1764.39
2832.26,1700.12
2833.72,1748.43
2835.17,1766.93
2836.62,1738.69
2838.08,1714.82
2839.53,1707.03
2840.99,1730.76
2842.44,1712.27
2843.9,1687.7
2845.35,1660.81
2846.8,1717.46
2848.26,1712.49
2849.71,1699.97
2851.17,1713.53
2852.62,1695.07
2854.08,1699.81
2855.53,1698.32
2856.98,1705.22
2858.44,1709.29
2859.89,1689.4
2861.35,1657.28
2862.8,1678.38
2864.25,1681.54
2865.71,1682.97
2867.16,1676.22
2868.62,1662.99
2870.07,1695.48
2871.53,1744.04
2872.98,1728.7
2874.43,1723.13
2875.89,1701.35
2877.34,1733.01
2878.8,1730.56
2880.25,1718.94
2881.71,1701.75
2883.16,1718.59
2884.61,1722.27
2886.07,1704.04
2887.52,1711.54
2888.98,1724.03
2890.43,1778.02
2891.89,1762.93
2893.34,1784.7
2894.79,1782.35
2896.25,1742.97
2897.7,1750.97
2899.16,1756.11
2900.61,1763.64
2902.06,1787.69
2903.52,1719.55
2904.97,1752.22
2906.43,1781.67
2907.88,1766.96
2909.34,1790.13
2910.79,1800.62
2912.24,1775.85
2913.7,1772.84
2915.15,1733.2
2916.61,1765.74
2918.06,1727.1
2919.52,1713.66
2920.97,1688.52
2922.42,1712.63
2923.88,1703.03
2925.33,1706.03
2926.79,1670.08
2928.24,1658.88
2929.69,1647.32
2931.15,1634.62
2932.6,1602.57
2934.06,1673.31
2935.51,1620.03
2936.97,1610.53
2938.42,1606.28
2939.87,1632.02
2941.33,1577.62
2942.78,1560.07
2944.24,1574.61
2945.69,1545.04
2947.15,1499.92
2948.6,1495.52
2950.05,1464.31
2951.51,1487.74
2952.96,1453.37
2954.42,1431.96
2955.87,1431.99
2957.32,1436.74
2958.78,1453.27
2960.23,1445.47
2961.69,1429.35
2963.14,1380.52
2964.6,1349.42
2966.05,1348.62
2967.5,1359.45
2968.96,1356.69
2970.41,1340.85
2971.87,1354.14
2973.32,1326.57
2974.78,1338.91
2976.23,1354.06
2977.68,1312.02
2979.14,1280.32
2980.59,1262.02
2982.05,1264.31
2983.5,1242.95
2984.96,1236.12
2986.41,1256.67
2987.86,1263.63
2989.32,1254.75
2990.77,1218.26
2992.23,1222.39
2993.68,1251.75
2995.13,1238.22
2996.59,1235.24
2998.04,1231.76
2999.5,1240.52
3000.95,1224.81
3002.41,1226.12
3003.86,1208.11
3005.31,1206.25
3006.77,1202.19
3008.22,1192.52
3009.68,1205.97
3011.13,1175.84
3012.59,1166.17
3014.04,1174.85
3015.49,1196.55
3016.95,1165.65
3018.4,1161.8
3019.86,1186.16
3021.31,1167.6
3022.76,1162.59
3024.22,1177.18
3025.67,1154.52
3027.13,1192.57
3028.58,1209.87
3030.04,1176.85
3031.49,1165.76
3032.94,1165.74
3034.4,1155.57
3035.85,1149.83
3037.31,1156.72
3038.76,1174.93
3040.22,1162.13
3041.67,1178.8
3043.12,1176.73
3044.58,1146.96
3046.03,1140.19
3047.49,1131.44
3048.94,1156.2
3050.4,1159.85
3051.85,1122.03
3053.3,1129.52
3054.76,1165.36
3056.21,1148.8
3057.67,1163.9
3059.12,1167.81
3060.57,1188.11
3062.03,1146.61
3063.48,1169.08
3064.94,1149.52
3066.39,1156.75
3067.85,1155.56
3069.3,1175.63
3070.75,1177.15
3072.21,1163.32
3073.66,1133.46
3075.12,1114.07
3076.57,1140.65
3078.03,1180.59
3079.48,1172.64
3080.93,1180.78
3082.39,1164.26
3083.84,1185.55
3085.3,1201.27
3086.75,1204.66
3088.2,1215.36
3089.66,1211.93
3091.11,1213.29
3092.57,1185.61
3094.02,1171.52
3095.48,1239.12
3096.93,1222.57
3098.38,1237.98
3099.84,1228.42
3101.29,1268.07
3102.75,1283.17
3104.2,1273.38
3105.66,1274.34
3107.11,1341.83
3108.56,1300.59
3110.02,1344.83
3111.47,1321.93
3112.93,1301.23
3114.38,1310.13
3115.83,1404.94
3117.29,1392.14
3118.74,1388.71
3120.2,1389.42
3121.65,1437
3123.11,1482.5
3124.56,1482.3
3126.01,1506.85
3127.47,1507.34
3128.92,1485.76
3130.38,1534.28
3131.83,1538.53
3133.29,1527.18
3134.74,1545.24
3136.19,1580.36
3137.65,1560.46
3139.1,1572.88
3140.56,1596.24
3142.01,1575.41
3143.47,1610.28
3144.92,1617.6
3146.37,1629.08
3147.83,1594.69
3149.28,1631.98
3150.74,1623.31
3152.19,1620.98
3153.64,1627.69
3155.1,1671.53
3156.55,1656.03
3158.01,1589.73
3159.46,1601.56
3160.92,1648.14
3162.37,1661.39
3163.82,1649.01
3165.28,1681.73
3166.73,1659.54
3168.19,1643.96
3169.64,1629.12
3171.1,1682.61
3172.55,1678.59
3174,1677.33
3175.46,1656.46
3176.91,1657.29
3178.37,1689.33
3179.82,1710.63
3181.27,1737.69
3182.73,1750.83
3184.18,1781.49
3185.64,1732.44
3187.09,1765.29
3188.55,1806.79
3190,1759.89
3191.45,1838.9
3192.91,1835.13
3194.36,1834.37
3195.82,1866.45
3197.27,1849.97
3198.73,1850.73
3200.18,1867.54
3201.63,1944.79
3203.09,1932.52
3204.54,1894.45
3206,1918.99
3207.45,1904.18
3208.9,1937.17
3210.36,1904.65
3211.81,1895.5
3213.27,1910.76
3214.72,1884.13
3216.18,1874.78
3217.63,1866.93
3219.08,1817.75
3220.54,1779.66
3221.99,1760.31
3223.45,1736.72
3224.9,1707.02
3226.36,1660.56
3227.81,1655.18
3229.26,1617.78
3230.72,1556.67
3232.17,1541.57
3233.63,1465.2
3235.08,1450.3
3236.53,1422.11
3237.99,1392.92
3239.44,1398.87
3240.9,1344.39
3242.35,1290.05
3243.81,1309.68
3245.26,1253.95
3246.71,1260.14
3248.17,1176.64
3249.62,1173.88
3251.08,1164.04
3252.53,1159.53
3253.99,1146.45
3255.44,1131.83
3256.89,1099.66
3258.35,1090.13
3259.8,1070.6
3261.26,1053.6
3262.71,1031.07
3264.17,1051.3
3265.62,1039.87
3267.07,1031.05
3268.53,1028.27
3269.98,1010.05
3271.44,993.004
3272.89,999.472
3274.34,1003.88
3275.8,1020.07
3277.25,1000.1
3278.71,993.794
3280.16,963.207
3281.62,949.943
3283.07,963.999
3284.52,960.737
3285.98,992.658
3287.43,989.995
3288.89,940.014
3290.34,922.141
3291.8,937.567
3293.25,928.741
3294.7,942.205
3296.16,945.24
3297.61,958.066
3299.07,951.015
3300.52,909.722
3301.97,931.692
3303.43,926.135
3304.88,925.257
3306.34,935.421
3307.79,943.655
3309.25,959.189
3310.7,956.48
3312.15,938.809
3313.61,948.841
3315.06,931.617
3316.52,940.1
3317.97,936.368
3319.43,920.993
3320.88,922.583
3322.33,911.605
3323.79,942.853
3325.24,933.972
3326.7,934.229
3328.15,918.653
3329.6,916.326
3331.06,919.354
3332.51,914.877
3333.97,915.557
3335.42,880.972
3336.88,911.709
3338.33,919.046
3339.78,912.045
3341.24,904.693
3342.69,914.264
3344.15,922.994
3345.6,916.621
3347.06,916.185
3348.51,912.858
3349.96,925.841
3351.42,908.625
3352.87,908.571
3354.33,912.059
3355.78,918.818
3357.24,916.553
3358.69,888.886
3360.14,896.593
3361.6,901.226
3363.05,893.454
3364.51,909.659
3365.96,921.332
3367.41,921.998
3368.87,905.031
3370.32,889.519
3371.78,900.783
3373.23,897.134
3374.69,875.583
3376.14,903.433
3377.59,905.303
3379.05,860.749
3380.5,884.762
3381.96,905.025
3383.41,897.198
3384.87,892.553
3386.32,880.138
3387.77,881.261
3389.23,879.509
3390.68,894.37
3392.14,889.214
3393.59,891.031
3395.04,912.683
3396.5,914.446
3397.95,884.664
3399.41,872.038
3400.86,891.338
3402.32,882.51
3403.77,893.265
3405.22,865.628
3406.68,897.833
3408.13,887.688
3409.59,914.435
3411.04,902.74
3412.5,903.321
3413.95,910.375
3415.4,870.573
3416.86,897.843
3418.31,876.173
3419.77,879.67
3421.22,878.809
3422.68,882.8
3424.13,898.696
3425.58,883.424
3427.04,916.224
3428.49,893.988
3429.95,860.248
3431.4,865.993
3432.85,882.728
3434.31,854.833
3435.76,886.001
3437.22,874.674
3438.67,851.186
3440.13,883.918
3441.58,867.371
3443.03,881.825
3444.49,858.965
3445.94,873.399
3447.4,852.06
3448.85,874.558
3450.31,872.647
3451.76,897.533
3453.21,840.813
3454.67,867.231
3456.12,874.274
3457.58,849.994
3459.03,889.699
3460.48,873.896
3461.94,884.194
3463.39,856.017
3464.85,881.359
3466.3,874.613
3467.76,855.889
3469.21,856.931
3470.66,844.086
3472.12,832.995
3473.57,847.691
3475.03,857.995
3476.48,868.671
3477.94,882.022
3479.39,875.908
3480.84,879.084
3482.3,881.917
3483.75,847.506
3485.21,876.057
3486.66,842.703
3488.11,876.932
3489.57,894.881
3491.02,876.08
3492.48,862.864
3493.93,878.373
3495.39,899.086
3496.84,894.859
3498.29,876.676
3499.75,867.691
3501.2,855.432
3502.66,858.71
3504.11,862.995
3505.57,847.823
3507.02,898.211
3508.47,858.126
3509.93,900.688
3511.38,854.962
3512.84,872.174
3514.29,856.456
3515.75,843.429
3517.2,847.266
3518.65,893.917
3520.11,875.486
3521.56,842.966
3523.02,883.024
3524.47,878.099
3525.92,859.084
3527.38,856.802
3528.83,846.677
3530.29,864.269
3531.74,864.84
3533.2,873.727
3534.65,856.27
3536.1,845.871
3537.56,877.686
3539.01,869.859
3540.47,875.086
3541.92,867.138
3543.38,855.264
3544.83,850.068
3546.28,859.755
3547.74,845.325
3549.19,855.171
3550.65,862.896
3552.1,853.784
3553.55,864.538
3555.01,880.98
3556.46,857.467
3557.92,862.193
3559.37,867.588
3560.83,840.12
3562.28,846.134
3563.73,856.208
3565.19,840.891
3566.64,823.059
3568.1,848.88
3569.55,869.479
3571.01,857.567
3572.46,869.37
3573.91,857.834
3575.37,864.172
3576.82,852.188
3578.28,835.624
3579.73,856.409
3581.18,861.3
3582.64,860.935
3584.09,848.058
3585.55,851.868
3587,872.053
3588.46,862.812
3589.91,867.603
3591.36,871.446
3592.82,849.714
3594.27,863.282
3595.73,847.581
3597.18,850.55
3598.64,850.05
3600.09,862.767
3601.54,836.049
3603,849.993
3604.45,862.084
3605.91,836.253
3607.36,866.142
3608.82,818.651
3610.27,847.405
3611.72,862.139
3613.18,838.989
3614.63,827.582
3616.09,854.636
3617.54,838.986
3618.99,836.302
3620.45,887.229
3621.9,856.775
3623.36,848.723
3624.81,833.928
3626.27,838.108
3627.72,870.168
3629.17,859.161
3630.63,845.007
3632.08,837.262
3633.54,828.132
3634.99,857.541
3636.45,849.197
3637.9,876.078
3639.35,872.51
3640.81,867.935
3642.26,848.644
3643.72,844.925
3645.17,873.477
3646.62,845.549
3648.08,836.62
3649.53,836.616
3650.99,864.404
3652.44,884.15
3653.9,867.461
3655.35,845.749
3656.8,876.594
3658.26,875.925
3659.71,840.453
3661.17,869.335
3662.62,872.563
3664.08,839.737
3665.53,849.323
3666.98,882.435
3668.44,862.864
3669.89,857.709
3671.35,868.259
3672.8,868.496
3674.25,848.509
3675.71,834.132
3677.16,838.033
3678.62,847.488
3680.07,844.183
3681.53,849.771
3682.98,879.312
3684.43,867.688
3685.89,829.821
3687.34,871.813
3688.8,848.513
3690.25,854.211
3691.71,852.684
3693.16,855.665
3694.61,821.847
3696.07,835.167
3697.52,849.719
3698.98,871.525
3700.43,865.161
3701.89,859.701
3703.34,843.951
3704.79,876.678
3706.25,876.622
3707.7,842.719
3709.16,849.451
3710.61,830.846
3712.06,839.585
3713.52,873.352
3714.97,861.386
3716.43,877.707
3717.88,851.213
3719.34,851.385
3720.79,835.024
3722.24,838.444
3723.7,862.632
3725.15,867.472
3726.61,855.594
3728.06,868.188
3729.52,860.747
3730.97,900.922
3732.42,893.051
3733.88,859.291
3735.33,870.604
3736.79,839.45
3738.24,876.907
3739.69,866.235
3741.15,850.607
3742.6,908.601
3744.06,859.24
3745.51,858.119
3746.97,873.406
3748.42,856.499
3749.87,834.237
3751.33,842.763
3752.78,860.669
3754.24,841.851
3755.69,864.126
3757.15,864.404
3758.6,862.436
3760.05,861.421
3761.51,834.632
3762.96,846.878
3764.42,852.216
3765.87,845.795
3767.32,870.861
3768.78,850.829
3770.23,855.121
3771.69,862.204
3773.14,898.025
3774.6,865.522
3776.05,874.983
3777.5,881.473
3778.96,854.419
3780.41,876.837
3781.87,868.734
3783.32,870.297
3784.78,860.801
3786.23,871.261
3787.68,870.475
3789.14,877.282
3790.59,861.279
3792.05,880.947
3793.5,858.105
3794.96,866.337
3796.41,897.861
3797.86,885.922
3799.32,857.987
3800.77,850.011
3802.23,840.107
3803.68,894.568
3805.13,867.204
3806.59,866.21
3808.04,871.139
3809.5,864.02
3810.95,871.901
3812.41,875.105
3813.86,889.664
3815.31,880.825
3816.77,874.185
3818.22,851.631
3819.68,877.8
3821.13,886.458
3822.59,881.629
3824.04,874.698
3825.49,871.147
3826.95,881.268
3828.4,867.402
3829.86,834.754
3831.31,887.041
3832.76,865.907
3834.22,861.638
3835.67,869.467
3837.13,901.841
3838.58,847.424
3840.04,893.892
3841.49,915.356
3842.94,865.244
3844.4,885.984
3845.85,874.321
3847.31,886.198
3848.76,862.959
3850.22,915.292
3851.67,883.313
3853.12,877.026
3854.58,881.194
3856.03,887.214
3857.49,882.508
3858.94,878.009
3860.4,875.483
3861.85,876.7
3863.3,888.199
3864.76,903.963
3866.21,858.384
3867.67,889.242
3869.12,888.049
3870.57,881.186
3872.03,861.565
3873.48,875.372
3874.94,877.799
3876.39,895.815
3877.85,875.768
3879.3,884.895
3880.75,898.995
3882.21,904.871
3883.66,924.254
3885.12,916.894
3886.57,909.864
3888.03,904.796
3889.48,881.548
3890.93,893.777
3892.39,917.052
3893.84,897.376
3895.3,886.372
3896.75,881.376
3898.2,897.434
3899.66,910.425
3901.11,904.87
3902.57,933.567
3904.02,927.433
3905.48,890.09
3906.93,924.169
3908.38,922.159
3909.84,906.642
3911.29,896.469
3912.75,904.329
3914.2,926.263
3915.66,927.178
3917.11,945.949
3918.56,939.479
3920.02,940.44
3921.47,925.834
3922.93,928.77
3924.38,950.045
3925.83,927.07
3927.29,920.003
3928.74,917.819
3930.2,930.721
3931.65,941.891
3933.11,927.748
3934.56,937.507
3936.01,949.536
3937.47,929.401
3938.92,954.783
3940.38,922.842
3941.83,912.781
3943.29,929.275
3944.74,941.909
3946.19,940.305
3947.65,952.327
3949.1,954.219
3950.56,954.16
3952.01,976.743
3953.47,957.896
3954.92,955.932
3956.37,945.865
3957.83,929.14
3959.28,930.135
3960.74,966.283
3962.19,948.923
3963.64,979.681
3965.1,959.098
3966.55,980.979
3968.01,969.691
3969.46,999.124
3970.92,974.856
3972.37,974.905
3973.82,963.307
3975.28,1008.2
3976.73,977.544
3978.19,973.427
3979.64,989.402
3981.1,996.546
3982.55,993.293
3984,995.77
3985.46,988.069
3986.91,976.005
3988.37,994.264
3989.82,1010.34
3991.27,1015.86
3992.73,1034.41
3994.18,1038.32
3995.64,1006.49
3997.09,994.768
3998.55,1009.13
4000,1025.09
