-50,57.821
-48.5458,57.4063
-47.0916,58.3095
-45.6373,54.736
-44.1831,52.6561
-42.7289,53.7397
-41.2747,54.827
-39.8205,55.1307
-38.3662,56.2668
-36.912,58.3961
-35.4578,63.0995
-34.0036,69.6682
-32.5494,69.6993
-31.0952,73.4338
-29.6409,72.7461
-28.1867,71.8912
-26.7325,74.7666
-25.2783,70.7845
-23.8241,74.2471
-22.3698,76.3682
-20.9156,78.9887
-19.4614,84.8965
-18.0072,85.4823
-16.553,92.0137
-15.0987,104.408
-13.6445,121.364
-12.1903,135.387
-10.7361,159.333
-9.28187,847.523
-7.82765,124.954
-6.37343,124.954
-4.91921,124.954
-3.46499,124.954
-2.01077,124.954
-0.556553,124.954
0.897666,124.954
2.35189,124.954
3.8061,633.785
5.26032,158.747
6.71454,124.842
8.16876,111.886
9.62298,99.1049
11.0772,91.3018
12.5314,87.3377
13.9856,92.7782
15.4399,93.1978
16.8941,91.0782
18.3483,86.4555
19.8025,82.8171
21.2567,76.2939
22.711,80.3422
24.1652,80.2443
25.6194,76.8886
27.0736,72.6906
28.5278,72.2528
29.982,69.6146
31.4363,69.5701
32.8905,68.921
34.3447,66.6886
35.7989,70.6161
37.2531,70.9279
38.7074,73.635
40.1616,75.0337
41.6158,77.2087
43.07,90.8162
44.5242,105.498
45.9785,134.955
47.4327,207.603
48.8869,315.421
50.3411,464.892
51.7953,675.838
53.2495,912.706
54.7038,1136.76
56.158,1336.82
57.6122,1499.57
59.0664,1639
60.5206,1754.47
61.9749,1853.88
63.4291,1917.57
64.8833,1952.27
66.3375,1987.19
67.7917,2020.53
69.246,2009.06
70.7002,1980.39
72.1544,1984.74
73.6086,2014.11
75.0628,2060.47
76.5171,2110.4
77.9713,2163.37
79.4255,2198.94
80.8797,2214.85
82.3339,2201.33
83.7882,2175.46
85.2424,2131.18
86.6966,2071.43
88.1508,1988.98
89.605,1932.82
91.0592,1850.16
92.5135,1774.68
93.9677,1718.71
95.4219,1673.78
96.8761,1656.71
98.3303,1636.54
99.7846,1578.08
101.239,1528.03
102.693,1501.53
104.147,1485.72
105.601,1462.33
107.056,1444.26
108.51,1424.38
109.964,1418.63
111.418,1388.44
112.873,1374.19
114.327,1356.58
115.781,1325.84
117.235,1305.27
118.689,1282.71
120.144,1254.43
121.598,1215.23
123.052,1193.7
124.506,1205.29
125.961,1150.38
127.415,1116.11
128.869,1109.59
130.323,1115.99
131.777,1085.57
133.232,1056.95
134.686,1030.53
136.14,1008.68
137.594,991.789
139.048,999.228
140.503,1005.28
141.957,981.712
143.411,959.126
144.865,958.172
146.32,963.028
147.774,950.929
149.228,933.19
150.682,907.797
152.136,908.207
153.591,910.559
155.045,905.329
156.499,915.397
157.953,934.553
159.408,923.229
160.862,895.956
162.316,888.453
163.77,855.286
165.224,851.044
166.679,868.316
168.133,848.306
169.587,851.429
171.041,849.413
172.496,841.127
173.95,845.909
175.404,828.862
176.858,831.666
178.312,814.528
179.767,808.588
181.221,810.341
182.675,805.576
184.129,801.214
185.583,792.546
187.038,795.452
188.492,800.422
189.946,775.662
191.4,774.301
192.855,781.165
194.309,774.215
195.763,757.422
197.217,768.661
198.671,758.923
200.126,754.387
201.58,759.14
203.034,750.535
204.488,766.858
205.943,785.445
207.397,777.952
208.851,764.559
210.305,775.931
211.759,775.393
213.214,777.438
214.668,772.923
216.122,768.339
217.576,763.909
219.031,753.037
220.485,774.57
221.939,772.893
223.393,760.065
224.847,756.206
226.302,784.891
227.756,776.576
229.21,775.835
230.664,762.951
232.118,742.223
233.573,755.865
235.027,772.017
236.481,763.078
237.935,771.126
239.39,793.18
240.844,777.855
242.298,748.994
243.752,740.978
245.206,747.432
246.661,751.318
248.115,727.563
249.569,732.426
251.023,728.838
252.478,719.257
253.932,718.043
255.386,741.773
256.84,761.346
258.294,751.291
259.749,729.827
261.203,726.012
262.657,732.468
264.111,711.28
265.566,715.018
267.02,711.645
268.474,713.238
269.928,722.252
271.382,739.932
272.837,696.629
274.291,690.162
275.745,686.549
277.199,682.563
278.654,704.43
280.108,696.761
281.562,684.647
283.016,686.304
284.47,687.164
285.925,656.563
287.379,656.834
288.833,654.174
290.287,649.577
291.741,642.309
293.196,646.486
294.65,639
296.104,636.965
297.558,641.029
299.013,635.67
300.467,625.525
301.921,629.838
303.375,620.972
304.829,609.517
306.284,612.868
307.738,629.985
309.192,633.483
310.646,600.257
312.101,588.022
313.555,597.292
315.009,608.986
316.463,601.273
317.917,609.971
319.372,591.415
320.826,591.944
322.28,594.355
323.734,578.997
325.189,587.915
326.643,575.614
328.097,588.731
329.551,600.45
331.005,595.803
332.46,584.849
333.914,603.741
335.368,592.158
336.822,589.396
338.276,586.933
339.731,572.533
341.185,567.981
342.639,582.858
344.093,565.228
345.548,562.287
347.002,585.653
348.456,564.864
349.91,561.195
351.364,571.237
352.819,576.065
354.273,573.028
355.727,573.865
357.181,564.376
358.636,576.363
360.09,579.094
361.544,576.145
362.998,575.264
364.452,562.739
365.907,554.544
367.361,554.873
368.815,556.406
370.269,556.966
371.724,558.219
373.178,546.964
374.632,559.216
376.086,567.673
377.54,561.319
378.995,551.722
380.449,545.683
381.903,545.897
383.357,548.629
384.811,555.561
386.266,565.644
387.72,559.667
389.174,557.358
390.628,552.701
392.083,557.443
393.537,565.248
394.991,562.432
396.445,559.103
397.899,561.203
399.354,567.24
400.808,562.909
402.262,550.688
403.716,544.519
405.171,558.652
406.625,560.381
408.079,543.569
409.533,539.947
410.987,568.079
412.442,546.115
413.896,555.374
415.35,554.67
416.804,556.731
418.259,560.015
419.713,562.238
421.167,577.767
422.621,551.527
424.075,547.86
425.53,556.162
426.984,557.237
428.438,566.095
429.892,565.272
431.346,558.877
432.801,556.884
434.255,550.225
435.709,533.656
437.163,540.478
438.618,554.932
440.072,548.633
441.526,536.791
442.98,535.355
444.434,544.913
445.889,544.459
447.343,546.562
448.797,542.118
450.251,545.473
451.706,556.94
453.16,542.656
454.614,553.286
456.068,551.341
457.522,546.834
458.977,537.951
460.431,529.482
461.885,545.19
463.339,565.443
464.794,557.194
466.248,562.263
467.702,563.131
469.156,533.465
470.61,536.237
472.065,557.737
473.519,561.807
474.973,557.425
476.427,555.594
477.882,548.231
479.336,541.174
480.79,546.897
482.244,540.347
483.698,538.924
485.153,548.791
486.607,540.586
488.061,557.865
489.515,549.728
490.969,532.843
492.424,529.935
493.878,550.789
495.332,531.368
496.786,527.783
498.241,541.062
499.695,536.747
501.149,523.42
502.603,527.612
504.057,533.245
505.512,536.846
506.966,535.276
508.42,534.212
509.874,533.22
511.329,517.085
512.783,522.282
514.237,516.409
515.691,537.875
517.145,542.786
518.6,527.018
520.054,513.11
521.508,523.768
522.962,524.006
524.417,521.838
525.871,513.608
527.325,510.111
528.779,514.639
530.233,533.701
531.688,528.077
533.142,520.88
534.596,523.727
536.05,521.896
537.505,533.469
538.959,535.13
540.413,533.51
541.867,528.767
543.321,530.211
544.776,521.078
546.23,523.867
547.684,513.645
549.138,516.668
550.592,533.285
552.047,534.2
553.501,526.207
554.955,521.361
556.409,512.14
557.864,504.87
559.318,502.79
560.772,510.196
562.226,520.089
563.68,536.062
565.135,534.523
566.589,530.152
568.043,535.89
569.497,529.875
570.952,513.12
572.406,522.679
573.86,535.212
575.314,524.309
576.768,519.286
578.223,520.886
579.677,511.787
581.131,523.039
582.585,523.941
584.039,520.513
585.494,517.506
586.948,518.146
588.402,516.428
589.856,513.454
591.311,507.843
592.765,523.814
594.219,512.302
595.673,506.077
597.127,507.388
598.582,508.502
600.036,518.01
601.49,523.266
602.944,527.277
604.399,520.406
605.853,519.609
607.307,526.733
608.761,515.581
610.215,523.742
611.67,539.037
613.124,531.144
614.578,520.992
616.032,539.387
617.487,536.063
618.941,522.763
620.395,524.953
621.849,523.813
623.303,527.845
624.758,538.919
626.212,547.054
627.666,534.914
629.12,521.879
630.575,535.247
632.029,538.779
633.483,529.466
634.937,512.726
636.391,531.036
637.846,541.659
639.3,537.053
640.754,539.467
642.208,540.782
643.662,549.83
645.117,536.834
646.571,541.607
648.025,552.687
649.479,544.987
650.934,540.786
652.388,546.184
653.842,534.541
655.296,547.178
656.75,554.7
658.205,546.814
659.659,544.944
661.113,545.523
662.567,541.104
664.022,553.689
665.476,552.068
666.93,548.55
668.384,560.417
669.838,563.397
671.293,543.679
672.747,555.195
674.201,557.988
675.655,546.125
677.109,553.158
678.564,553.581
680.018,560.815
681.472,562.061
682.926,557.764
684.381,554.712
685.835,556.135
687.289,556.92
688.743,548.741
690.198,543.729
691.652,562.752
693.106,558.233
694.56,560.152
696.014,562.392
697.469,561.778
698.923,565.175
700.377,561.934
701.831,563.111
703.285,543.451
704.74,554.681
706.194,558.102
707.648,562.552
709.102,558.682
710.557,557.867
712.011,562.442
713.465,567.622
714.919,551.882
716.373,547.675
717.828,560.666
719.282,566.704
720.736,546.558
722.19,544.964
723.645,549.854
725.099,559.8
726.553,572.185
728.007,580.062
729.461,560.602
730.916,564.598
732.37,566.576
733.824,564.385
735.278,570.842
736.732,568.657
738.187,549.628
739.641,574.43
741.095,570.911
742.549,567.263
744.004,571.021
745.458,568.3
746.912,568.485
748.366,572.202
749.82,559.346
751.275,557.704
752.729,562.104
754.183,573.4
755.637,580.628
757.092,569.347
758.546,558.145
760,573.316
761.454,572.386
762.908,560.611
764.363,552.235
765.817,549.041
767.271,565.211
768.725,571.163
770.18,568.162
771.634,560.441
773.088,574.742
774.542,581.26
775.996,568.397
777.451,564.933
778.905,565.792
780.359,575.255
781.813,557.539
783.268,573.657
784.722,579.497
786.176,575.422
787.63,580.346
789.084,570.507
790.539,588.878
791.993,571.643
793.447,564.355
794.901,563.265
796.355,578.702
797.81,589.82
799.264,578.441
800.718,585.421
802.172,577.08
803.627,588.993
805.081,586.669
806.535,584.777
807.989,599.159
809.443,595.483
810.898,571.781
812.352,584.014
813.806,591.309
815.26,592.969
816.715,590.023
818.169,577.004
819.623,594.61
821.077,603.446
822.531,592.005
823.986,603.216
825.44,613.761
826.894,605.84
828.348,605.552
829.802,588.785
831.257,598.015
832.711,627.738
834.165,610.725
835.619,593.646
837.074,602.427
838.528,606.352
839.982,601.394
841.436,611.846
842.891,620.598
844.345,623.951
845.799,642.821
847.253,648.026
848.707,629.689
850.162,612.089
851.616,615.299
853.07,614.766
854.524,645.709
855.978,653.055
857.433,632.916
858.887,618.755
860.341,623.301
861.795,625.484
863.25,622.063
864.704,615.996
866.158,615.684
867.612,608.665
869.066,607.571
870.521,603.166
871.975,592.337
873.429,609.988
874.883,629.489
876.338,609.55
877.792,614.367
879.246,621.205
880.7,623.955
882.154,624.104
883.609,645.223
885.063,652.616
886.517,637.841
887.971,616.037
889.425,614.763
890.88,625.937
892.334,627.519
893.788,629.412
895.242,627.996
896.697,628.178
898.151,632.978
899.605,620.161
901.059,624.755
902.513,638.305
903.968,638.096
905.422,637.886
906.876,645.49
908.33,646.384
909.785,639.178
911.239,635.981
912.693,634.328
914.147,651.416
915.601,653.649
917.056,638.85
918.51,648.203
919.964,650.406
921.418,653.906
922.873,661.663
924.327,659.228
925.781,652.83
927.235,649.435
928.689,645.369
930.144,664.511
931.598,675.174
933.052,664.913
934.506,653.034
935.961,652.84
937.415,648.354
938.869,654.005
940.323,659.239
941.777,661.049
943.232,660.525
944.686,660.66
946.14,659.204
947.594,643.642
949.048,651.925
950.503,660.971
951.957,656.95
953.411,674
954.865,664.852
956.32,658.408
957.774,651.282
959.228,641.159
960.682,650.857
962.136,675.251
963.591,660.558
965.045,654.722
966.499,662.239
967.953,660.444
969.408,651.76
970.862,654.641
972.316,648.228
973.77,657.793
975.224,658.517
976.679,664.267
978.133,657.557
979.587,658.135
981.041,675.846
982.495,678.94
983.95,689.037
985.404,690.635
986.858,663.285
988.312,667.839
989.767,681.642
991.221,688.814
992.675,689.106
994.129,678.113
995.583,675.747
997.038,693.165
998.492,712.561
999.946,708.233
1001.4,709.611
1002.85,698.799
1004.31,692.087
1005.76,702.875
1007.22,699.14
1008.67,689.612
1010.13,711.745
1011.58,695.519
1013.03,693.647
1014.49,709.839
1015.94,725.349
1017.4,732.987
1018.85,736.631
1020.31,742.989
1021.76,731.724
1023.21,739.333
1024.67,744.14
1026.12,737.776
1027.58,743.168
1029.03,755.871
1030.48,757.878
1031.94,770.396
1033.39,770.833
1034.85,767.969
1036.3,781.616
1037.76,788.258
1039.21,785.54
1040.66,792.811
1042.12,798.252
1043.57,820.78
1045.03,796.37
1046.48,781.455
1047.94,791.988
1049.39,812.731
1050.84,826.334
1052.3,840.721
1053.75,850.677
1055.21,854.049
1056.66,847.873
1058.11,853.339
1059.57,842.229
1061.02,859.765
1062.48,871.869
1063.93,884.031
1065.39,893.631
1066.84,895.849
1068.29,909.392
1069.75,911.557
1071.2,935.827
1072.66,932.896
1074.11,927.015
1075.57,935.257
1077.02,925.866
1078.47,931.559
1079.93,978.861
1081.38,967.429
1082.84,974.495
1084.29,950.644
1085.75,955.09
1087.2,950.056
1088.65,951.41
1090.11,966.69
1091.56,967.928
1093.02,955.615
1094.47,986.897
1095.92,952.301
1097.38,944.861
1098.83,948.398
1100.29,945.102
1101.74,946.43
1103.2,952.853
1104.65,944.327
1106.1,920.636
1107.56,895.849
1109.01,910.924
1110.47,898.371
1111.92,909.196
1113.38,905.365
1114.83,919.086
1116.28,931.194
1117.74,920.77
1119.19,900.01
1120.65,892.66
1122.1,891.786
1123.55,877.921
1125.01,887.32
1126.46,896.633
1127.92,895.234
1129.37,879.318
1130.83,888.064
1132.28,898.121
1133.73,872.71
1135.19,875.596
1136.64,860.538
1138.1,880.628
1139.55,890.227
1141.01,874.946
1142.46,863.601
1143.91,864.454
1145.37,871.368
1146.82,852.245
1148.28,882.781
1149.73,855.502
1151.18,864.5
1152.64,887.545
1154.09,882.972
1155.55,876.93
1157,880.453
1158.46,889.578
1159.91,885.938
1161.36,897.373
1162.82,899.618
1164.27,893.114
1165.73,885.768
1167.18,871.573
1168.64,870.125
1170.09,880.31
1171.54,885.412
1173,890.217
1174.45,892.446
1175.91,890.479
1177.36,883.565
1178.82,898.38
1180.27,893.221
1181.72,894.504
1183.18,903.645
1184.63,912.047
1186.09,921.269
1187.54,928.352
1188.99,938.464
1190.45,916.092
1191.9,891.804
1193.36,919.442
1194.81,928.788
1196.27,917.981
1197.72,905.222
1199.17,908.207
1200.63,928.004
1202.08,930.989
1203.54,934.758
1204.99,932.299
1206.45,933.911
1207.9,946.973
1209.35,960.952
1210.81,951.953
1212.26,937.555
1213.72,940.576
1215.17,949.2
1216.62,942.661
1218.08,934.259
1219.53,928.548
1220.99,943.32
1222.44,967.75
1223.9,970.307
1225.35,950.528
1226.8,937.654
1228.26,956.863
1229.71,967.412
1231.17,959.037
1232.62,981.427
1234.08,995.451
1235.53,980.144
1236.98,963.082
1238.44,969.301
1239.89,993.624
1241.35,1011
1242.8,1009.82
1244.25,1025.96
1245.71,1017.33
1247.16,1015.77
1248.62,1034.85
1250.07,1044.88
1251.53,1048.76
1252.98,1042.82
1254.43,1051
1255.89,1050.05
1257.34,1040.95
1258.8,1066.49
1260.25,1080.57
1261.71,1120.63
1263.16,1136.37
1264.61,1142.57
1266.07,1159.47
1267.52,1150.68
1268.98,1143.26
1270.43,1163.55
1271.89,1201.03
1273.34,1235.21
1274.79,1229.7
1276.25,1240.01
1277.7,1248.71
1279.16,1290.15
1280.61,1320.92
1282.06,1328.6
1283.52,1331.26
1284.97,1376.86
1286.43,1415.68
1287.88,1432.84
1289.34,1487.73
1290.79,1544.54
1292.24,1533.57
1293.7,1588.96
1295.15,1625.17
1296.61,1676.67
1298.06,1733.69
1299.52,1815.11
1300.97,1876.89
1302.42,1925.93
1303.88,1994.88
1305.33,2057.06
1306.79,2192.3
1308.24,2271.71
1309.69,2367.14
1311.15,2464.8
1312.6,2589.19
1314.06,2707.06
1315.51,2819.54
1316.97,2919.4
1318.42,3010.26
1319.87,3104.65
1321.33,3177.37
1322.78,3345.98
1324.24,3464.58
1325.69,3565.22
1327.15,3570.59
1328.6,3682.82
1330.05,3708.68
1331.51,3680.17
1332.96,3687.59
1334.42,3664.54
1335.87,3615.53
1337.32,3594.87
1338.78,3523.27
1340.23,3449.49
1341.69,3345.58
1343.14,3222.44
1344.6,3077.2
1346.05,2986.26
1347.5,2877.73
1348.96,2770.25
1350.41,2647.96
1351.87,2533.62
1353.32,2444.65
1354.78,2336.87
1356.23,2235.2
1357.68,2134.83
1359.14,2050.53
1360.59,1975.94
1362.05,1922.27
1363.5,1834.63
1364.96,1798.32
1366.41,1761.25
1367.86,1704.98
1369.32,1661.63
1370.77,1606.26
1372.23,1568.71
1373.68,1543.89
1375.13,1539.43
1376.59,1506.95
1378.04,1466.48
1379.5,1445.75
1380.95,1436.44
1382.41,1402.2
1383.86,1376.77
1385.31,1372.35
1386.77,1368.4
1388.22,1347.63
1389.68,1328.09
1391.13,1309.42
1392.59,1289.51
1394.04,1323.09
1395.49,1292.73
1396.95,1293.33
1398.4,1289.43
1399.86,1274.23
1401.31,1268.22
1402.76,1254.66
1404.22,1255.36
1405.67,1277.98
1407.13,1261.27
1408.58,1238.85
1410.04,1244.47
1411.49,1264.33
1412.94,1242.69
1414.4,1258.46
1415.85,1260.54
1417.31,1248.62
1418.76,1242.16
1420.22,1258.25
1421.67,1278.16
1423.12,1268.35
1424.58,1264.71
1426.03,1268.45
1427.49,1258.22
1428.94,1290.56
1430.4,1289.06
1431.85,1283.63
1433.3,1297.67
1434.76,1298.21
1436.21,1311.68
1437.67,1301.21
1439.12,1306.76
1440.57,1326.74
1442.03,1330.28
1443.48,1337.95
1444.94,1351.8
1446.39,1367.99
1447.85,1351.06
1449.3,1364.82
1450.75,1360.21
1452.21,1366.72
1453.66,1381.43
1455.12,1405.29
1456.57,1417.05
1458.03,1422.13
1459.48,1432.21
1460.93,1441.26
1462.39,1455.59
1463.84,1448.96
1465.3,1476.51
1466.75,1503.17
1468.2,1524.77
1469.66,1512.82
1471.11,1542.5
1472.57,1568.73
1474.02,1545.96
1475.48,1575.25
1476.93,1605.81
1478.38,1599.33
1479.84,1623.58
1481.29,1672.01
1482.75,1664.43
1484.2,1728.78
1485.66,1740.64
1487.11,1780.5
1488.56,1811.07
1490.02,1840.29
1491.47,1859.39
1492.93,1898.24
1494.38,1958.12
1495.83,1950.04
1497.29,1998.25
1498.74,2073.24
1500.2,2124.96
1501.65,2185.86
1503.11,2239.77
1504.56,2283.96
1506.01,2303.75
1507.47,2390.19
1508.92,2485.14
1510.38,2589.2
1511.83,2649.55
1513.29,2728.95
1514.74,2840.71
1516.19,2978.67
1517.65,3130.86
1519.1,3308.09
1520.56,3489.94
1522.01,3650.03
1523.46,3783.75
1524.92,4033.41
1526.37,4287.34
1527.83,4618.26
1529.28,4950.13
1530.74,5298.93
1532.19,5601.27
1533.64,6138.89
1535.1,6652.47
1536.55,7184.5
1538.01,7765
1539.46,8450.48
1540.92,9241.29
1542.37,9961.28
1543.82,10746.8
1545.28,11684
1546.73,12629.8
1548.19,13576.5
1549.64,14619.1
1551.1,15655
1552.55,16550.7
1554,17717.9
1555.46,18638.2
1556.91,19571.9
1558.37,20428.4
1559.82,21047.2
1561.27,21662.9
1562.73,22016.1
1564.18,22166.9
1565.64,22142.4
1567.09,21757.5
1568.55,21238.2
1570,20494.5
1571.45,19459.6
1572.91,18547.7
1574.36,17445.6
1575.82,16332.6
1577.27,15124.9
1578.73,13984
1580.18,12925.9
1581.63,11953.6
1583.09,10954.8
1584.54,10021.8
1586,9220.88
1587.45,8576.67
1588.9,7970.53
1590.36,7331.94
1591.81,6845.73
1593.27,6389.93
1594.72,6016.48
1596.18,5717.54
1597.63,5353.69
1599.08,5090.32
1600.54,4823.87
1601.99,4609.69
1603.45,4423.55
1604.9,4201.34
1606.36,3996.56
1607.81,3794.84
1609.26,3618.39
1610.72,3415.07
1612.17,3249.53
1613.63,3119.26
1615.08,2989.77
1616.54,2845.39
1617.99,2686.36
1619.44,2603.37
1620.9,2487.37
1622.35,2354.13
1623.81,2320.39
1625.26,2212.15
1626.71,2175
1628.17,2061.05
1629.62,2039.04
1631.08,1969.22
1632.53,1910.79
1633.99,1870.99
1635.44,1824.25
1636.89,1786.13
1638.35,1726.89
1639.8,1673.89
1641.26,1655.55
1642.71,1643.74
1644.17,1614.79
1645.62,1618.06
1647.07,1600.69
1648.53,1583.46
1649.98,1530.21
1651.44,1516.21
1652.89,1479.61
1654.34,1477.09
1655.8,1448.46
1657.25,1410.09
1658.71,1408.73
1660.16,1401.8
1661.62,1379.65
1663.07,1363.29
1664.52,1339.91
1665.98,1324.48
1667.43,1316.06
1668.89,1305.37
1670.34,1325.89
1671.8,1281.83
1673.25,1254.34
1674.7,1252.22
1676.16,1232.43
1677.61,1209.82
1679.07,1234.64
1680.52,1227.75
1681.97,1198.91
1683.43,1201.45
1684.88,1199.05
1686.34,1180.34
1687.79,1158.03
1689.25,1152.41
1690.7,1148.12
1692.15,1149.54
1693.61,1143.4
1695.06,1152.18
1696.52,1138.58
1697.97,1117.66
1699.43,1103.82
1700.88,1115.19
1702.33,1113.93
1703.79,1128.47
1705.24,1090.07
1706.7,1104.06
1708.15,1085.05
1709.6,1081.08
1711.06,1077.56
1712.51,1090.6
1713.97,1100.5
1715.42,1077.53
1716.88,1065.5
1718.33,1047.36
1719.78,1073.59
1721.24,1069.05
1722.69,1071.28
1724.15,1068.73
1725.6,1066.18
1727.06,1068.16
1728.51,1065.89
1729.96,1066.91
1731.42,1076.2
1732.87,1067.05
1734.33,1051.14
1735.78,1051.36
1737.24,1049.72
1738.69,1024.13
1740.14,1008.64
1741.6,1039.28
1743.05,1013.29
1744.51,1029.01
1745.96,1016.7
1747.41,1031.53
1748.87,1019.79
1750.32,1031.56
1751.78,1016.27
1753.23,997.366
1754.69,1013.33
1756.14,1003.42
1757.59,991.477
1759.05,994.381
1760.5,988.643
1761.96,980.482
1763.41,969.461
1764.87,980.464
1766.32,995.37
1767.77,970.343
1769.23,977.738
1770.68,996.769
1772.14,974.771
1773.59,963.108
1775.04,957.531
1776.5,955.384
1777.95,968.133
1779.41,940.487
1780.86,949.494
1782.32,953.326
1783.77,933.626
1785.22,931.238
1786.68,941.832
1788.13,943.587
1789.59,919.21
1791.04,956.168
1792.5,971.466
1793.95,953.557
1795.4,945.164
1796.86,939.783
1798.31,924.628
1799.77,935.381
1801.22,951.152
1802.68,939.32
1804.13,936.335
1805.58,907.69
1807.04,919.701
1808.49,905.044
1809.95,921.554
1811.4,916.163
1812.85,908.18
1814.31,908.884
1815.76,912.288
1817.22,903.182
1818.67,890.076
1820.13,897.515
1821.58,921.83
1823.03,911.031
1824.49,924.957
1825.94,910.167
1827.4,938.936
1828.85,918.177
1830.31,920.957
1831.76,915.887
1833.21,914.961
1834.67,934
1836.12,930.454
1837.58,928.717
1839.03,948.425
1840.48,948.176
1841.94,961.184
1843.39,947.712
1844.85,941.315
1846.3,960.596
1847.76,959.313
1849.21,980.126
1850.66,968.24
1852.12,958.948
1853.57,958.68
1855.03,975.181
1856.48,981.409
1857.94,973.016
1859.39,963.465
1860.84,950.002
1862.3,975.52
1863.75,949.138
1865.21,974.522
1866.66,967.091
1868.11,983.155
1869.57,955.027
1871.02,950.742
1872.48,970.78
1873.93,964.053
1875.39,967.563
1876.84,968.793
1878.29,938.09
1879.75,945.913
1881.2,949.022
1882.66,942.491
1884.11,940.665
1885.57,929.1
1887.02,910.639
1888.47,929.011
1889.93,935.943
1891.38,933.466
1892.84,937.947
1894.29,930.303
1895.75,905.008
1897.2,884.55
1898.65,885.984
1900.11,894.326
1901.56,877.593
1903.02,867.535
1904.47,876.705
1905.92,866.65
1907.38,862.81
1908.83,887.28
1910.29,873.167
1911.74,896.045
1913.2,872.673
1914.65,897.783
1916.1,901.756
1917.56,871.46
1919.01,878.025
1920.47,840.152
1921.92,861.831
1923.38,861.919
1924.83,850.904
1926.28,861.07
1927.74,881.404
1929.19,885.171
1930.65,882.501
1932.1,863.317
1933.55,879.746
1935.01,875.999
1936.46,844.682
1937.92,866.094
1939.37,864.461
1940.83,859.953
1942.28,875.104
1943.73,882.557
1945.19,871.976
1946.64,889.162
1948.1,893.684
1949.55,870.698
1951.01,864.474
1952.46,861.8
1953.91,866.834
1955.37,875.154
1956.82,869.071
1958.28,875.516
1959.73,877.943
1961.18,886.836
1962.64,892.57
1964.09,911.45
1965.55,893.159
1967,876.104
1968.46,885.205
1969.91,885.493
1971.36,884.616
1972.82,872.987
1974.27,886.137
1975.73,891.706
1977.18,903.476
1978.64,893.39
1980.09,886.893
1981.54,885.891
1983,895.128
1984.45,918.747
1985.91,915.451
1987.36,937.315
1988.82,910.149
1990.27,913.116
1991.72,925.634
1993.18,905.329
1994.63,904.982
1996.09,907.307
1997.54,935.381
1998.99,896.749
2000.45,917.625
2001.9,897.854
2003.36,904.714
2004.81,895.502
2006.27,925.242
2007.72,910.274
2009.17,903.636
2010.63,907.539
2012.08,904.429
2013.54,912.092
2014.99,895.404
2016.45,876.712
2017.9,893.586
2019.35,898.219
2020.81,897.132
2022.26,898.282
2023.72,885.099
2025.17,883.333
2026.62,898.059
2028.08,874.617
2029.53,875.484
2030.99,880.831
2032.44,863.648
2033.9,877.607
2035.35,884.912
2036.8,889.41
2038.26,858.572
2039.71,850.961
2041.17,856.205
2042.62,840.45
2044.08,856.379
2045.53,859.633
2046.98,837.77
2048.44,839.413
2049.89,843.457
2051.35,840.769
2052.8,841.152
2054.25,838.244
2055.71,841.11
2057.16,828.653
2058.62,833.436
2060.07,846.598
2061.53,838.44
2062.98,819.938
2064.43,824.866
2065.89,833.781
2067.34,819.819
2068.8,814.335
2070.25,814.353
2071.71,789.594
2073.16,801.467
2074.61,814.253
2076.07,803.48
2077.52,783.478
2078.98,791.901
2080.43,808.7
2081.89,808.832
2083.34,800.263
2084.79,810.717
2086.25,814.018
2087.7,808.306
2089.16,798.812
2090.61,801.074
2092.06,814.516
2093.52,820.475
2094.97,805.676
2096.43,806.739
2097.88,800.477
2099.34,796.253
2100.79,808.301
2102.24,809.909
2103.7,811.727
2105.15,807.307
2106.61,801.762
2108.06,815.518
2109.52,819.795
2110.97,819.959
2112.42,823.108
2113.88,817.534
2115.33,807.015
2116.79,820.965
2118.24,825.246
2119.69,831.292
2121.15,822.239
2122.6,804.117
2124.06,807.865
2125.51,818.757
2126.97,824.161
2128.42,807.488
2129.87,812.63
2131.33,827.52
2132.78,805.332
2134.24,813.565
2135.69,811.054
2137.15,811.441
2138.6,816.719
2140.05,816.426
2141.51,828.666
2142.96,832.237
2144.42,828.566
2145.87,833.851
2147.32,831.234
2148.78,823.846
2150.23,829.38
2151.69,838.41
2153.14,827.817
2154.6,838.241
2156.05,836.772
2157.5,828.552
2158.96,838.678
2160.41,843.293
2161.87,842.732
2163.32,855.466
2164.78,839.533
2166.23,845.142
2167.68,836.451
2169.14,854.669
2170.59,849.31
2172.05,849.516
2173.5,866.196
2174.96,862.118
2176.41,857.397
2177.86,843.743
2179.32,858.611
2180.77,868.449
2182.23,866.088
2183.68,857.929
2185.13,883.882
2186.59,870.98
2188.04,865.053
2189.5,878.341
2190.95,859.593
2192.41,869.527
2193.86,867.999
2195.31,871.274
2196.77,880.218
2198.22,858.112
2199.68,861.339
2201.13,890.258
2202.59,877.385
2204.04,873.745
2205.49,876.175
2206.95,857.839
2208.4,854.786
2209.86,868.054
2211.31,877.393
2212.76,900.865
2214.22,872.933
2215.67,880.243
2217.13,875.555
2218.58,883.649
2220.04,862.819
2221.49,864.084
2222.94,879.242
2224.4,875.372
2225.85,864.227
2227.31,876.588
2228.76,886.555
2230.22,870.76
2231.67,873.34
2233.12,884.703
2234.58,885.168
2236.03,895.466
2237.49,905.365
2238.94,895.929
2240.4,908.207
2241.85,903.512
2243.3,889.802
2244.76,875.457
2246.21,880.1
2247.67,886.393
2249.12,892.428
2250.57,898.593
2252.03,907.485
2253.48,895.725
2254.94,895.083
2256.39,897.391
2257.85,901.4
2259.3,893.657
2260.75,915.272
2262.21,912.662
2263.66,899.948
2265.12,907.886
2266.57,905.596
2268.03,904.019
2269.48,914.007
2270.93,897.008
2272.39,902.246
2273.84,908.768
2275.3,913.321
2276.75,921.429
2278.2,941.6
2279.66,935.604
2281.11,922.445
2282.57,931.844
2284.02,907.316
2285.48,953.762
2286.93,939.106
2288.38,938.384
2289.84,941.075
2291.29,953.156
2292.75,945.788
2294.2,954.261
2295.66,954.297
2297.11,972.517
2298.56,989.811
2300.02,971.314
2301.47,960.382
2302.93,959.295
2304.38,977.524
2305.83,973.132
2307.29,997.09
2308.74,995.584
2310.2,970.423
2311.65,978.281
2313.11,984.554
2314.56,981.926
2316.01,1011.27
2317.47,1010.51
2318.92,995.13
2320.38,996.315
2321.83,976.125
2323.29,1008.95
2324.74,1019.53
2326.19,1018.72
2327.65,1032.38
2329.1,1037.38
2330.56,1033.6
2332.01,1037.47
2333.47,1023.85
2334.92,1040.61
2336.37,1032.93
2337.83,1045.69
2339.28,1036.78
2340.74,1046.76
2342.19,1059.69
2343.64,1047.54
2345.1,1069.82
2346.55,1089.47
2348.01,1079.37
2349.46,1079.38
2350.92,1113.04
2352.37,1087.59
2353.82,1075.66
2355.28,1094.58
2356.73,1101.36
2358.19,1099.48
2359.64,1131.89
2361.1,1127.17
2362.55,1137.32
2364,1149.72
2365.46,1165.12
2366.91,1167.93
2368.37,1175.94
2369.82,1193.56
2371.27,1192
2372.73,1201.33
2374.18,1225.76
2375.64,1228.46
2377.09,1234.02
2378.55,1224.05
2380,1256.07
2381.45,1250.2
2382.91,1287.27
2384.36,1320.23
2385.82,1344.82
2387.27,1319.25
2388.73,1372.12
2390.18,1357.32
2391.63,1389.41
2393.09,1441.1
2394.54,1474.11
2396,1444.82
2397.45,1496.27
2398.9,1548.73
2400.36,1556.06
2401.81,1549.77
2403.27,1586.43
2404.72,1617.67
2406.18,1642.4
2407.63,1643.98
2409.08,1676.27
2410.54,1723.45
2411.99,1756.83
2413.45,1762.44
2414.9,1727.77
2416.36,1751.81
2417.81,1810.93
2419.26,1799.21
2420.72,1758.04
2422.17,1825.74
2423.63,1828.75
2425.08,1842.66
2426.53,1883.7
2427.99,1895.01
2429.44,1847.92
2430.9,1889.22
2432.35,1857.16
2433.81,1866.03
2435.26,1878.92
2436.71,1879.16
2438.17,1855.12
2439.62,1823.82
2441.08,1819.23
2442.53,1817.5
2443.99,1824.87
2445.44,1788.06
2446.89,1753.17
2448.35,1735.4
2449.8,1752.42
2451.26,1724.95
2452.71,1713.36
2454.17,1724.15
2455.62,1759.92
2457.07,1741.22
2458.53,1699.59
2459.98,1682.78
2461.44,1705.02
2462.89,1678.52
2464.34,1667.41
2465.8,1656.43
2467.25,1655.8
2468.71,1657.31
2470.16,1644.33
2471.62,1636.73
2473.07,1635.26
2474.52,1627.27
2475.98,1609.1
2477.43,1582.89
2478.89,1584.82
2480.34,1608.99
2481.8,1604.65
2483.25,1557.53
2484.7,1577.11
2486.16,1567.61
2487.61,1585.48
2489.07,1598.49
2490.52,1567.25
2491.97,1614.87
2493.43,1594.71
2494.88,1579.92
2496.34,1578.49
2497.79,1567.09
2499.25,1564.57
2500.7,1603.42
2502.15,1608.49
2503.61,1610.67
2505.06,1604
2506.52,1612.94
2507.97,1628.04
2509.43,1612.94
2510.88,1629.6
2512.33,1644.98
2513.79,1628.44
2515.24,1664.67
2516.7,1671.6
2518.15,1626.94
2519.6,1642.11
2521.06,1663.76
2522.51,1672.4
2523.97,1695.82
2525.42,1699.9
2526.88,1683.62
2528.33,1697.51
2529.78,1744.03
2531.24,1776.02
2532.69,1759.82
2534.15,1770.16
2535.6,1808.69
2537.06,1815.85
2538.51,1845.27
2539.96,1838.84
2541.42,1899.61
2542.87,1865.66
2544.33,1895.54
2545.78,1933.41
2547.24,1954.58
2548.69,1948.38
2550.14,1959.29
2551.6,2015.85
2553.05,2046.94
2554.51,2039.25
2555.96,2100.47
2557.41,2143.19
2558.87,2141.41
2560.32,2174.27
2561.78,2230.49
2563.23,2279.1
2564.69,2286.76
2566.14,2320.48
2567.59,2360.07
2569.05,2423.66
2570.5,2463.51
2571.96,2504.44
2573.41,2602.93
2574.87,2633.48
2576.32,2700.55
2577.77,2737.16
2579.23,2778.33
2580.68,2858.41
2582.14,2911.91
2583.59,2996.42
2585.04,3073.68
2586.5,3128.61
2587.95,3217.01
2589.41,3272.43
2590.86,3432.9
2592.32,3488.05
2593.77,3592.44
2595.22,3725.93
2596.68,3851.93
2598.13,3957.98
2599.59,4087.87
2601.04,4233.65
2602.5,4374.5
2603.95,4566.65
2605.4,4703.24
2606.86,4845.26
2608.31,4979.11
2609.77,5174.51
2611.22,5379.15
2612.68,5575.88
2614.13,5763.07
2615.58,6037.27
2617.04,6265.52
2618.49,6569.12
2619.95,6757.6
2621.4,7036.48
2622.85,7308.81
2624.31,7535.57
2625.76,7885.8
2627.22,8176.63
2628.67,8513.63
2630.13,8860.6
2631.58,9198.34
2633.03,9496.28
2634.49,9885.01
2635.94,10175.7
2637.4,10540.3
2638.85,10870.4
2640.31,11203
2641.76,11514.9
2643.21,11857.6
2644.67,12218.3
2646.12,12513.1
2647.58,12788.8
2649.03,13052.3
2650.48,13267.5
2651.94,13433.7
2653.39,13592.6
2654.85,13830.7
2656.3,13844.8
2657.76,13997.7
2659.21,14059
2660.66,14184.6
2662.12,14139.6
2663.57,14172.3
2665.03,13995.7
2666.48,13865.6
2667.94,13720.3
2669.39,13515.9
2670.84,13373
2672.3,13112.3
2673.75,12809.4
2675.21,12657.6
2676.66,12225
2678.11,12023.2
2679.57,11584.7
2681.02,11223.2
2682.48,10949.4
2683.93,10566.2
2685.39,10185.5
2686.84,9812.48
2688.29,9486.21
2689.75,9144.97
2691.2,8804.42
2692.66,8394.27
2694.11,8050.48
2695.57,7757.59
2697.02,7460.66
2698.47,7161.24
2699.93,6946.77
2701.38,6623.33
2702.84,6286.9
2704.29,6046.57
2705.75,5812.86
2707.2,5595.35
2708.65,5331.43
2710.11,5113.76
2711.56,4891.29
2713.02,4723.51
2714.47,4582.05
2715.92,4455.56
2717.38,4281.13
2718.83,4089.95
2720.29,3926.15
2721.74,3787.6
2723.2,3652.21
2724.65,3573.28
2726.1,3435.42
2727.56,3289.25
2729.01,3188.21
2730.47,3051.75
2731.92,3005.81
2733.38,2896.76
2734.83,2837.27
2736.28,2753.14
2737.74,2709.88
2739.19,2605.52
2740.65,2569.97
2742.1,2515.21
2743.55,2441.86
2745.01,2395.52
2746.46,2328.93
2747.92,2266.32
2749.37,2246.72
2750.83,2235.28
2752.28,2152.84
2753.73,2142.05
2755.19,2078.52
2756.64,2048.18
2758.1,1997.35
2759.55,1966.91
2761.01,1919.92
2762.46,1910.16
2763.91,1888.41
2765.37,1852.85
2766.82,1841.72
2768.28,1821.31
2769.73,1771.1
2771.18,1761.86
2772.64,1759.04
2774.09,1730.29
2775.55,1662.77
2777,1656.61
2778.46,1655.59
2779.91,1658.82
2781.36,1613.42
2782.82,1583.37
2784.27,1578.93
2785.73,1588.04
2787.18,1578.03
2788.64,1556.67
2790.09,1553.97
2791.54,1525
2793,1520.64
2794.45,1496.07
2795.91,1482.29
2797.36,1491.98
2798.82,1475.04
2800.27,1460.86
2801.72,1429.46
2803.18,1417.81
2804.63,1420.66
2806.09,1387.48
2807.54,1403.81
2808.99,1431.12
2810.45,1403.28
2811.9,1393.95
2813.36,1373.31
2814.81,1362.86
2816.27,1385.77
2817.72,1366.38
2819.17,1335.67
2820.63,1332.15
2822.08,1339.54
2823.54,1332.65
2824.99,1321.79
2826.45,1322.5
2827.9,1320.51
2829.35,1292.94
2830.81,1305.01
2832.26,1280.11
2833.72,1274.14
2835.17,1279.37
2836.62,1277.44
2838.08,1290.59
2839.53,1286.1
2840.99,1286.12
2842.44,1289.07
2843.9,1281.43
2845.35,1258.73
2846.8,1269.32
2848.26,1266.87
2849.71,1273.09
2851.17,1289.93
2852.62,1282.72
2854.08,1283.03
2855.53,1258.24
2856.98,1242.75
2858.44,1292.16
2859.89,1275.02
2861.35,1256.45
2862.8,1243.31
2864.25,1261.45
2865.71,1253.32
2867.16,1238.58
2868.62,1253.05
2870.07,1253.03
2871.53,1248.11
2872.98,1249.97
2874.43,1258.08
2875.89,1292.05
2877.34,1255.68
2878.8,1260.7
2880.25,1244.36
2881.71,1265.4
2883.16,1262.93
2884.61,1258.92
2886.07,1280.31
2887.52,1280.76
2888.98,1278.32
2890.43,1284.96
2891.89,1268.05
2893.34,1269.4
2894.79,1303.35
2896.25,1297.54
2897.7,1300.63
2899.16,1281.39
2900.61,1298.35
2902.06,1279.68
2903.52,1312.58
2904.97,1291.74
2906.43,1278.45
2907.88,1278.61
2909.34,1271.51
2910.79,1266.04
2912.24,1291.19
2913.7,1256.74
2915.15,1260.79
2916.61,1256.46
2918.06,1254.76
2919.52,1247.58
2920.97,1209.13
2922.42,1216.99
2923.88,1227.88
2925.33,1211.75
2926.79,1184.8
2928.24,1185.26
2929.69,1177.63
2931.15,1186.71
2932.6,1161.84
2934.06,1169.97
2935.51,1163.31
2936.97,1140.08
2938.42,1122.5
2939.87,1115.59
2941.33,1094.37
2942.78,1125.88
2944.24,1119.48
2945.69,1096.31
2947.15,1093.15
2948.6,1060.94
2950.05,1069.34
2951.51,1053.68
2952.96,1048.23
2954.42,1026.22
2955.87,1021.2
2957.32,1017.52
2958.78,1004.89
2960.23,1006.65
2961.69,991.646
2963.14,999.602
2964.6,983.957
2966.05,959.874
2967.5,955.856
2968.96,949.254
2970.41,951.437
2971.87,939.836
2973.32,940.888
2974.78,940.843
2976.23,934.268
2977.68,925.946
2979.14,924.102
2980.59,903.111
2982.05,947.659
2983.5,900.01
2984.96,884.559
2986.41,908.884
2987.86,898.478
2989.32,897.756
2990.77,880.02
2992.23,915.798
2993.68,878.961
2995.13,875.475
2996.59,898.896
2998.04,884.636
2999.5,886.146
3000.95,887.873
3002.41,847.649
3003.86,851.9
3005.31,852.219
3006.77,878.46
3008.22,885.578
3009.68,878.753
3011.13,879
3012.59,856.124
3014.04,851.219
3015.49,842.275
3016.95,855.782
3018.4,874.096
3019.86,838.668
3021.31,851.737
3022.76,838.385
3024.22,855.056
3025.67,824.138
3027.13,834.241
3028.58,828.356
3030.04,831.098
3031.49,819.87
3032.94,836.888
3034.4,845.455
3035.85,839.009
3037.31,819.837
3038.76,836.477
3040.22,809.292
3041.67,826.028
3043.12,852.62
3044.58,837.668
3046.03,829.608
3047.49,820.336
3048.94,823.352
3050.4,839.813
3051.85,828.497
3053.3,834.808
3054.76,856.72
3056.21,850.322
3057.67,854.614
3059.12,841.592
3060.57,850.131
3062.03,812.276
3063.48,833.722
3064.94,832.512
3066.39,857.179
3067.85,830.606
3069.3,851.864
3070.75,865.596
3072.21,858.371
3073.66,844.505
3075.12,864.987
3076.57,858.629
3078.03,862.461
3079.48,873.939
3080.93,884.541
3082.39,907.69
3083.84,886.432
3085.3,874.809
3086.75,893.862
3088.2,872.85
3089.66,891.706
3091.11,901.275
3092.57,898.656
3094.02,904.189
3095.48,920.449
3096.93,890.252
3098.38,968.205
3099.84,953.076
3101.29,951.472
3102.75,962.262
3104.2,952.934
3105.66,989.543
3107.11,947.115
3108.56,1007.49
3110.02,1019.01
3111.47,1005.83
3112.93,1023.63
3114.38,1037.82
3115.83,1041.08
3117.29,1053.14
3118.74,1078.75
3120.2,1116.43
3121.65,1111.01
3123.11,1108.96
3124.56,1081.04
3126.01,1134.37
3127.47,1134.56
3128.92,1138.32
3130.38,1167
3131.83,1181.13
3133.29,1184.12
3134.74,1198.42
3136.19,1195.76
3137.65,1191.57
3139.1,1166.96
3140.56,1214.98
3142.01,1185.79
3143.47,1228.09
3144.92,1237.86
3146.37,1228.12
3147.83,1213.56
3149.28,1203.84
3150.74,1214.73
3152.19,1239.85
3153.64,1229.15
3155.1,1218.72
3156.55,1232.14
3158.01,1231.89
3159.46,1230.74
3160.92,1272.7
3162.37,1265.02
3163.82,1255.59
3165.28,1257.85
3166.73,1283.67
3168.19,1243.86
3169.64,1277.2
3171.1,1276.47
3172.55,1289.74
3174,1295.35
3175.46,1317.56
3176.91,1324.48
3178.37,1305.28
3179.82,1336.37
3181.27,1353.09
3182.73,1386.72
3184.18,1374.17
3185.64,1385.85
3187.09,1406.32
3188.55,1429.09
3190,1433.73
3191.45,1439.7
3192.91,1453.29
3194.36,1462.37
3195.82,1478.32
3197.27,1484.6
3198.73,1442.88
3200.18,1509.9
3201.63,1488.69
3203.09,1494.27
3204.54,1491.95
3206,1470.35
3207.45,1497.68
3208.9,1431.36
3210.36,1467.98
3211.81,1429.41
3213.27,1419.48
3214.72,1394.62
3216.18,1376.76
3217.63,1372.87
3219.08,1321.05
3220.54,1311.32
3221.99,1296.25
3223.45,1259.85
3224.9,1238.99
3226.36,1224.11
3227.81,1214.5
3229.26,1149.14
3230.72,1127.87
3232.17,1114.38
3233.63,1080.08
3235.08,1052.95
3236.53,1009.05
3237.99,1005.82
3239.44,958.048
3240.9,960.783
3242.35,942.937
3243.81,914.854
3245.26,880.944
3246.71,882.487
3248.17,874.919
3249.62,868.432
3251.08,851.222
3252.53,853.69
3253.99,832.423
3255.44,796.117
3256.89,803.38
3258.35,779.573
3259.8,788.576
3261.26,786.464
3262.71,766.166
3264.17,780.446
3265.62,758.855
3267.07,742.484
3268.53,751.654
3269.98,745.368
3271.44,736.719
3272.89,730.315
3274.34,754.847
3275.8,716.76
3277.25,734.789
3278.71,722.575
3280.16,717.129
3281.62,725.576
3283.07,730.516
3284.52,708.589
3285.98,714.545
3287.43,694.285
3288.89,688.75
3290.34,673.026
3291.8,692.702
3293.25,688.194
3294.7,687.424
3296.16,690.989
3297.61,694.19
3299.07,704.233
3300.52,690.82
3301.97,688.174
3303.43,661.962
3304.88,674.073
3306.34,681.375
3307.79,683.677
3309.25,682.244
3310.7,694.715
3312.15,689.133
3313.61,671.11
3315.06,679.031
3316.52,686.136
3317.97,678.521
3319.43,666.971
3320.88,679.785
3322.33,673.092
3323.79,678.269
3325.24,654.417
3326.7,677.307
3328.15,659.351
3329.6,669.437
3331.06,671.536
3332.51,651.964
3333.97,648.576
3335.42,666.045
3336.88,657.038
3338.33,667.975
3339.78,675.16
3341.24,676.226
3342.69,660.403
3344.15,669.672
3345.6,677.758
3347.06,667.443
3348.51,665.075
3349.96,667.572
3351.42,668.137
3352.87,643.631
3354.33,665.034
3355.78,661.375
3357.24,659.773
3358.69,680.565
3360.14,651.692
3361.6,681.958
3363.05,677.417
3364.51,678.589
3365.96,645.639
3367.41,663.842
3368.87,664.108
3370.32,676.825
3371.78,660.4
3373.23,655.119
3374.69,662.732
3376.14,650.421
3377.59,649.542
3379.05,662.942
3380.5,657.461
3381.96,665.91
3383.41,654.454
3384.87,650.189
3386.32,660.295
3387.77,651.409
3389.23,648.895
3390.68,651.029
3392.14,648.156
3393.59,641.106
3395.04,680.778
3396.5,675.857
3397.95,649.008
3399.41,650.375
3400.86,663.356
3402.32,654.763
3403.77,676.334
3405.22,665.849
3406.68,645.912
3408.13,663.36
3409.59,666.915
3411.04,657.288
3412.5,637.469
3413.95,646.305
3415.4,655.707
3416.86,634.059
3418.31,629.547
3419.77,656.1
3421.22,637.066
3422.68,648.294
3424.13,652.459
3425.58,649.39
3427.04,652.026
3428.49,650.571
3429.95,642.431
3431.4,645.624
3432.85,651.116
3434.31,648.938
3435.76,634.714
3437.22,629.448
3438.67,644.462
3440.13,654.672
3441.58,628.535
3443.03,638.51
3444.49,636.557
3445.94,633.847
3447.4,630.327
3448.85,639.127
3450.31,657.436
3451.76,648.912
3453.21,639.48
3454.67,655.128
3456.12,652.549
3457.58,635.952
3459.03,648.379
3460.48,648.602
3461.94,645.511
3463.39,639.401
3464.85,651.322
3466.3,649.837
3467.76,661.96
3469.21,641.735
3470.66,626.322
3472.12,630.945
3473.57,631.508
3475.03,635.178
3476.48,654.333
3477.94,634.711
3479.39,640.657
3480.84,638.879
3482.3,633.58
3483.75,634.42
3485.21,633.257
3486.66,644.109
3488.11,651.687
3489.57,649.685
3491.02,645.773
3492.48,616.08
3493.93,657.313
3495.39,644.296
3496.84,645.343
3498.29,648.574
3499.75,658.532
3501.2,652.05
3502.66,646.032
3504.11,639.868
3505.57,635.271
3507.02,652.484
3508.47,638.802
3509.93,639.095
3511.38,637.579
3512.84,631.751
3514.29,627.707
3515.75,606.414
3517.2,633.795
3518.65,647.614
3520.11,643.229
3521.56,652.188
3523.02,657.217
3524.47,651.209
3525.92,641.37
3527.38,642.578
3528.83,644.256
3530.29,622.258
3531.74,633.988
3533.2,636.922
3534.65,638.749
3536.1,634.449
3537.56,613.943
3539.01,633.617
3540.47,629.77
3541.92,631.985
3543.38,625.965
3544.83,630.514
3546.28,627.635
3547.74,636.319
3549.19,635.846
3550.65,647.42
3552.1,640.96
3553.55,653.744
3555.01,645.435
3556.46,641.096
3557.92,621.083
3559.37,624.113
3560.83,628.255
3562.28,625.884
3563.73,600.878
3565.19,612.899
3566.64,638.028
3568.1,618.024
3569.55,630.347
3571.01,634.746
3572.46,617.165
3573.91,619.535
3575.37,626.79
3576.82,624.899
3578.28,608.183
3579.73,646.558
3581.18,629.709
3582.64,623.043
3584.09,624.619
3585.55,625.543
3587,619.797
3588.46,630.29
3589.91,647.804
3591.36,639.727
3592.82,627.516
3594.27,628.441
3595.73,630.15
3597.18,626.251
3598.64,636.173
3600.09,622.248
3601.54,613.914
3603,637.869
3604.45,626.624
3605.91,639.425
3607.36,611.913
3608.82,639.716
3610.27,638.013
3611.72,628.419
3613.18,628.598
3614.63,622.693
3616.09,623.334
3617.54,630.25
3618.99,608.458
3620.45,618.658
3621.9,646.484
3623.36,610.221
3624.81,614.336
3626.27,623.85
3627.72,623.774
3629.17,618.719
3630.63,616.285
3632.08,626.79
3633.54,635.553
3634.99,605.465
3636.45,623.949
3637.9,613.349
3639.35,620.748
3640.81,628.185
3642.26,599.28
3643.72,617.453
3645.17,615.279
3646.62,632.674
3648.08,606.3
3649.53,620.426
3650.99,609.599
3652.44,615.256
3653.9,625.927
3655.35,643.822
3656.8,635.135
3658.26,624.487
3659.71,611.862
3661.17,655.704
3662.62,608.589
3664.08,624.164
3665.53,615.508
3666.98,616.372
3668.44,619.765
3669.89,621.744
3671.35,634.642
3672.8,609.18
3674.25,637.808
3675.71,627.148
3677.16,629.74
3678.62,629.409
3680.07,614.315
3681.53,638.392
3682.98,624.181
3684.43,606.164
3685.89,627.783
3687.34,635.236
3688.8,635.049
3690.25,627.02
3691.71,613.712
3693.16,628.29
3694.61,617.983
3696.07,620.243
3697.52,620.986
3698.98,619.548
3700.43,615.195
3701.89,630.706
3703.34,633.501
3704.79,635.398
3706.25,658.57
3707.7,638.83
3709.16,635.87
3710.61,626.193
3712.06,631.23
3713.52,635.943
3714.97,645.668
3716.43,647.001
3717.88,618.942
3719.34,637.613
3720.79,633.92
3722.24,629.706
3723.7,603.64
3725.15,634.05
3726.61,615.023
3728.06,649.661
3729.52,624.737
3730.97,615.668
3732.42,628.768
3733.88,642.034
3735.33,625.911
3736.79,617.82
3738.24,631.012
3739.69,619.92
3741.15,619.895
3742.6,604.707
3744.06,642.466
3745.51,619.753
3746.97,639.016
3748.42,625.547
3749.87,640.825
3751.33,638.17
3752.78,639.928
3754.24,614.2
3755.69,613.134
3757.15,635.099
3758.6,650.858
3760.05,637.296
3761.51,633.034
3762.96,620.639
3764.42,632.739
3765.87,657.64
3767.32,649.319
3768.78,639.679
3770.23,642.627
3771.69,622.457
3773.14,609.075
3774.6,635.627
3776.05,633.879
3777.5,648.102
3778.96,647.074
3780.41,635.391
3781.87,641.552
3783.32,640.67
3784.78,601.924
3786.23,632.881
3787.68,625.294
3789.14,621.471
3790.59,642.044
3792.05,639.09
3793.5,662.333
3794.96,643.045
3796.41,653.11
3797.86,660.72
3799.32,646.24
3800.77,634.776
3802.23,656.031
3803.68,655.658
3805.13,657.773
3806.59,646.391
3808.04,625.882
3809.5,655.253
3810.95,648.241
3812.41,653.572
3813.86,648.795
3815.31,650.67
3816.77,646.892
3818.22,635.66
3819.68,631.184
3821.13,637.398
3822.59,634.929
3824.04,660.881
3825.49,662.482
3826.95,640.672
3828.4,624.396
3829.86,638.352
3831.31,668.667
3832.76,653.791
3834.22,663.788
3835.67,657.428
3837.13,652.466
3838.58,632.545
3840.04,657.133
3841.49,649.018
3842.94,644.01
3844.4,644.414
3845.85,665.909
3847.31,657.849
3848.76,644.967
3850.22,658.199
3851.67,635.143
3853.12,658.641
3854.58,666.023
3856.03,662.331
3857.49,656.651
3858.94,646.532
3860.4,649.065
3861.85,647.058
3863.3,666.817
3864.76,668.484
3866.21,656.196
3867.67,644.985
3869.12,658.822
3870.57,664.386
3872.03,663.003
3873.48,663.928
3874.94,671.547
3876.39,676.851
3877.85,673.812
3879.3,671.611
3880.75,678.81
3882.21,660.273
3883.66,686.641
3885.12,649.685
3886.57,663.077
3888.03,664.288
3889.48,682.066
3890.93,655.415
3892.39,669.745
3893.84,665.968
3895.3,674.832
3896.75,682.95
3898.2,680.884
3899.66,671.24
3901.11,681.235
3902.57,691.133
3904.02,670.7
3905.48,682.047
3906.93,692.473
3908.38,668.258
3909.84,653.405
3911.29,681.865
3912.75,679.898
3914.2,675.977
3915.66,682.216
3917.11,685.182
3918.56,670.152
3920.02,685.995
3921.47,689.568
3922.93,688.533
3924.38,690.387
3925.83,676.058
3927.29,696.365
3928.74,694.479
3930.2,701.672
3931.65,705.212
3933.11,715.266
3934.56,721.244
3936.01,691.05
3937.47,715.426
3938.92,711.181
3940.38,710.904
3941.83,706.412
3943.29,730.544
3944.74,708.559
3946.19,713.243
3947.65,715.757
3949.1,703.846
3950.56,727.233
3952.01,734.697
3953.47,745.307
3954.92,717.368
3956.37,713.876
3957.83,714.917
3959.28,736.414
3960.74,738.805
3962.19,745.121
3963.64,735.211
3965.1,734.253
3966.55,738.979
3968.01,762.631
3969.46,737.82
3970.92,728.972
3972.37,744.83
3973.82,753.254
3975.28,744.681
3976.73,749.05
3978.19,753.523
3979.64,734.518
3981.1,775.57
3982.55,760.47
3984,735.233
3985.46,780.147
3986.91,760.217
3988.37,764.791
3989.82,746.134
3991.27,766.646
3992.73,789.496
3994.18,781.725
3995.64,780.809
3997.09,781.639
3998.55,757.205
4000,775.027
