0,7.52045
1.45033,7.52045
2.90065,7.52045
4.35098,7.52045
5.80131,7.52045
7.25163,7.52045
8.70196,31.4623
10.1523,13.8014
11.6026,10.8751
13.0529,12.074
14.5033,13.5006
15.9536,12.2356
17.4039,4.90689
18.8542,0.41966
20.3046,0.330808
21.7549,2.92076
23.2052,6.03963
24.6555,5.67292
26.1059,4.04784
27.5562,1.14856
29.0065,0.267564
30.4569,5.54018
31.9072,2.60409
33.3575,2.42443
34.8078,2.1146
36.2582,1.15493
37.7085,2.25662
39.1588,0.308871
40.6091,2.38526
42.0595,6.65726
43.5098,10.4481
44.9601,11.9182
46.4104,11.2704
47.8608,17.4331
49.3111,30.4766
50.7614,45.9873
52.2117,114.4
53.6621,222.344
55.1124,384.66
56.5627,603.917
58.0131,864.847
59.4634,1120.48
60.9137,1349.66
62.364,1510.25
63.8144,1582.55
65.2647,1715.15
66.715,1772.03
68.1653,1821.27
69.6157,1877
71.066,1929.91
72.5163,1953.12
73.9666,1946.28
75.417,1928.93
76.8673,1930.99
78.3176,2012.14
79.7679,2027.5
81.2183,2060.64
82.6686,2118.54
84.1189,2193.07
85.5693,2242.16
87.0196,2255.94
88.4699,2254.15
89.9202,2206.24
91.3706,2072.11
92.8209,1961.29
94.2712,1859.89
95.7215,1747.55
97.1719,1644.93
98.6222,1615.36
100.073,1557.74
101.523,1490.72
102.973,1429.66
104.423,1382.75
105.874,1345.02
107.324,1313.99
108.774,1299.03
110.225,1276.05
111.675,1232
113.125,1241.62
114.576,1260.95
116.026,1250.04
117.476,1210.95
118.927,1164.15
120.377,1177.13
121.827,1152.72
123.278,1139.04
124.728,1138.34
126.178,1120.91
127.629,1096.46
129.079,1071.17
130.529,1054.31
131.98,1044.22
133.43,1022.7
134.88,996.615
136.331,962.894
137.781,947.594
139.231,952.861
140.682,910.534
142.132,921.728
143.582,904.126
145.033,874.709
146.483,856.599
147.933,828.357
149.384,852.777
150.834,845.142
152.284,815.351
153.735,799.886
155.185,833.356
156.635,805.171
158.086,794.425
159.536,809.299
160.986,826.594
162.437,823.99
163.887,795.298
165.337,762.102
166.788,736.052
168.238,723.244
169.688,726.6
171.139,710.478
172.589,701.173
174.039,698.549
175.489,676.161
176.94,720.078
178.39,731.006
179.84,728.273
181.291,721.785
182.741,706.865
184.191,689.406
185.642,672.924
187.092,654.501
188.542,643.606
189.993,674.25
191.443,649.034
192.893,648.828
194.344,663.29
195.794,670.252
197.244,632.149
198.695,640.663
200.145,642.986
201.595,634.057
203.046,618.695
204.496,615.703
205.946,630.978
207.397,639.801
208.847,649.352
210.297,660.347
211.748,645.753
213.198,647.591
214.648,653.199
216.099,651.737
217.549,641.493
218.999,645.986
220.45,659.721
221.9,651.486
223.35,632.861
224.801,622.244
226.251,643.602
227.701,637.216
229.152,650.437
230.602,641.169
232.052,599.948
233.503,632.987
234.953,634.917
236.403,636.438
237.854,637.95
239.304,637.817
240.754,637.066
242.204,631.072
243.655,625.714
245.105,612.138
246.555,593.192
248.006,599.201
249.456,601.67
250.906,611.804
252.357,622.619
253.807,620.578
255.257,581.816
256.708,591.56
258.158,600.523
259.608,605.404
261.059,609.487
262.509,622.293
263.959,569.533
265.41,562.477
266.86,562.921
268.31,566.273
269.761,604.522
271.211,585.672
272.661,578.095
274.112,566.033
275.562,558.303
277.012,578.873
278.463,577.364
279.913,581.876
281.363,576.57
282.814,569.968
284.264,577.932
285.714,557.92
287.165,563.069
288.615,569.909
290.065,560.069
291.516,529.982
292.966,548.875
294.416,568.761
295.867,556.277
297.317,538.435
298.767,539.768
300.218,531.835
301.668,537.038
303.118,539.376
304.569,518.369
306.019,485.694
307.469,515.971
308.919,502.53
310.37,505.773
311.82,504.198
313.27,493.496
314.721,492.733
316.171,491.598
317.621,496.346
319.072,484.357
320.522,472.845
321.972,496.364
323.423,494.47
324.873,478.039
326.323,477.07
327.774,487.619
329.224,493.346
330.674,475.892
332.125,491.96
333.575,492.844
335.025,479.708
336.476,464.427
337.926,463.288
339.376,461.422
340.827,467.766
342.277,471.862
343.727,473.082
345.178,481.344
346.628,455.878
348.078,467.463
349.529,491.737
350.979,503.866
352.429,485.34
353.88,457.194
355.33,472.499
356.78,482.019
358.231,483.073
359.681,480.538
361.131,469.499
362.582,452.002
364.032,444.135
365.482,449.137
366.933,457.368
368.383,447.228
369.833,443.414
371.284,437.178
372.734,437.002
374.184,437.977
375.635,434.752
377.085,461.445
378.535,474.045
379.986,453.383
381.436,436.714
382.886,447.86
384.336,457.782
385.787,446.606
387.237,438.173
388.687,442.361
390.138,454.374
391.588,458.588
393.038,451.712
394.489,434.276
395.939,443.08
397.389,455.498
398.84,443.88
400.29,425.529
401.74,452.65
403.191,438.239
404.641,436.277
406.091,452
407.542,428.577
408.992,440.438
410.442,454.175
411.893,457.014
413.343,455.993
414.793,457.825
416.244,436.762
417.694,453.162
419.144,454.46
420.595,440.056
422.045,427.574
423.495,444.828
424.946,440.613
426.396,434.833
427.846,424.609
429.297,431.179
430.747,460.354
432.197,428.478
433.648,444.785
435.098,439.166
436.548,427.355
437.999,423.677
439.449,428.717
440.899,412.59
442.35,434.407
443.8,433.459
445.25,422.892
446.701,430.434
448.151,451.98
449.601,448.896
451.051,444.663
452.502,441.63
453.952,432.163
455.402,409.731
456.853,436.302
458.303,428.805
459.753,429.373
461.204,430.555
462.654,425.418
464.104,428.099
465.555,422.323
467.005,430.473
468.455,438.9
469.906,432.251
471.356,411.848
472.806,446.567
474.257,450.97
475.707,441.679
477.157,439.826
478.608,449.698
480.058,454.895
481.508,414.396
482.959,433.8
484.409,436.849
485.859,435.91
487.31,442.797
488.76,423.934
490.21,447.485
491.661,459.478
493.111,444.526
494.561,419.672
496.012,413.152
497.462,434.786
498.912,420.427
500.363,428.36
501.813,431.322
503.263,424.243
504.714,425.369
506.164,440.452
507.614,435.638
509.065,431.164
510.515,431.325
511.965,430.61
513.416,417.77
514.866,426.683
516.316,436.566
517.766,437.845
519.217,432.989
520.667,427.533
522.117,424.877
523.568,433.799
525.018,425.392
526.468,418.774
527.919,417.633
529.369,423.852
530.819,455.685
532.27,424.747
533.72,433.124
535.17,432.283
536.621,425.439
538.071,438.971
539.521,442.853
540.972,431.447
542.422,437.78
543.872,432.361
545.323,424.594
546.773,443.419
548.223,434.083
549.674,432.553
551.124,439.764
552.574,443.991
554.025,440.759
555.475,434.874
556.925,432.15
558.376,429.77
559.826,424.477
561.276,423.554
562.727,422.954
564.177,410.649
565.627,426.237
567.078,418.851
568.528,407.269
569.978,406.148
571.429,413.414
572.879,412.236
574.329,425.499
575.78,412.515
577.23,420.678
578.68,429.549
580.131,430.308
581.581,440.954
583.031,417.527
584.482,429.171
585.932,427.048
587.382,424.228
588.832,424.863
590.283,410.78
591.733,410.78
593.183,419.696
594.634,434.642
596.084,425.506
597.534,397.161
598.985,392.848
600.435,396.76
601.885,419.445
603.336,425.279
604.786,428.927
606.236,433.975
607.687,427.284
609.137,423.76
610.587,428.745
612.038,437.12
613.488,437.469
614.938,433.851
616.389,438.196
617.839,428.79
619.289,440.112
620.74,423.451
622.19,420.069
623.64,425.856
625.091,411.831
626.541,409.476
627.991,424.777
629.442,442.366
630.892,444.976
632.342,433.283
633.793,419.786
635.243,417.823
636.693,442.332
638.144,440.412
639.594,430.092
641.044,427.02
642.495,436.459
643.945,447.2
645.395,414.57
646.846,439.46
648.296,450.975
649.746,449.763
651.197,447.704
652.647,442.754
654.097,444.328
655.547,452.199
656.998,452.605
658.448,445.237
659.898,438.614
661.349,441.023
662.799,435.902
664.249,448.236
665.7,451.828
667.15,444.195
668.6,446.014
670.051,466.228
671.501,454.799
672.951,451.251
674.402,455.734
675.852,460.068
677.302,451.393
678.753,437.639
680.203,452.369
681.653,457.902
683.104,463.082
684.554,452.013
686.004,451.554
687.455,458.155
688.905,447.062
690.355,455.358
691.806,469.7
693.256,456.047
694.706,460.72
696.157,468.769
697.607,460.443
699.057,476.739
700.508,459.315
701.958,452.317
703.408,452.701
704.859,454.531
706.309,449.237
707.759,436.691
709.21,469.949
710.66,468.07
712.11,462.518
713.561,456.8
715.011,456.787
716.461,463.708
717.912,463.431
719.362,452.321
720.812,476.375
722.263,480.342
723.713,480.784
725.163,479.534
726.613,454.086
728.064,459.639
729.514,450.604
730.964,455.822
732.415,474.324
733.865,475.5
735.315,454.323
736.766,473.865
738.216,470.683
739.666,462.674
741.117,467.094
742.567,476.617
744.017,480.718
745.468,473.052
746.918,451.955
748.368,453.868
749.819,464.238
751.269,494.77
752.719,499.154
754.17,473.451
755.62,488.859
757.07,506.791
758.521,497.206
759.971,479.611
761.421,463.028
762.872,468.334
764.322,490.965
765.772,468.488
767.223,460.111
768.673,486.08
770.123,483.63
771.574,465.218
773.024,463.431
774.474,487.322
775.925,474.959
777.375,496.126
778.825,479.937
780.276,480.821
781.726,483.639
783.176,482.483
784.627,495.152
786.077,481.959
787.527,501.972
788.978,495.227
790.428,488.694
791.878,486.695
793.328,487.045
794.779,493.011
796.229,495.413
797.68,478.665
799.13,479.397
800.58,490.35
802.03,501.968
803.481,499.924
804.931,471.557
806.381,480.771
807.832,496.625
809.282,503.422
810.732,500.96
812.183,495.804
813.633,489.168
815.083,473.282
816.534,488.123
817.984,475.607
819.434,497.565
820.885,505.504
822.335,500.987
823.785,511.565
825.236,532.131
826.686,513.657
828.136,523.254
829.587,544.643
831.037,534.926
832.487,516.766
833.938,515.527
835.388,497.02
836.838,539.234
838.289,523.389
839.739,510.51
841.189,505.391
842.64,510.373
844.09,517.556
845.54,507.861
846.991,529.594
848.441,514.716
849.891,538.254
851.342,532.363
852.792,505.24
854.242,500.018
855.693,523.297
857.143,495.09
858.593,530.106
860.044,545.819
861.494,553.724
862.944,543.496
864.394,525.791
865.845,532.135
867.295,515.999
868.745,531.934
870.196,524.307
871.646,523.915
873.096,520.271
874.547,509.148
875.997,509.204
877.447,540.165
878.898,545.414
880.348,514.804
881.798,511.658
883.249,508.286
884.699,510.347
886.149,532.037
887.6,525.648
889.05,520.385
890.5,525.44
891.951,535.16
893.401,536.461
894.851,549.431
896.302,567.923
897.752,542.252
899.202,529.701
900.653,516.743
902.103,550.104
903.553,547.848
905.004,533.425
906.454,534.737
907.904,541.07
909.355,541.1
910.805,529.736
912.255,559.661
913.706,575.131
915.156,563.95
916.606,561.044
918.057,579.103
919.507,564.41
920.957,542.065
922.408,574.998
923.858,567.29
925.308,547.033
926.759,549.298
928.209,567.719
929.659,566.691
931.109,549.853
932.56,562.466
934.01,546.005
935.46,558.953
936.911,565.325
938.361,573.125
939.811,587.058
941.262,567.009
942.712,569.044
944.162,542.516
945.613,574.938
947.063,560.903
948.513,538.179
949.964,540.545
951.414,562.449
952.864,607.304
954.315,592.233
955.765,563.174
957.215,577.67
958.666,577.329
960.116,567.258
961.566,559.002
963.017,546.55
964.467,563.547
965.917,565.589
967.368,579.957
968.818,570.481
970.268,563.492
971.719,570.878
973.169,577.941
974.619,564.845
976.07,549.662
977.52,582.333
978.97,583.377
980.421,582.504
981.871,586.406
983.321,572.489
984.772,547.537
986.222,565.293
987.672,578.801
989.123,591.89
990.573,585.273
992.023,579.052
993.474,578.884
994.924,579.961
996.374,573.385
997.825,560.392
999.275,587.853
1000.73,603.205
1002.18,610.452
1003.63,612.475
1005.08,596.258
1006.53,590.622
1007.98,613.138
1009.43,620.696
1010.88,632.187
1012.33,631.925
1013.78,621.434
1015.23,612.014
1016.68,623.044
1018.13,635.516
1019.58,635.113
1021.03,644.912
1022.48,634.69
1023.93,640.856
1025.38,656.253
1026.83,657.328
1028.28,653.598
1029.73,644.867
1031.18,645.946
1032.63,679.03
1034.08,677.546
1035.53,654.089
1036.98,695.547
1038.43,693.786
1039.88,703.137
1041.33,716.321
1042.78,725.342
1044.23,738.636
1045.69,693.743
1047.14,729.597
1048.59,715.994
1050.04,714.388
1051.49,724.996
1052.94,733.172
1054.39,750.353
1055.84,770.953
1057.29,735.34
1058.74,743.179
1060.19,752.638
1061.64,756.901
1063.09,770.758
1064.54,792.015
1065.99,802.798
1067.44,806.436
1068.89,827.819
1070.34,835.992
1071.79,821.942
1073.24,821.747
1074.69,833.863
1076.14,818.948
1077.59,821.79
1079.04,859.739
1080.49,883.871
1081.94,858.956
1083.39,849.854
1084.84,872.352
1086.29,841.485
1087.74,828.803
1089.2,820.842
1090.65,824.229
1092.1,840.297
1093.55,842.478
1095,841.805
1096.45,843.463
1097.9,833.131
1099.35,829.264
1100.8,823.004
1102.25,835.69
1103.7,846.692
1105.15,835.261
1106.6,833.788
1108.05,822.427
1109.5,819.933
1110.95,841.372
1112.4,833.065
1113.85,810.378
1115.3,806.734
1116.75,818.817
1118.2,814.107
1119.65,785.527
1121.1,779.037
1122.55,790.674
1124,783.243
1125.45,788.986
1126.9,782.775
1128.35,784.152
1129.8,791.547
1131.25,780.525
1132.7,772.287
1134.16,778.889
1135.61,760.991
1137.06,761.354
1138.51,763.329
1139.96,756.609
1141.41,774.402
1142.86,783.15
1144.31,751.722
1145.76,778.634
1147.21,779.917
1148.66,784.508
1150.11,759.125
1151.56,754.151
1153.01,738.98
1154.46,744.936
1155.91,767.811
1157.36,770.524
1158.81,764.806
1160.26,746.551
1161.71,744.46
1163.16,748.839
1164.61,744.616
1166.06,749.393
1167.51,754.34
1168.96,749.749
1170.41,751.584
1171.86,771.893
1173.31,748.59
1174.76,784.545
1176.21,753.901
1177.66,764.678
1179.12,760.406
1180.57,748.151
1182.02,735.874
1183.47,739.988
1184.92,765.208
1186.37,755.539
1187.82,767.695
1189.27,749.688
1190.72,777.126
1192.17,792.722
1193.62,799.794
1195.07,796.797
1196.52,792.729
1197.97,790.282
1199.42,777.716
1200.87,798.06
1202.32,796.798
1203.77,803.51
1205.22,786.164
1206.67,787.403
1208.12,777.667
1209.57,765.207
1211.02,773.652
1212.47,795.187
1213.92,805.153
1215.37,801.887
1216.82,801.887
1218.27,798.807
1219.72,793.754
1221.17,792.92
1222.63,799.015
1224.08,794.324
1225.53,801.634
1226.98,844.376
1228.43,825.391
1229.88,789.145
1231.33,820.321
1232.78,806.007
1234.23,843.353
1235.68,838.789
1237.13,836.499
1238.58,826.759
1240.03,801.179
1241.48,817.278
1242.93,837.316
1244.38,843.34
1245.83,822.665
1247.28,830.892
1248.73,844.963
1250.18,833.256
1251.63,861.152
1253.08,900.296
1254.53,885.784
1255.98,848.711
1257.43,867.157
1258.88,904.418
1260.33,886.244
1261.78,884.403
1263.23,894.627
1264.68,899.865
1266.13,902.989
1267.59,897.895
1269.04,899.519
1270.49,924.113
1271.94,945.105
1273.39,981.999
1274.84,955.718
1276.29,972.815
1277.74,1012.77
1279.19,1002.77
1280.64,994.417
1282.09,1003.48
1283.54,1006.47
1284.99,1018.81
1286.44,1072.01
1287.89,1086.06
1289.34,1097.12
1290.79,1112.39
1292.24,1134.58
1293.69,1147.97
1295.14,1183.6
1296.59,1234.94
1298.04,1257.57
1299.49,1265.25
1300.94,1298.02
1302.39,1331.21
1303.84,1400.6
1305.29,1384.45
1306.74,1389.5
1308.19,1484.08
1309.64,1556.64
1311.09,1584.23
1312.55,1629.15
1314,1676.35
1315.45,1715.74
1316.9,1781.19
1318.35,1842.61
1319.8,1955.14
1321.25,2004.51
1322.7,2062.61
1324.15,2158.29
1325.6,2205.98
1327.05,2258.04
1328.5,2310.8
1329.95,2338.14
1331.4,2339.73
1332.85,2357.89
1334.3,2425.71
1335.75,2407.98
1337.2,2377.28
1338.65,2341.94
1340.1,2339.62
1341.55,2345.76
1343,2259.04
1344.45,2204.65
1345.9,2183.63
1347.35,2116.1
1348.8,2040.58
1350.25,2033.29
1351.7,1987.87
1353.15,1891.05
1354.6,1817.99
1356.06,1756.19
1357.51,1725.26
1358.96,1655.35
1360.41,1589.31
1361.86,1548.64
1363.31,1481.09
1364.76,1406.06
1366.21,1407.23
1367.66,1394.8
1369.11,1336.74
1370.56,1350.89
1372.01,1298.51
1373.46,1292.95
1374.91,1270.73
1376.36,1248.52
1377.81,1233.85
1379.26,1223.14
1380.71,1199.09
1382.16,1167.18
1383.61,1162.45
1385.06,1164.8
1386.51,1181.91
1387.96,1145.03
1389.41,1182.29
1390.86,1166.69
1392.31,1137.58
1393.76,1118.22
1395.21,1119.55
1396.66,1113.03
1398.11,1109.53
1399.56,1126.09
1401.02,1126.99
1402.47,1148.25
1403.92,1159.24
1405.37,1106.75
1406.82,1124.85
1408.27,1108.95
1409.72,1115.32
1411.17,1106.21
1412.62,1107.27
1414.07,1124.65
1415.52,1126.95
1416.97,1134.33
1418.42,1169.44
1419.87,1141.63
1421.32,1170.4
1422.77,1179.87
1424.22,1151.41
1425.67,1175.38
1427.12,1169.28
1428.57,1170.94
1430.02,1160.6
1431.47,1162.08
1432.92,1175.79
1434.37,1202.09
1435.82,1214.64
1437.27,1168.26
1438.72,1202.27
1440.17,1215.39
1441.62,1190.77
1443.07,1282.59
1444.53,1264.22
1445.98,1263.69
1447.43,1271.87
1448.88,1268.86
1450.33,1268.04
1451.78,1297.97
1453.23,1325.31
1454.68,1327.34
1456.13,1357.55
1457.58,1346.22
1459.03,1382.22
1460.48,1374.85
1461.93,1393.89
1463.38,1389.56
1464.83,1398.97
1466.28,1456.16
1467.73,1495.6
1469.18,1495.19
1470.63,1487.32
1472.08,1508.49
1473.53,1543.5
1474.98,1550.42
1476.43,1558.29
1477.88,1581.84
1479.33,1653.05
1480.78,1632.63
1482.23,1637.94
1483.68,1732.74
1485.13,1742.54
1486.58,1775.15
1488.03,1816.28
1489.49,1810.94
1490.94,1854.44
1492.39,1928.99
1493.84,1953.78
1495.29,2036.77
1496.74,2009.61
1498.19,2021.88
1499.64,2153.5
1501.09,2190.03
1502.54,2244.82
1503.99,2305.48
1505.44,2362.44
1506.89,2431.95
1508.34,2507.04
1509.79,2617.86
1511.24,2709.84
1512.69,2801.41
1514.14,2969.57
1515.59,3117.07
1517.04,3214.82
1518.49,3345.16
1519.94,3469.1
1521.39,3734.53
1522.84,3921.58
1524.29,4138.21
1525.74,4381.64
1527.19,4654.09
1528.64,4961.81
1530.09,5299.07
1531.54,5688.53
1532.99,6138.5
1534.45,6582.5
1535.9,7073
1537.35,7791.25
1538.8,8501.15
1540.25,9293.71
1541.7,10028.6
1543.15,10843.1
1544.6,11817.1
1546.05,12847.2
1547.5,14021
1548.95,15119.4
1550.4,16162.6
1551.85,17306.3
1553.3,18466.2
1554.75,19622.1
1556.2,20822.5
1557.65,21924.7
1559.1,21960.1
1560.55,21986.3
1562,22036.9
1563.45,22051.9
1564.9,22063.1
1566.35,22050
1567.8,22044.4
1569.25,22061.3
1570.7,22057.5
1572.15,21347.6
1573.6,20243
1575.05,19101.2
1576.5,17950.1
1577.96,16692.9
1579.41,15405.7
1580.86,14232.7
1582.31,13146.9
1583.76,12015.1
1585.21,11036.7
1586.66,10091.5
1588.11,9283.47
1589.56,8579.76
1591.01,7889.67
1592.46,7315.63
1593.91,6846
1595.36,6350.91
1596.81,5935.74
1598.26,5511.38
1599.71,5193.85
1601.16,4979.51
1602.61,4729.6
1604.06,4500.99
1605.51,4307.2
1606.96,4102.55
1608.41,3892.73
1609.86,3728.87
1611.31,3533.12
1612.76,3461.08
1614.21,3232.28
1615.66,3146.43
1617.11,3013.47
1618.56,2933.46
1620.01,2806.17
1621.46,2702.87
1622.92,2599.09
1624.37,2517.27
1625.82,2458.48
1627.27,2387.08
1628.72,2332.03
1630.17,2258.91
1631.62,2215.96
1633.07,2161.63
1634.52,2121.61
1635.97,2052.55
1637.42,2048.67
1638.87,1989.58
1640.32,1937.63
1641.77,1928.59
1643.22,1903.9
1644.67,1874.77
1646.12,1844.39
1647.57,1837.35
1649.02,1810.12
1650.47,1769.75
1651.92,1761.65
1653.37,1757.76
1654.82,1717.06
1656.27,1692.37
1657.72,1685.51
1659.17,1651.17
1660.62,1620.82
1662.07,1627.69
1663.52,1662.09
1664.97,1645.28
1666.42,1623.22
1667.88,1608.87
1669.33,1595.6
1670.78,1573.99
1672.23,1540.52
1673.68,1548.98
1675.13,1544.79
1676.58,1541.68
1678.03,1520.21
1679.48,1501.29
1680.93,1513.91
1682.38,1510.83
1683.83,1498.61
1685.28,1482.82
1686.73,1493.36
1688.18,1490.02
1689.63,1485.16
1691.08,1471.72
1692.53,1446.47
1693.98,1444.18
1695.43,1470.47
1696.88,1486.69
1698.33,1475.27
1699.78,1479.04
1701.23,1456.91
1702.68,1462.08
1704.13,1443.88
1705.58,1459.04
1707.03,1458.64
1708.48,1425.15
1709.93,1458.29
1711.39,1457.7
1712.84,1456.35
1714.29,1450.02
1715.74,1471.5
1717.19,1488.31
1718.64,1457.83
1720.09,1460.32
1721.54,1465.7
1722.99,1428.98
1724.44,1435.83
1725.89,1476.23
1727.34,1489.72
1728.79,1489.91
1730.24,1453.74
1731.69,1429.24
1733.14,1490.04
1734.59,1442.15
1736.04,1430.5
1737.49,1466.63
1738.94,1436.48
1740.39,1432.03
1741.84,1459.72
1743.29,1434.66
1744.74,1425.11
1746.19,1400.71
1747.64,1387.5
1749.09,1408.17
1750.54,1387.64
1751.99,1384.57
1753.44,1406.02
1754.89,1388.21
1756.35,1385.21
1757.8,1417.95
1759.25,1409.82
1760.7,1392.47
1762.15,1398.65
1763.6,1365.79
1765.05,1368.07
1766.5,1389.91
1767.95,1380.8
1769.4,1340.75
1770.85,1336.16
1772.3,1325.84
1773.75,1348.3
1775.2,1339.11
1776.65,1336.97
1778.1,1339.46
1779.55,1347.23
1781,1338.72
1782.45,1343.65
1783.9,1338.29
1785.35,1355.84
1786.8,1360.65
1788.25,1354.9
1789.7,1341.83
1791.15,1337.44
1792.6,1356.36
1794.05,1352.22
1795.5,1345.21
1796.95,1339.88
1798.4,1347.03
1799.85,1361.48
1801.31,1322.35
1802.76,1322.3
1804.21,1294.83
1805.66,1333.67
1807.11,1268
1808.56,1295.61
1810.01,1308.86
1811.46,1310.53
1812.91,1277.84
1814.36,1319.24
1815.81,1346.57
1817.26,1357.97
1818.71,1356.64
1820.16,1339.85
1821.61,1327.04
1823.06,1311.17
1824.51,1323.09
1825.96,1326.75
1827.41,1313.23
1828.86,1335.48
1830.31,1346.37
1831.76,1335.4
1833.21,1347.84
1834.66,1330.71
1836.11,1330.26
1837.56,1313.83
1839.01,1355.01
1840.46,1385.63
1841.91,1327.46
1843.36,1344.49
1844.82,1367.04
1846.27,1346.71
1847.72,1365.16
1849.17,1377.38
1850.62,1365.02
1852.07,1368.95
1853.52,1399.45
1854.97,1400.48
1856.42,1374.85
1857.87,1363.7
1859.32,1404
1860.77,1421.73
1862.22,1404.65
1863.67,1385.89
1865.12,1393.81
1866.57,1399.76
1868.02,1384.19
1869.47,1360.4
1870.92,1348.56
1872.37,1367.87
1873.82,1385.96
1875.27,1371.71
1876.72,1353.81
1878.17,1368.18
1879.62,1354.9
1881.07,1343.67
1882.52,1327.66
1883.97,1331.21
1885.42,1332.56
1886.87,1344.5
1888.32,1339.85
1889.78,1322.42
1891.23,1334.24
1892.68,1328.25
1894.13,1338.28
1895.58,1328.3
1897.03,1341.95
1898.48,1340.02
1899.93,1307.8
1901.38,1311.95
1902.83,1301.93
1904.28,1293.08
1905.73,1301.15
1907.18,1321.37
1908.63,1321.24
1910.08,1306.94
1911.53,1285.69
1912.98,1266.89
1914.43,1280.64
1915.88,1291.09
1917.33,1268.43
1918.78,1268.97
1920.23,1293.18
1921.68,1295.42
1923.13,1293.21
1924.58,1289.1
1926.03,1276.92
1927.48,1280.96
1928.93,1295.89
1930.38,1289.16
1931.83,1283.6
1933.29,1247.72
1934.74,1286.99
1936.19,1296.32
1937.64,1246.09
1939.09,1267.57
1940.54,1254.55
1941.99,1283.62
1943.44,1286.76
1944.89,1288.14
1946.34,1290.89
1947.79,1261.53
1949.24,1288.75
1950.69,1267.59
1952.14,1300.96
1953.59,1308.26
1955.04,1283.92
1956.49,1300.74
1957.94,1293.19
1959.39,1276.02
1960.84,1291.28
1962.29,1286.5
1963.74,1298.3
1965.19,1307.02
1966.64,1305.68
1968.09,1329.17
1969.54,1342.12
1970.99,1345.09
1972.44,1351.78
1973.89,1325.64
1975.34,1326
1976.79,1339.92
1978.25,1337.49
1979.7,1320.78
1981.15,1322.98
1982.6,1333.27
1984.05,1319.31
1985.5,1330.98
1986.95,1321.52
1988.4,1304.46
1989.85,1339.53
1991.3,1328.69
1992.75,1329.54
1994.2,1334.79
1995.65,1343.41
1997.1,1347.69
1998.55,1336.97
2000,1324.81
2001.45,1348.29
2002.9,1332.62
2004.35,1321.97
2005.8,1329.83
2007.25,1340.92
2008.7,1348.37
2010.15,1350.26
2011.6,1357.58
2013.05,1314.48
2014.5,1305.18
2015.95,1323.63
2017.4,1306.94
2018.85,1276.17
2020.3,1322.73
2021.75,1327.73
2023.21,1284.03
2024.66,1317.82
2026.11,1302.23
2027.56,1320.28
2029.01,1326.85
2030.46,1293.07
2031.91,1296.32
2033.36,1275.82
2034.81,1290.63
2036.26,1314.19
2037.71,1299.67
2039.16,1301.72
2040.61,1317.05
2042.06,1280.23
2043.51,1255.58
2044.96,1273.61
2046.41,1236.83
2047.86,1257.06
2049.31,1273.94
2050.76,1257.46
2052.21,1254.85
2053.66,1285.28
2055.11,1292.54
2056.56,1264.56
2058.01,1253.41
2059.46,1279.65
2060.91,1282.66
2062.36,1265.81
2063.81,1252.31
2065.26,1237.8
2066.72,1242.63
2068.17,1261.57
2069.62,1226.29
2071.07,1231.85
2072.52,1268.17
2073.97,1265.33
2075.42,1254.39
2076.87,1257.15
2078.32,1251.59
2079.77,1228.6
2081.22,1246.2
2082.67,1268.12
2084.12,1262.31
2085.57,1233.71
2087.02,1235.61
2088.47,1211.68
2089.92,1210.1
2091.37,1221.6
2092.82,1242.73
2094.27,1274.02
2095.72,1256.4
2097.17,1245.68
2098.62,1250.07
2100.07,1232.68
2101.52,1217.65
2102.97,1229.68
2104.42,1217.54
2105.87,1238.23
2107.32,1246.72
2108.77,1252.23
2110.22,1254.76
2111.68,1264.4
2113.13,1248.82
2114.58,1241.1
2116.03,1262.26
2117.48,1263.05
2118.93,1242.97
2120.38,1266.11
2121.83,1264.6
2123.28,1227.84
2124.73,1250.34
2126.18,1265.92
2127.63,1256.91
2129.08,1261.53
2130.53,1270.87
2131.98,1279.52
2133.43,1278.66
2134.88,1278.55
2136.33,1270.7
2137.78,1281.38
2139.23,1280.94
2140.68,1279.06
2142.13,1266.56
2143.58,1264.51
2145.03,1306.49
2146.48,1308.87
2147.93,1293.36
2149.38,1276.1
2150.83,1278.82
2152.28,1298.28
2153.73,1299.22
2155.18,1283.35
2156.64,1290.92
2158.09,1292.48
2159.54,1288
2160.99,1303.3
2162.44,1305.46
2163.89,1306.79
2165.34,1295.05
2166.79,1303.37
2168.24,1344.16
2169.69,1333.19
2171.14,1315.59
2172.59,1317.26
2174.04,1319.95
2175.49,1330.17
2176.94,1333.64
2178.39,1323.35
2179.84,1325.33
2181.29,1326.89
2182.74,1335.12
2184.19,1332.34
2185.64,1322.43
2187.09,1331.55
2188.54,1343.06
2189.99,1343.46
2191.44,1335.23
2192.89,1351.05
2194.34,1350.45
2195.79,1350.18
2197.24,1362.32
2198.69,1358.01
2200.15,1338.23
2201.6,1340.79
2203.05,1341.58
2204.5,1370.9
2205.95,1363.61
2207.4,1369.76
2208.85,1357.68
2210.3,1367.93
2211.75,1381.86
2213.2,1386.88
2214.65,1374.7
2216.1,1374.84
2217.55,1385.42
2219,1394.37
2220.45,1357.32
2221.9,1390.01
2223.35,1407.71
2224.8,1405.04
2226.25,1381.85
2227.7,1358.09
2229.15,1399.91
2230.6,1421.61
2232.05,1420.68
2233.5,1386.98
2234.95,1397.25
2236.4,1397.49
2237.85,1403.67
2239.3,1370.51
2240.75,1379.87
2242.2,1411.72
2243.65,1431.55
2245.11,1395.21
2246.56,1428.4
2248.01,1415.69
2249.46,1411.51
2250.91,1439.91
2252.36,1425.35
2253.81,1415.42
2255.26,1431.39
2256.71,1409.63
2258.16,1424.39
2259.61,1443.21
2261.06,1433.65
2262.51,1398.73
2263.96,1439.1
2265.41,1452.93
2266.86,1432.42
2268.31,1405.51
2269.76,1427.79
2271.21,1458.32
2272.66,1442.42
2274.11,1440.2
2275.56,1419.07
2277.01,1422.57
2278.46,1464.5
2279.91,1465.13
2281.36,1493.25
2282.81,1501.07
2284.26,1452.08
2285.71,1451.38
2287.16,1473.82
2288.61,1497.15
2290.07,1475.63
2291.52,1450.79
2292.97,1484.67
2294.42,1493.32
2295.87,1499.86
2297.32,1503.46
2298.77,1466.37
2300.22,1503.6
2301.67,1556.01
2303.12,1554.09
2304.57,1531.8
2306.02,1504.49
2307.47,1514.19
2308.92,1509.55
2310.37,1530.45
2311.82,1524.26
2313.27,1545.78
2314.72,1514.73
2316.17,1561.47
2317.62,1530.08
2319.07,1547.03
2320.52,1574.01
2321.97,1552.29
2323.42,1557.35
2324.87,1604.26
2326.32,1570.89
2327.77,1576.74
2329.22,1565.17
2330.67,1609.44
2332.12,1615.97
2333.57,1621.38
2335.03,1625.51
2336.48,1584.86
2337.93,1582.53
2339.38,1615.45
2340.83,1648.48
2342.28,1636.15
2343.73,1652
2345.18,1636.12
2346.63,1658.87
2348.08,1684.1
2349.53,1686.36
2350.98,1682.14
2352.43,1708.42
2353.88,1699.02
2355.33,1705.65
2356.78,1710.42
2358.23,1743.41
2359.68,1725.69
2361.13,1748.19
2362.58,1796.74
2364.03,1808.12
2365.48,1772.59
2366.93,1781.91
2368.38,1825.03
2369.83,1827.33
2371.28,1817.38
2372.73,1829.6
2374.18,1886.21
2375.63,1906.77
2377.08,1918.36
2378.54,1928.11
2379.99,1928.58
2381.44,1945.31
2382.89,2002.6
2384.34,2020.77
2385.79,2005.79
2387.24,2025.8
2388.69,2069.88
2390.14,2102.82
2391.59,2141.13
2393.04,2139.43
2394.49,2149.83
2395.94,2187.15
2397.39,2170.06
2398.84,2177.82
2400.29,2278.35
2401.74,2320.32
2403.19,2330.4
2404.64,2341.1
2406.09,2347.15
2407.54,2413.19
2408.99,2389.36
2410.44,2409.22
2411.89,2401.09
2413.34,2462.84
2414.79,2492.03
2416.24,2448.27
2417.69,2507.66
2419.14,2494.52
2420.59,2517.46
2422.04,2532.93
2423.5,2520.62
2424.95,2545.75
2426.4,2565.61
2427.85,2562.57
2429.3,2528.25
2430.75,2522.52
2432.2,2497.18
2433.65,2511.85
2435.1,2521.58
2436.55,2542.83
2438,2478.84
2439.45,2494.52
2440.9,2502.08
2442.35,2493.55
2443.8,2449.9
2445.25,2437.98
2446.7,2475.51
2448.15,2443.64
2449.6,2430.11
2451.05,2444.22
2452.5,2408.3
2453.95,2424.66
2455.4,2406.41
2456.85,2386.04
2458.3,2347.41
2459.75,2291.52
2461.2,2309.21
2462.65,2310.35
2464.1,2321.88
2465.55,2340.33
2467.01,2360.3
2468.46,2300.1
2469.91,2356.16
2471.36,2349.57
2472.81,2314.34
2474.26,2296.06
2475.71,2284.03
2477.16,2339.71
2478.61,2321.46
2480.06,2306.1
2481.51,2317.98
2482.96,2277.88
2484.41,2308.35
2485.86,2295.33
2487.31,2306.1
2488.76,2304.58
2490.21,2311.76
2491.66,2293.57
2493.11,2309.81
2494.56,2359.89
2496.01,2331.62
2497.46,2340.67
2498.91,2336.47
2500.36,2380.52
2501.81,2365.92
2503.26,2357.04
2504.71,2397.98
2506.16,2417.46
2507.61,2389.55
2509.06,2413.42
2510.51,2414.6
2511.97,2401.16
2513.42,2370.7
2514.87,2445.31
2516.32,2443.53
2517.77,2427.88
2519.22,2461.96
2520.67,2469.53
2522.12,2465.37
2523.57,2507.92
2525.02,2579.06
2526.47,2599.16
2527.92,2604.67
2529.37,2609.22
2530.82,2664.72
2532.27,2685.55
2533.72,2681.11
2535.17,2704.23
2536.62,2712.57
2538.07,2771.08
2539.52,2746.54
2540.97,2804.19
2542.42,2836.41
2543.87,2841.12
2545.32,2903.81
2546.77,2891.74
2548.22,2974.7
2549.67,3046.61
2551.12,3077.09
2552.57,3097.96
2554.02,3101.37
2555.48,3117.45
2556.93,3179.82
2558.38,3254.86
2559.83,3294.07
2561.28,3333.66
2562.73,3382.2
2564.18,3503.87
2565.63,3518.34
2567.08,3610.27
2568.53,3644.67
2569.98,3809.73
2571.43,3876.06
2572.88,3929.72
2574.33,3994.8
2575.78,4089.47
2577.23,4164.62
2578.68,4251.05
2580.13,4357.19
2581.58,4412.05
2583.03,4469.68
2584.48,4623.01
2585.93,4740.76
2587.38,4841.83
2588.83,5047.58
2590.28,5116.7
2591.73,5217.57
2593.18,5420.68
2594.63,5615.61
2596.08,5745.13
2597.53,5927.43
2598.98,6170.97
2600.44,6343.6
2601.89,6518.8
2603.34,6747.02
2604.79,6984.27
2606.24,7148.04
2607.69,7422.89
2609.14,7664.04
2610.59,7956.93
2612.04,8174.47
2613.49,8544.84
2614.94,8731.33
2616.39,8977.01
2617.84,9416.55
2619.29,9677.02
2620.74,10015.3
2622.19,10433.9
2623.64,10778.2
2625.09,11053.4
2626.54,11390.1
2627.99,11732.3
2629.44,12135.6
2630.89,12399
2632.34,12758.6
2633.79,13164.9
2635.24,13531.2
2636.69,13922.3
2638.14,14195.6
2639.59,14461.4
2641.04,14828.1
2642.49,15164.7
2643.94,15391.3
2645.4,15625.4
2646.85,15793.1
2648.3,16002.7
2649.75,16127.9
2651.2,16227
2652.65,16286.2
2654.1,16178.2
2655.55,16212.5
2657,16289
2658.45,16158.6
2659.9,16121
2661.35,16057.7
2662.8,15904.3
2664.25,15619.9
2665.7,15378.2
2667.15,15193.7
2668.6,14927.9
2670.05,14494.2
2671.5,14101.3
2672.95,13949.5
2674.4,13452
2675.85,13228.5
2677.3,12799.6
2678.75,12411.4
2680.2,12053.4
2681.65,11591.5
2683.1,11279.7
2684.55,10950.1
2686,10642.5
2687.45,10255.8
2688.91,9804.61
2690.36,9468.94
2691.81,9062.8
2693.26,8721.35
2694.71,8432.57
2696.16,8141.38
2697.61,7713.63
2699.06,7566.46
2700.51,7357.75
2701.96,7091.81
2703.41,6812.71
2704.86,6543.68
2706.31,6300.77
2707.76,6088.68
2709.21,5856.57
2710.66,5610.08
2712.11,5425.42
2713.56,5273.42
2715.01,5109.78
2716.46,5086.63
2717.91,4840.66
2719.36,4728.1
2720.81,4566.3
2722.26,4373.62
2723.71,4320.75
2725.16,4237
2726.61,4087.08
2728.06,3998.76
2729.51,3964.28
2730.96,3805.14
2732.41,3771.42
2733.87,3676.99
2735.32,3541.42
2736.77,3501.31
2738.22,3422.47
2739.67,3392.56
2741.12,3314.96
2742.57,3264.49
2744.02,3245.34
2745.47,3093.43
2746.92,3102.93
2748.37,3037.77
2749.82,3023.17
2751.27,2956.55
2752.72,2894.68
2754.17,2912.54
2755.62,2820.64
2757.07,2758.68
2758.52,2763.04
2759.97,2726.75
2761.42,2698.46
2762.87,2702.66
2764.32,2621.85
2765.77,2618.22
2767.22,2619.75
2768.67,2565.85
2770.12,2535.09
2771.57,2539.38
2773.02,2495.22
2774.47,2492.58
2775.92,2463.84
2777.38,2452.35
2778.83,2428.43
2780.28,2403.41
2781.73,2372.22
2783.18,2319.07
2784.63,2380.76
2786.08,2303.03
2787.53,2314.74
2788.98,2302.3
2790.43,2270.99
2791.88,2273.57
2793.33,2259.37
2794.78,2210.79
2796.23,2240.73
2797.68,2199.01
2799.13,2238.05
2800.58,2191.53
2802.03,2174.09
2803.48,2144.67
2804.93,2199.23
2806.38,2178.75
2807.83,2136.39
2809.28,2125.11
2810.73,2127.77
2812.18,2097.2
2813.63,2127.02
2815.08,2093.66
2816.53,2095.47
2817.98,2089.35
2819.43,2099.28
2820.88,2090.53
2822.33,2060.31
2823.79,2034.69
2825.24,2053.49
2826.69,2062.46
2828.14,2054.76
2829.59,2028.93
2831.04,2039.29
2832.49,1995.95
2833.94,2001.61
2835.39,2029.49
2836.84,2007.94
2838.29,1959.75
2839.74,1947.52
2841.19,1960.52
2842.64,1994.41
2844.09,1986.04
2845.54,1968.6
2846.99,1920.61
2848.44,1997.69
2849.89,1972.47
2851.34,1967.62
2852.79,1975.6
2854.24,1970.06
2855.69,1959.34
2857.14,1955.99
2858.59,1959.51
2860.04,1916.92
2861.49,1996.44
2862.94,1915.85
2864.39,1934.4
2865.84,1967
2867.3,1973.94
2868.75,1940.29
2870.2,1936.67
2871.65,1930.11
2873.1,1918.96
2874.55,1902.68
2876,1896.5
2877.45,1939.76
2878.9,1949.52
2880.35,1887.75
2881.8,1894.74
2883.25,1927.64
2884.7,1934.7
2886.15,1928.46
2887.6,1918.85
2889.05,1929.91
2890.5,1943.45
2891.95,1916.81
2893.4,1921.31
2894.85,1907.54
2896.3,1915.4
2897.75,1914.34
2899.2,1917.62
2900.65,1921.31
2902.1,1917.8
2903.55,1887.71
2905,1899.8
2906.45,1913.44
2907.9,1898.24
2909.35,1888.71
2910.8,1878.93
2912.26,1856.39
2913.71,1875.84
2915.16,1855.37
2916.61,1866.6
2918.06,1827.62
2919.51,1874.77
2920.96,1852.4
2922.41,1877.8
2923.86,1852.81
2925.31,1838.23
2926.76,1856.55
2928.21,1845.99
2929.66,1832.75
2931.11,1816.61
2932.56,1816.72
2934.01,1813.47
2935.46,1777.58
2936.91,1774.65
2938.36,1775.63
2939.81,1772.84
2941.26,1762.24
2942.71,1753.79
2944.16,1778.89
2945.61,1773.3
2947.06,1741.13
2948.51,1740.62
2949.96,1722.81
2951.41,1738.37
2952.86,1748.49
2954.31,1739.87
2955.77,1702.5
2957.22,1700.21
2958.67,1679.86
2960.12,1713.52
2961.57,1667.52
2963.02,1695.83
2964.47,1687.05
2965.92,1693.65
2967.37,1681.44
2968.82,1681.06
2970.27,1674.08
2971.72,1673.85
2973.17,1654.11
2974.62,1651.14
2976.07,1637.44
2977.52,1629.86
2978.97,1633.55
2980.42,1645.93
2981.87,1631.11
2983.32,1633.1
2984.77,1624.71
2986.22,1631.93
2987.67,1628.86
2989.12,1653.37
2990.57,1631.8
2992.02,1637
2993.47,1637.96
2994.92,1639.86
2996.37,1620.33
2997.82,1640.09
2999.27,1653.67
3000.73,1614.15
3002.18,1629.38
3003.63,1588.52
3005.08,1631.32
3006.53,1635.74
3007.98,1628.86
3009.43,1631.39
3010.88,1615.7
3012.33,1598.9
3013.78,1578.6
3015.23,1597.18
3016.68,1612.95
3018.13,1629.78
3019.58,1576.88
3021.03,1575.92
3022.48,1585.71
3023.93,1603.58
3025.38,1614.47
3026.83,1623.85
3028.28,1620.56
3029.73,1631.55
3031.18,1612.95
3032.63,1593.49
3034.08,1632.87
3035.53,1593.49
3036.98,1607.22
3038.43,1567.74
3039.88,1592.8
3041.33,1659.47
3042.78,1652.06
3044.23,1615.93
3045.69,1615.8
3047.14,1604.34
3048.59,1596.25
3050.04,1610.9
3051.49,1570.19
3052.94,1608.93
3054.39,1615.25
3055.84,1586.15
3057.29,1619.65
3058.74,1628.48
3060.19,1672.26
3061.64,1638.66
3063.09,1662.41
3064.54,1647.21
3065.99,1635.73
3067.44,1648.84
3068.89,1667.1
3070.34,1664.9
3071.79,1637.71
3073.24,1670.87
3074.69,1686.44
3076.14,1699.86
3077.59,1699.02
3079.04,1721.53
3080.49,1739.33
3081.94,1737.43
3083.39,1678.62
3084.84,1727.17
3086.29,1769.58
3087.74,1727.96
3089.2,1759.66
3090.65,1782.6
3092.1,1822.47
3093.55,1800.48
3095,1807.75
3096.45,1808.26
3097.9,1822.13
3099.35,1813.6
3100.8,1824.05
3102.25,1869.81
3103.7,1846.84
3105.15,1915.87
3106.6,1929.23
3108.05,1928.24
3109.5,1921.89
3110.95,1951.92
3112.4,1973.5
3113.85,1992.3
3115.3,1929.93
3116.75,1986.08
3118.2,2057.5
3119.65,2042.04
3121.1,2074.79
3122.55,2108.79
3124,2097.33
3125.45,2096.86
3126.9,2134.8
3128.35,2139
3129.8,2113.76
3131.25,2156.23
3132.7,2159.44
3134.16,2144.69
3135.61,2161.57
3137.06,2135.79
3138.51,2150.73
3139.96,2216.92
3141.41,2224.77
3142.86,2226.92
3144.31,2231.25
3145.76,2204.98
3147.21,2226.55
3148.66,2292.54
3150.11,2272.56
3151.56,2247.1
3153.01,2250.59
3154.46,2267.41
3155.91,2237.28
3157.36,2291.22
3158.81,2277.42
3160.26,2304.13
3161.71,2293.75
3163.16,2278.86
3164.61,2304.6
3166.06,2286.37
3167.51,2307.84
3168.96,2317.58
3170.41,2372.05
3171.86,2407.67
3173.31,2375.27
3174.76,2385.67
3176.21,2395.11
3177.67,2394.87
3179.12,2444.86
3180.57,2425.95
3182.02,2430.92
3183.47,2469.23
3184.92,2478.06
3186.37,2497.47
3187.82,2493.38
3189.27,2467.26
3190.72,2484.15
3192.17,2484.5
3193.62,2481.99
3195.07,2468.74
3196.52,2459.08
3197.97,2463.29
3199.42,2456.6
3200.87,2409.86
3202.32,2450.83
3203.77,2390.19
3205.22,2351.27
3206.67,2321.29
3208.12,2418.1
3209.57,2341.36
3211.02,2289.59
3212.47,2265.56
3213.92,2277.19
3215.37,2256.86
3216.82,2222.22
3218.27,2232.68
3219.72,2190.28
3221.17,2164.95
3222.63,2143.01
3224.08,2137.29
3225.53,2100.63
3226.98,2042.32
3228.43,2036.46
3229.88,2007.62
3231.33,1976.26
3232.78,1926.76
3234.23,1915.42
3235.68,1876.79
3237.13,1806.84
3238.58,1865.83
3240.03,1867
3241.48,1825.84
3242.93,1792.94
3244.38,1775.83
3245.83,1732.72
3247.28,1716.91
3248.73,1712.79
3250.18,1735.34
3251.63,1707.12
3253.08,1675.36
3254.53,1670.59
3255.98,1630.59
3257.43,1617.96
3258.88,1638.63
3260.33,1609.35
3261.78,1644.39
3263.23,1628.65
3264.68,1584.03
3266.13,1619.69
3267.59,1653.55
3269.04,1607.55
3270.49,1588.18
3271.94,1618.15
3273.39,1575.37
3274.84,1555.49
3276.29,1617.75
3277.74,1550.15
3279.19,1559.22
3280.64,1592.77
3282.09,1588.87
3283.54,1577.92
3284.99,1547.01
3286.44,1558.78
3287.89,1569.07
3289.34,1528.44
3290.79,1555.41
3292.24,1563.84
3293.69,1560.33
3295.14,1557.48
3296.59,1554.39
3298.04,1536.55
3299.49,1558.02
3300.94,1553.19
3302.39,1588.45
3303.84,1546.17
3305.29,1540.48
3306.74,1559.39
3308.19,1548.67
3309.64,1551.88
3311.09,1568.17
3312.55,1560.41
3314,1590.44
3315.45,1566.24
3316.9,1553.35
3318.35,1542.73
3319.8,1532.66
3321.25,1558.43
3322.7,1537.42
3324.15,1537.67
3325.6,1572.83
3327.05,1572.99
3328.5,1534.5
3329.95,1548.67
3331.4,1583.08
3332.85,1547.66
3334.3,1546.29
3335.75,1534.52
3337.2,1543.55
3338.65,1524.57
3340.1,1558.4
3341.55,1532.5
3343,1534.81
3344.45,1529.95
3345.9,1539.38
3347.35,1466.78
3348.8,1543.47
3350.25,1552.43
3351.7,1568.35
3353.15,1567.72
3354.6,1551.01
3356.06,1540.69
3357.51,1569.13
3358.96,1503.51
3360.41,1518.33
3361.86,1527.41
3363.31,1549.61
3364.76,1508.04
3366.21,1533.32
3367.66,1572.26
3369.11,1565.39
3370.56,1556.3
3372.01,1560.54
3373.46,1517.6
3374.91,1572.06
3376.36,1577.51
3377.81,1556.81
3379.26,1527.84
3380.71,1578.54
3382.16,1591.32
3383.61,1567.42
3385.06,1554.98
3386.51,1538.62
3387.96,1559.3
3389.41,1596.21
3390.86,1592.43
3392.31,1539.98
3393.76,1556.22
3395.21,1570.9
3396.66,1520.64
3398.11,1570.25
3399.56,1563.99
3401.02,1565.65
3402.47,1564.06
3403.92,1545.18
3405.37,1569.93
3406.82,1532.53
3408.27,1587.93
3409.72,1559.55
3411.17,1565.94
3412.62,1536.81
3414.07,1581.63
3415.52,1535.36
3416.97,1575.72
3418.42,1573.5
3419.87,1560.08
3421.32,1552.3
3422.77,1550.95
3424.22,1569.36
3425.67,1600.89
3427.12,1618.28
3428.57,1570.97
3430.02,1578.53
3431.47,1568.56
3432.92,1539.59
3434.37,1563.03
3435.82,1584.71
3437.27,1587.45
3438.72,1596.05
3440.17,1561.39
3441.62,1570.19
3443.07,1577.32
3444.52,1594.46
3445.98,1574.52
3447.43,1529.62
3448.88,1545.9
3450.33,1556.59
3451.78,1569.95
3453.23,1598.83
3454.68,1565.95
3456.13,1575.04
3457.58,1614.7
3459.03,1574.74
3460.48,1565.56
3461.93,1569.12
3463.38,1555.62
3464.83,1587.25
3466.28,1586.3
3467.73,1549.02
3469.18,1599.36
3470.63,1584.2
3472.08,1577.3
3473.53,1568.45
3474.98,1582.13
3476.43,1536.1
3477.88,1609.65
3479.33,1590.36
3480.78,1585.5
3482.23,1602.63
3483.68,1593.51
3485.13,1577.88
3486.58,1589.25
3488.03,1567.89
3489.49,1567.55
3490.94,1570.3
3492.39,1572.8
3493.84,1596.45
3495.29,1568.97
3496.74,1589.38
3498.19,1567.18
3499.64,1622.99
3501.09,1568.22
3502.54,1620.68
3503.99,1600.76
3505.44,1573.57
3506.89,1611.33
3508.34,1606.52
3509.79,1632.44
3511.24,1623.71
3512.69,1621.36
3514.14,1600.74
3515.59,1616.42
3517.04,1667.07
3518.49,1627.35
3519.94,1600.55
3521.39,1569.12
3522.84,1641.23
3524.29,1605.93
3525.74,1587.18
3527.19,1627.44
3528.64,1610.06
3530.09,1620.69
3531.54,1584.3
3532.99,1588.87
3534.45,1606.89
3535.9,1645
3537.35,1603.51
3538.8,1604.13
3540.25,1576.15
3541.7,1582.02
3543.15,1590.92
3544.6,1603.25
3546.05,1648.81
3547.5,1631.04
3548.95,1644.37
3550.4,1635.55
3551.85,1635.56
3553.3,1583.72
3554.75,1595.92
3556.2,1598
3557.65,1628.24
3559.1,1612.87
3560.55,1604.39
3562,1584.35
3563.45,1640.01
3564.9,1635.6
3566.35,1605.27
3567.8,1643.23
3569.25,1614.4
3570.7,1632.85
3572.15,1636.89
3573.6,1643.54
3575.05,1633.98
3576.5,1587.82
3577.96,1582.96
3579.41,1623.15
3580.86,1610.2
3582.31,1632.16
3583.76,1645.23
3585.21,1641.39
3586.66,1627.88
3588.11,1653.01
3589.56,1619.62
3591.01,1647.18
3592.46,1666.1
3593.91,1621.99
3595.36,1627.62
3596.81,1652.01
3598.26,1643.24
3599.71,1613.73
3601.16,1636.44
3602.61,1655.15
3604.06,1634.62
3605.51,1631.11
3606.96,1628.27
3608.41,1653.39
3609.86,1639.13
3611.31,1658.76
3612.76,1621.82
3614.21,1619.82
3615.66,1685.4
3617.11,1634.51
3618.56,1653.27
3620.01,1639.69
3621.46,1658.92
3622.92,1656.62
3624.37,1657.74
3625.82,1658.18
3627.27,1664.12
3628.72,1614.93
3630.17,1639.62
3631.62,1662.54
3633.07,1626.95
3634.52,1658.92
3635.97,1662.49
3637.42,1658.58
3638.87,1672.24
3640.32,1626.81
3641.77,1692.99
3643.22,1696.27
3644.67,1670.13
3646.12,1671.16
3647.57,1676.26
3649.02,1668.08
3650.47,1687.61
3651.92,1673.86
3653.37,1690.01
3654.82,1681.04
3656.27,1672.53
3657.72,1665.47
3659.17,1690.19
3660.62,1703.49
3662.07,1687.57
3663.52,1683.07
3664.97,1690.88
3666.43,1680.52
3667.88,1711.38
3669.33,1660.77
3670.78,1668.74
3672.23,1687.89
3673.68,1704.37
3675.13,1704.6
3676.58,1711.24
3678.03,1685.23
3679.48,1711.52
3680.93,1723.63
3682.38,1686.35
3683.83,1684.35
3685.28,1681.38
3686.73,1720.79
3688.18,1706.85
3689.63,1710.78
3691.08,1694.93
3692.53,1721.5
3693.98,1702.65
3695.43,1719.58
3696.88,1701.95
3698.33,1682.59
3699.78,1682.75
3701.23,1703.64
3702.68,1710.71
3704.13,1741.56
3705.58,1710.37
3707.03,1741.24
3708.48,1708.36
3709.93,1700.52
3711.39,1719.97
3712.84,1676.39
3714.29,1731.82
3715.74,1715.29
3717.19,1719.3
3718.64,1730.53
3720.09,1718.02
3721.54,1717.24
3722.99,1717.2
3724.44,1726.23
3725.89,1706.94
3727.34,1686.41
3728.79,1692.36
3730.24,1685.31
3731.69,1736.64
3733.14,1730.31
3734.59,1735.47
3736.04,1713.53
3737.49,1719.47
3738.94,1740.49
3740.39,1770.75
3741.84,1711.96
3743.29,1762.92
3744.74,1778.48
3746.19,1729.59
3747.64,1750.34
3749.09,1766.76
3750.54,1722.04
3751.99,1730.17
3753.44,1741.13
3754.89,1745.2
3756.35,1762.59
3757.8,1754.04
3759.25,1752.95
3760.7,1754.38
3762.15,1748.28
3763.6,1728.09
3765.05,1759.83
3766.5,1758.76
3767.95,1768.93
3769.4,1762.81
3770.85,1756.88
3772.3,1741.01
3773.75,1744.02
3775.2,1757.05
3776.65,1751.35
3778.1,1778.12
3779.55,1752.97
3781,1780.85
3782.45,1802.19
3783.9,1770.22
3785.35,1743.53
3786.8,1810.23
3788.25,1742.91
3789.7,1777.17
3791.15,1748.92
3792.6,1802.84
3794.05,1766.94
3795.5,1743.95
3796.95,1758.14
3798.4,1739.25
3799.85,1779.38
3801.31,1780.35
3802.76,1744.5
3804.21,1822.84
3805.66,1815.87
3807.11,1817.26
3808.56,1799.91
3810.01,1815.42
3811.46,1828.04
3812.91,1824.1
3814.36,1797.07
3815.81,1798.47
3817.26,1806.75
3818.71,1805.44
3820.16,1823.82
3821.61,1828.27
3823.06,1794.45
3824.51,1783.35
3825.96,1818.62
3827.41,1820.21
3828.86,1817.12
3830.31,1835.03
3831.76,1817.64
3833.21,1828.83
3834.66,1856.16
3836.11,1851.93
3837.56,1840.56
3839.01,1828.08
3840.46,1828.83
3841.91,1812.79
3843.36,1809.68
3844.82,1758.57
3846.27,1822.09
3847.72,1845.63
3849.17,1841.45
3850.62,1872.94
3852.07,1850.59
3853.52,1840.55
3854.97,1843.26
3856.42,1840.92
3857.87,1840.58
3859.32,1859.25
3860.77,1850.8
3862.22,1847.58
3863.67,1869.34
3865.12,1865.53
3866.57,1847.8
3868.02,1848.36
3869.47,1888.97
3870.92,1847.06
3872.37,1837.61
3873.82,1866.86
3875.27,1904.5
3876.72,1924.66
3878.17,1915.95
3879.62,1866.42
3881.07,1877.82
3882.52,1876.42
3883.97,1881.53
3885.42,1902.59
3886.87,1901.02
3888.32,1917.04
3889.78,1889.08
3891.23,1905.68
3892.68,1896.67
3894.13,1892.45
3895.58,1907.84
3897.03,1931.65
3898.48,1935.66
3899.93,1950.18
3901.38,1940.19
3902.83,1901.26
3904.28,1944.18
3905.73,1948.83
3907.18,1950.91
3908.63,1916.34
3910.08,1940.17
3911.53,1932.94
3912.98,1964.51
3914.43,1948.14
3915.88,1951.26
3917.33,1930.13
3918.78,1915.55
3920.23,1954.08
3921.68,1966.38
3923.13,1992.76
3924.58,1958.55
3926.03,1975.28
3927.48,1967.28
3928.93,2036.03
3930.38,1965.49
3931.83,1975.08
3933.28,1983.66
3934.74,1993.44
3936.19,2028.21
3937.64,2005.77
3939.09,1974.85
3940.54,2029.5
3941.99,2007.36
3943.44,1992.91
3944.89,2002.17
3946.34,2022.69
3947.79,2044.36
3949.24,2029.45
3950.69,2036.16
3952.14,2048.2
3953.59,2059.16
3955.04,2065.85
3956.49,2005.84
3957.94,2074.36
3959.39,2027.63
3960.84,2022.48
3962.29,2038.78
3963.74,2028.51
3965.19,2011.99
3966.64,2089.01
3968.09,2041.18
3969.54,2079.77
3970.99,2031.51
3972.44,2071.6
3973.89,2064.58
3975.34,2110.41
3976.79,2099.61
3978.25,2113.27
3979.7,2108.1
3981.15,2086.39
3982.6,2098.7
3984.05,2118.14
3985.5,2127.55
3986.95,2155.54
3988.4,2119.66
3989.85,2129.01
3991.3,2120.54
3992.75,2134.24
3994.2,2160
3995.65,2114.62
3997.1,2220.7
3998.55,2129.46
4000,2134.03
