0.1,5.73499
1.45033,5.73499
2.90065,5.73499
4.35098,5.73499
5.80131,5.73499
7.25163,5.73499
8.70196,23.9927
10.1523,10.5247
11.6026,8.29316
13.0529,9.20744
14.5033,10.2954
15.9536,9.33067
17.4039,3.74193
18.8542,0.320027
20.3046,0.25227
21.7549,2.22733
23.2052,4.60574
24.6555,4.32609
26.1059,3.08683
27.5562,0.875874
29.0065,0.204041
30.4569,4.22486
31.9072,1.98584
33.3575,1.84884
34.8078,1.61257
36.2582,0.880732
37.7085,1.72087
39.1588,0.235541
40.6091,1.81896
42.0595,5.07673
43.5098,7.96759
44.9601,9.08865
46.4104,8.59469
47.8608,13.2942
49.3111,23.241
50.7614,35.0693
52.2117,87.2398
53.6621,169.556
55.1124,293.337
56.5627,460.538
58.0131,659.52
59.4634,854.463
60.9137,1029.23
62.364,1151.7
63.8144,1206.83
65.2647,1307.95
66.715,1351.32
68.1653,1388.87
69.6157,1431.37
71.066,1471.72
72.5163,1489.42
73.9666,1484.21
75.417,1470.98
76.8673,1472.55
78.3176,1534.43
79.7679,1546.14
81.2183,1571.42
82.6686,1615.57
84.1189,1672.4
85.5693,1709.84
87.0196,1720.35
88.4699,1718.98
89.9202,1682.45
91.3706,1580.16
92.8209,1495.65
94.2712,1418.33
95.7215,1332.66
97.1719,1254.4
98.6222,1231.85
100.073,1187.91
101.523,1136.8
102.973,1090.24
104.423,1054.47
105.874,1025.69
107.324,1002.03
108.774,990.626
110.225,973.095
111.675,939.503
113.125,946.843
114.576,961.583
116.026,953.265
117.476,923.45
118.927,887.762
120.377,897.662
121.827,879.046
123.278,868.616
124.728,868.081
126.178,854.794
127.629,836.149
129.079,816.862
130.529,804
131.98,796.309
133.43,779.9
134.88,760.005
136.331,734.29
137.781,722.622
139.231,726.639
140.682,694.36
142.132,702.897
143.582,689.474
145.033,667.041
146.483,653.231
147.933,631.694
149.384,650.316
150.834,644.494
152.284,621.775
153.735,609.982
155.185,635.505
156.635,614.013
158.086,605.817
159.536,617.16
160.986,630.349
162.437,628.363
163.887,606.483
165.337,581.168
166.788,561.303
168.238,551.536
169.688,554.095
171.139,541.8
172.589,534.705
174.039,532.703
175.489,515.631
176.94,549.121
178.39,557.455
179.84,555.371
181.291,550.423
182.741,539.046
184.191,525.731
185.642,513.162
187.092,499.113
188.542,490.805
189.993,514.174
191.443,494.944
192.893,494.787
194.344,505.816
195.794,511.125
197.244,482.068
198.695,488.561
200.145,490.332
201.595,483.523
203.046,471.808
204.496,469.527
205.946,481.175
207.397,487.903
208.847,495.187
210.297,503.571
211.748,492.443
213.198,493.844
214.648,498.12
216.099,497.006
217.549,489.194
218.999,492.62
220.45,503.094
221.9,496.814
223.35,482.611
224.801,474.515
226.251,490.802
227.701,485.932
229.152,496.015
230.602,488.946
232.052,457.512
233.503,482.707
234.953,484.179
236.403,485.339
237.854,486.492
239.304,486.39
240.754,485.817
242.204,481.247
243.655,477.161
245.105,466.808
246.555,452.36
248.006,456.942
249.456,458.825
250.906,466.554
252.357,474.8
253.807,473.244
255.257,443.685
256.708,451.116
258.158,457.951
259.608,461.673
261.059,464.786
262.509,474.552
263.959,434.318
265.41,428.937
266.86,429.276
268.31,431.832
269.761,461
271.211,446.625
272.661,440.847
274.112,431.649
275.562,425.754
277.012,441.44
278.463,440.29
279.913,443.73
281.363,439.684
282.814,434.649
284.264,440.723
285.714,425.462
287.165,429.389
288.615,434.605
290.065,427.101
291.516,404.157
292.966,418.564
294.416,433.729
295.867,424.209
297.317,410.603
298.767,411.619
300.218,405.57
301.668,409.537
303.118,411.321
304.569,395.301
306.019,370.384
307.469,393.472
308.919,383.223
310.37,385.696
311.82,384.494
313.27,376.333
314.721,375.752
316.171,374.886
317.621,378.506
319.072,369.364
320.522,360.585
321.972,378.521
323.423,377.076
324.873,364.546
326.323,363.807
327.774,371.851
329.224,376.219
330.674,362.909
332.125,375.162
333.575,375.836
335.025,365.819
336.476,354.166
337.926,353.297
339.376,351.874
340.827,356.712
342.277,359.835
343.727,360.765
345.178,367.066
346.628,347.647
348.078,356.481
349.529,374.992
350.979,384.241
352.429,370.114
353.88,348.65
355.33,360.321
356.78,367.581
358.231,368.385
359.681,366.452
361.131,358.034
362.582,344.69
364.032,338.691
365.482,342.506
366.933,348.783
368.383,341.05
369.833,338.141
371.284,333.386
372.734,333.252
374.184,333.995
375.635,331.536
377.085,351.891
378.535,361.5
379.986,345.743
381.436,333.032
382.886,341.531
384.336,349.098
385.787,340.576
387.237,334.145
388.687,337.338
390.138,346.499
391.588,349.713
393.038,344.469
394.489,331.173
395.939,337.887
397.389,347.357
398.84,338.497
400.29,324.502
401.74,345.185
403.191,334.195
404.641,332.699
406.091,344.689
407.542,326.827
408.992,335.872
410.442,346.348
411.893,348.512
413.343,347.734
414.793,349.131
416.244,333.069
417.694,345.575
419.144,346.565
420.595,335.581
422.045,326.062
423.495,339.22
424.946,336.005
426.396,331.597
427.846,323.801
429.297,328.811
430.747,351.06
432.197,326.751
433.648,339.187
435.098,334.902
436.548,325.895
437.999,323.091
439.449,326.934
440.899,314.635
442.35,331.273
443.8,330.55
445.25,322.492
446.701,328.243
448.151,344.673
449.601,342.322
451.051,339.094
452.502,336.781
453.952,329.561
455.402,312.455
456.853,332.717
458.303,327.001
459.753,327.434
461.204,328.335
462.654,324.418
464.104,326.462
465.555,322.058
467.005,328.273
468.455,334.699
469.906,329.629
471.356,314.069
472.806,340.546
474.257,343.903
475.707,336.818
477.157,335.405
478.608,342.933
480.058,346.897
481.508,316.012
482.959,330.81
484.409,333.135
485.859,332.419
487.31,337.671
488.76,323.286
490.21,341.246
491.661,350.391
493.111,338.99
494.561,320.036
496.012,315.064
497.462,331.562
498.912,320.612
500.363,326.661
501.813,328.92
503.263,323.522
504.714,324.381
506.164,335.882
507.614,332.212
509.065,328.8
510.515,328.923
511.965,328.377
513.416,318.586
514.866,325.382
516.316,332.919
517.766,333.895
519.217,330.191
520.667,326.031
522.117,324.005
523.568,330.809
525.018,324.398
526.468,319.352
527.919,318.481
529.369,323.223
530.819,347.499
532.27,323.906
533.72,330.294
535.17,329.653
536.621,324.434
538.071,334.753
539.521,337.714
540.972,329.016
542.422,333.845
543.872,329.713
545.323,323.789
546.773,338.145
548.223,331.026
549.674,329.859
551.124,335.358
552.574,338.581
554.025,336.117
555.475,331.629
556.925,329.551
558.376,327.737
559.826,323.701
561.276,322.996
562.727,322.539
564.177,313.155
565.627,325.042
567.078,319.41
568.528,310.578
569.978,309.723
571.429,315.264
572.879,314.365
574.329,324.479
575.78,314.578
577.23,320.803
578.68,327.568
580.131,328.147
581.581,336.265
583.031,318.4
584.482,327.28
585.932,325.661
587.382,323.511
588.832,323.995
590.283,313.255
591.733,313.255
593.183,320.054
594.634,331.452
596.084,324.485
597.534,302.869
598.985,299.58
600.435,302.564
601.885,319.863
603.336,324.312
604.786,327.094
606.236,330.943
607.687,325.841
609.137,323.153
610.587,326.955
612.038,333.342
613.488,333.608
614.938,330.849
616.389,334.162
617.839,326.99
619.289,335.624
620.74,322.918
622.19,320.339
623.64,324.752
625.091,314.057
626.541,312.261
627.991,323.929
629.442,337.342
630.892,339.333
632.342,330.416
633.793,320.123
635.243,318.626
636.693,337.317
638.144,335.852
639.594,327.983
641.044,325.639
642.495,332.837
643.945,341.028
645.395,316.145
646.846,335.126
648.296,343.908
649.746,342.983
651.197,341.413
652.647,337.638
654.097,338.838
655.547,344.84
656.998,345.151
658.448,339.531
659.898,334.481
661.349,336.318
662.799,332.413
664.249,341.819
665.7,344.558
667.15,338.737
668.6,340.124
670.051,355.539
671.501,346.824
672.951,344.118
674.402,347.537
675.852,350.841
677.302,344.226
678.753,333.738
680.203,344.971
681.653,349.19
683.104,353.14
684.554,344.699
686.004,344.349
687.455,349.383
688.905,340.923
690.355,347.249
691.806,358.187
693.256,347.775
694.706,351.339
696.157,357.476
697.607,351.127
699.057,363.554
700.508,350.267
701.958,344.931
703.408,345.223
704.859,346.619
706.309,342.582
707.759,333.015
709.21,358.377
710.66,356.944
712.11,352.71
713.561,348.35
715.011,348.34
716.461,353.617
717.912,353.406
719.362,344.933
720.812,363.277
722.263,366.302
723.713,366.639
725.163,365.686
726.613,346.279
728.064,350.514
729.514,343.625
730.964,347.604
732.415,361.713
733.865,362.61
735.315,346.461
736.766,361.363
738.216,358.937
739.666,352.829
741.117,356.199
742.567,363.461
744.017,366.589
745.468,360.743
746.918,344.655
748.368,346.114
749.819,354.022
751.269,377.305
752.719,380.648
754.17,361.047
755.62,372.797
757.07,386.472
758.521,379.162
759.971,365.745
761.421,353.099
762.872,357.145
764.322,374.403
765.772,357.262
767.223,350.874
768.673,370.678
770.123,368.809
771.574,354.769
773.024,353.406
774.474,371.625
775.925,362.197
777.375,378.339
778.825,365.993
780.276,366.668
781.726,368.816
783.176,367.935
784.627,377.596
786.077,367.535
787.527,382.797
788.978,377.653
790.428,372.671
791.878,371.147
793.328,371.414
794.779,375.963
796.229,377.795
797.68,365.023
799.13,365.582
800.58,373.934
802.03,382.794
803.481,381.235
804.931,359.602
806.381,366.629
807.832,378.719
809.282,383.903
810.732,382.025
812.183,378.093
813.633,373.033
815.083,360.918
816.534,372.236
817.984,362.691
819.434,379.437
820.885,385.49
822.335,382.045
823.785,390.112
825.236,405.796
826.686,391.708
828.136,399.026
829.587,415.337
831.037,407.927
832.487,394.078
833.938,393.134
835.388,379.021
836.838,411.212
838.289,399.129
839.739,389.308
841.189,385.404
842.64,389.203
844.09,394.681
845.54,387.288
846.991,403.861
848.441,392.515
849.891,410.465
851.342,405.973
852.792,385.289
854.242,381.307
855.693,399.059
857.143,377.549
858.593,404.251
860.044,416.234
861.494,422.262
862.944,414.462
864.394,400.961
865.845,405.798
867.295,393.494
868.745,405.646
870.196,399.829
871.646,399.53
873.096,396.752
874.547,388.269
875.997,388.312
877.447,411.922
878.898,415.926
880.348,392.582
881.798,390.184
883.249,387.612
884.699,389.183
886.149,405.724
887.6,400.852
889.05,396.839
890.5,400.694
891.951,408.106
893.401,409.097
894.851,418.989
896.302,433.091
897.752,413.514
899.202,403.942
900.653,394.061
902.103,419.502
903.553,417.781
905.004,406.783
906.454,407.783
907.904,412.612
909.355,412.635
910.805,403.97
912.255,426.79
913.706,438.587
915.156,430.06
916.606,427.844
918.057,441.616
919.507,430.412
920.957,413.371
922.408,438.486
923.858,432.608
925.308,417.16
926.759,418.887
928.209,432.935
929.659,432.15
931.109,419.31
932.56,428.929
934.01,416.375
935.46,426.25
936.911,431.109
938.361,437.057
939.811,447.683
941.262,432.393
942.712,433.945
944.162,413.715
945.613,438.44
947.063,427.737
948.513,410.408
949.964,412.212
951.414,428.916
952.864,463.122
954.315,451.629
955.765,429.469
957.215,440.523
958.666,440.263
960.116,432.583
961.566,426.287
963.017,416.791
964.467,429.753
965.917,431.31
967.368,442.267
968.818,435.041
970.268,429.712
971.719,435.344
973.169,440.73
974.619,430.743
976.07,419.165
977.52,444.079
978.97,444.875
980.421,444.209
981.871,447.185
983.321,436.572
984.772,417.544
986.222,431.085
987.672,441.386
989.123,451.367
990.573,446.321
992.023,441.577
993.474,441.449
994.924,442.27
996.374,437.255
997.825,427.347
999.275,448.288
1000.73,459.995
1002.18,465.522
1003.63,467.065
1005.08,454.698
1006.53,450.4
1007.98,467.571
1009.43,473.334
1010.88,482.097
1012.33,481.897
1013.78,473.897
1015.23,466.714
1016.68,475.125
1018.13,484.636
1019.58,484.329
1021.03,491.801
1022.48,484.006
1023.93,488.708
1025.38,500.449
1026.83,501.269
1028.28,498.425
1029.73,491.767
1031.18,492.59
1032.63,517.819
1034.08,516.687
1035.53,498.799
1036.98,530.415
1038.43,529.072
1039.88,536.203
1041.33,546.257
1042.78,553.136
1044.23,563.273
1045.69,529.039
1047.14,556.381
1048.59,546.007
1050.04,544.782
1051.49,552.872
1052.94,559.107
1054.39,572.208
1055.84,587.918
1057.29,560.76
1058.74,566.738
1060.19,573.952
1061.64,577.202
1063.09,587.769
1064.54,603.98
1065.99,612.203
1067.44,614.977
1068.89,631.283
1070.34,637.516
1071.79,626.802
1073.24,626.653
1074.69,635.893
1076.14,624.518
1077.59,626.686
1079.04,655.625
1080.49,674.027
1081.94,655.028
1083.39,648.087
1084.84,665.244
1086.29,641.705
1087.74,632.034
1089.2,625.963
1090.65,628.546
1092.1,640.799
1093.55,642.462
1095,641.949
1096.45,643.214
1097.9,635.334
1099.35,632.385
1100.8,627.612
1102.25,637.286
1103.7,645.675
1105.15,636.958
1106.6,635.835
1108.05,627.171
1109.5,625.27
1110.95,641.619
1112.4,635.284
1113.85,617.983
1115.3,615.204
1116.75,624.418
1118.2,620.826
1119.65,599.032
1121.1,594.083
1122.55,602.957
1124,597.29
1125.45,601.67
1126.9,596.933
1128.35,597.983
1129.8,603.623
1131.25,595.217
1132.7,588.935
1134.16,593.97
1135.61,580.321
1137.06,580.598
1138.51,582.104
1139.96,576.979
1141.41,590.548
1142.86,597.219
1144.31,573.253
1145.76,593.776
1147.21,594.754
1148.66,598.255
1150.11,578.898
1151.56,575.105
1153.01,563.536
1154.46,568.078
1155.91,585.522
1157.36,587.591
1158.81,583.23
1160.26,569.31
1161.71,567.715
1163.16,571.054
1164.61,567.834
1166.06,571.477
1167.51,575.249
1168.96,571.748
1170.41,573.147
1171.86,588.635
1173.31,570.864
1174.76,598.284
1176.21,574.915
1177.66,583.133
1179.12,579.875
1180.57,570.53
1182.02,561.167
1183.47,564.305
1184.92,583.537
1186.37,576.163
1187.82,585.433
1189.27,571.701
1190.72,592.626
1192.17,604.518
1193.62,609.912
1195.07,607.626
1196.52,604.524
1197.97,602.658
1199.42,593.076
1200.87,608.589
1202.32,607.628
1203.77,612.745
1205.22,599.518
1206.67,600.462
1208.12,593.038
1209.57,583.536
1211.02,589.977
1212.47,606.399
1213.92,613.998
1215.37,611.508
1216.82,611.508
1218.27,609.159
1219.72,605.306
1221.17,604.67
1222.63,609.318
1224.08,605.74
1225.53,611.315
1226.98,643.909
1228.43,629.432
1229.88,601.791
1231.33,625.566
1232.78,614.65
1234.23,643.129
1235.68,639.649
1237.13,637.903
1238.58,630.475
1240.03,610.968
1241.48,623.245
1242.93,638.526
1244.38,643.119
1245.83,627.353
1247.28,633.627
1248.73,644.357
1250.18,635.43
1251.63,656.703
1253.08,686.553
1254.53,675.486
1255.98,647.216
1257.43,661.282
1258.88,689.697
1260.33,675.838
1261.78,674.433
1263.23,682.23
1264.68,686.225
1266.13,688.607
1267.59,684.722
1269.04,685.961
1270.49,704.716
1271.94,720.724
1273.39,748.859
1274.84,728.818
1276.29,741.855
1277.74,772.322
1279.19,764.699
1280.64,758.328
1282.09,765.244
1283.54,767.518
1284.99,776.927
1286.44,817.503
1287.89,828.212
1289.34,836.652
1290.79,848.296
1292.24,865.214
1293.69,875.425
1295.14,902.6
1296.59,941.745
1298.04,959.005
1299.49,964.86
1300.94,989.851
1302.39,1015.16
1303.84,1068.08
1305.29,1055.77
1306.74,1059.61
1308.19,1131.74
1309.64,1187.07
1311.09,1208.11
1312.55,1242.37
1314,1278.36
1315.45,1308.4
1316.9,1358.31
1318.35,1405.15
1319.8,1490.97
1321.25,1528.61
1322.7,1572.92
1324.15,1645.89
1325.6,1682.25
1327.05,1721.95
1328.5,1762.19
1329.95,1783.03
1331.4,1784.25
1332.85,1798.09
1334.3,1849.81
1335.75,1836.3
1337.2,1812.88
1338.65,1785.93
1340.1,1784.16
1341.55,1788.85
1343,1722.71
1344.45,1681.23
1345.9,1665.2
1347.35,1613.71
1348.8,1556.12
1350.25,1550.56
1351.7,1515.93
1353.15,1442.09
1354.6,1386.37
1356.06,1339.24
1357.51,1315.66
1358.96,1262.34
1360.41,1211.99
1361.86,1180.97
1363.31,1129.46
1364.76,1072.25
1366.21,1073.14
1367.66,1063.66
1369.11,1019.38
1370.56,1030.17
1372.01,990.229
1373.46,985.987
1374.91,969.043
1376.36,952.104
1377.81,940.915
1379.26,932.75
1380.71,914.407
1382.16,890.073
1383.61,886.469
1385.06,888.26
1386.51,901.307
1387.96,873.181
1389.41,901.596
1390.86,889.704
1392.31,867.506
1393.76,852.74
1395.21,853.755
1396.66,848.784
1398.11,846.111
1399.56,858.742
1401.02,859.427
1402.47,875.638
1403.92,884.018
1405.37,843.991
1406.82,857.799
1408.27,845.67
1409.72,850.525
1411.17,843.58
1412.62,844.391
1414.07,857.644
1415.52,859.396
1416.97,865.021
1418.42,891.796
1419.87,870.595
1421.32,892.53
1422.77,899.75
1424.22,878.047
1425.67,896.328
1427.12,891.673
1428.57,892.946
1430.02,885.058
1431.47,886.184
1432.92,896.639
1434.37,916.695
1435.82,926.265
1437.27,890.9
1438.72,916.838
1440.17,926.84
1441.62,908.061
1443.07,978.084
1444.53,964.077
1445.98,963.675
1447.43,969.908
1448.88,967.613
1450.33,966.99
1451.78,989.811
1453.23,1010.66
1454.68,1012.21
1456.13,1035.25
1457.58,1026.61
1459.03,1054.06
1460.48,1048.44
1461.93,1062.96
1463.38,1059.66
1464.83,1066.84
1466.28,1110.44
1467.73,1140.52
1469.18,1140.21
1470.63,1134.21
1472.08,1150.36
1473.53,1177.05
1474.98,1182.33
1476.43,1188.33
1477.88,1206.29
1479.33,1260.6
1480.78,1245.02
1482.23,1249.07
1483.68,1321.36
1485.13,1328.84
1486.58,1353.71
1488.03,1385.07
1489.49,1381
1490.94,1414.17
1492.39,1471.02
1493.84,1489.92
1495.29,1553.22
1496.74,1532.5
1498.19,1541.86
1499.64,1642.23
1501.09,1670.09
1502.54,1711.87
1503.99,1758.13
1505.44,1801.56
1506.89,1854.57
1508.34,1911.83
1509.79,1996.35
1511.24,2066.48
1512.69,2136.32
1514.14,2264.55
1515.59,2377.04
1517.04,2451.58
1518.49,2550.97
1519.94,2645.49
1521.39,2847.9
1522.84,2990.55
1524.29,3155.74
1525.74,3341.38
1527.19,3549.15
1528.64,3783.81
1530.09,4041
1531.54,4337.99
1532.99,4681.14
1534.45,5019.72
1535.9,5393.77
1537.35,5941.5
1538.8,6482.86
1540.25,7087.25
1541.7,7647.66
1543.15,8268.76
1544.6,9011.57
1546.05,9797.07
1547.5,10692.2
1548.95,11529.8
1550.4,12325.4
1551.85,13197.5
1553.3,14082.1
1554.75,14963.5
1556.2,15878.9
1557.65,16719.5
1559.1,16746.5
1560.55,16766.5
1562,16805
1563.45,16816.5
1564.9,16825
1566.35,16815
1567.8,16810.8
1569.25,16823.6
1570.7,16820.8
1572.15,16279.4
1573.6,15437
1575.05,14566.3
1576.5,13688.5
1577.96,12729.8
1579.41,11748.1
1580.86,10853.7
1582.31,10025.6
1583.76,9162.58
1585.21,8416.46
1586.66,7695.61
1588.11,7079.45
1589.56,6542.81
1591.01,6016.55
1592.46,5578.8
1593.91,5220.66
1595.36,4843.11
1596.81,4526.52
1598.26,4202.9
1599.71,3960.76
1601.16,3797.31
1602.61,3606.73
1604.06,3432.39
1605.51,3284.61
1606.96,3128.55
1608.41,2968.54
1609.86,2843.58
1611.31,2694.31
1612.76,2639.37
1614.21,2464.89
1615.66,2399.43
1617.11,2298.03
1618.56,2237.02
1620.01,2139.95
1621.46,2061.17
1622.92,1982.03
1624.37,1919.64
1625.82,1874.8
1627.27,1820.35
1628.72,1778.37
1630.17,1722.61
1631.62,1689.86
1633.07,1648.43
1634.52,1617.91
1635.97,1565.25
1637.42,1562.29
1638.87,1517.23
1640.32,1477.61
1641.77,1470.72
1643.22,1451.89
1644.67,1429.67
1646.12,1406.5
1647.57,1401.14
1649.02,1380.37
1650.47,1349.59
1651.92,1343.41
1653.37,1340.44
1654.82,1309.4
1656.27,1290.58
1657.72,1285.34
1659.17,1259.16
1660.62,1236.01
1662.07,1241.25
1663.52,1267.49
1664.97,1254.67
1666.42,1237.85
1667.88,1226.9
1669.33,1216.78
1670.78,1200.31
1672.23,1174.78
1673.68,1181.23
1675.13,1178.04
1676.58,1175.67
1678.03,1159.29
1679.48,1144.86
1680.93,1154.48
1682.38,1152.14
1683.83,1142.82
1685.28,1130.78
1686.73,1138.81
1688.18,1136.27
1689.63,1132.56
1691.08,1122.31
1692.53,1103.06
1693.98,1101.31
1695.43,1121.36
1696.88,1133.73
1698.33,1125.02
1699.78,1127.89
1701.23,1111.02
1702.68,1114.96
1704.13,1101.08
1705.58,1112.64
1707.03,1112.34
1708.48,1086.8
1709.93,1112.07
1711.39,1111.62
1712.84,1110.59
1714.29,1105.77
1715.74,1122.15
1717.19,1134.96
1718.64,1111.72
1720.09,1113.62
1721.54,1117.72
1722.99,1089.72
1724.44,1094.94
1725.89,1125.76
1727.34,1136.04
1728.79,1136.18
1730.24,1108.6
1731.69,1089.92
1733.14,1136.29
1734.59,1099.76
1736.04,1090.88
1737.49,1118.43
1738.94,1095.44
1740.39,1092.04
1741.84,1113.16
1743.29,1094.05
1744.74,1086.77
1746.19,1068.16
1747.64,1058.09
1749.09,1073.85
1750.54,1058.2
1751.99,1055.85
1753.44,1072.21
1754.89,1058.63
1756.35,1056.34
1757.8,1081.31
1759.25,1075.11
1760.7,1061.88
1762.15,1066.59
1763.6,1041.54
1765.05,1043.27
1766.5,1059.93
1767.95,1052.98
1769.4,1022.44
1770.85,1018.93
1772.3,1011.07
1773.75,1028.2
1775.2,1021.19
1776.65,1019.56
1778.1,1021.45
1779.55,1027.38
1781,1020.89
1782.45,1024.65
1783.9,1020.56
1785.35,1033.94
1786.8,1037.62
1788.25,1033.23
1789.7,1023.26
1791.15,1019.91
1792.6,1034.34
1794.05,1031.19
1795.5,1025.83
1796.95,1021.77
1798.4,1027.23
1799.85,1038.25
1801.31,1008.41
1802.76,1008.37
1804.21,987.42
1805.66,1017.04
1807.11,966.961
1808.56,988.011
1810.01,998.12
1811.46,999.393
1812.91,974.461
1814.36,1006.04
1815.81,1026.88
1817.26,1035.57
1818.71,1034.55
1820.16,1021.75
1821.61,1011.98
1823.06,999.881
1824.51,1008.97
1825.96,1011.76
1827.41,1001.45
1828.86,1018.42
1830.31,1026.72
1831.76,1018.36
1833.21,1027.84
1834.66,1014.78
1836.11,1014.44
1837.56,1001.91
1839.01,1033.31
1840.46,1056.66
1841.91,1012.3
1843.36,1025.29
1844.82,1042.49
1846.27,1026.98
1847.72,1041.05
1849.17,1050.37
1850.62,1040.95
1852.07,1043.94
1853.52,1067.2
1854.97,1067.99
1856.42,1048.44
1857.87,1039.94
1859.32,1070.67
1860.77,1084.19
1862.22,1071.16
1863.67,1056.86
1865.12,1062.9
1866.57,1067.43
1868.02,1055.57
1869.47,1037.42
1870.92,1028.39
1872.37,1043.12
1873.82,1056.91
1875.27,1046.05
1876.72,1032.4
1878.17,1043.35
1879.62,1033.23
1881.07,1024.67
1882.52,1012.46
1883.97,1015.16
1885.42,1016.19
1886.87,1025.3
1888.32,1021.75
1889.78,1008.46
1891.23,1017.47
1892.68,1012.9
1894.13,1020.56
1895.58,1012.94
1897.03,1023.35
1898.48,1021.88
1899.93,997.308
1901.38,1000.48
1902.83,992.832
1904.28,986.085
1905.73,992.239
1907.18,1007.66
1908.63,1007.56
1910.08,996.652
1911.53,980.449
1912.98,966.113
1914.43,976.597
1915.88,984.568
1917.33,967.287
1918.78,967.696
1920.23,986.164
1921.68,987.869
1923.13,986.181
1924.58,983.052
1926.03,973.764
1927.48,976.84
1928.93,988.228
1930.38,983.095
1931.83,978.857
1933.29,951.492
1934.74,981.439
1936.19,988.559
1937.64,950.253
1939.09,966.631
1940.54,956.706
1941.99,978.867
1943.44,981.262
1944.89,982.32
1946.34,984.415
1947.79,962.024
1949.24,982.785
1950.69,966.647
1952.14,992.092
1953.59,997.658
1955.04,979.096
1956.49,991.929
1957.94,986.172
1959.39,973.076
1960.84,984.714
1962.29,981.065
1963.74,990.064
1965.19,996.715
1966.64,995.693
1968.09,1013.61
1969.54,1023.48
1970.99,1025.75
1972.44,1030.85
1973.89,1010.92
1975.34,1011.19
1976.79,1021.8
1978.25,1019.95
1979.7,1007.21
1981.15,1008.89
1982.6,1016.73
1984.05,1006.09
1985.5,1014.99
1986.95,1007.77
1988.4,994.762
1989.85,1021.51
1991.3,1013.24
1992.75,1013.89
1994.2,1017.89
1995.65,1024.46
1997.1,1027.73
1998.55,1019.55
2000,1010.28
2001.45,1028.19
2002.9,1016.24
2004.35,1008.11
2005.8,1014.11
2007.25,1022.57
2008.7,1028.25
2010.15,1029.69
2011.6,1035.27
2013.05,1002.41
2014.5,995.309
2015.95,1009.38
2017.4,996.652
2018.85,973.192
2020.3,1008.7
2021.75,1012.51
2023.21,979.183
2024.66,1004.95
2026.11,993.06
2027.56,1006.82
2029.01,1011.84
2030.46,986.079
2031.91,988.559
2033.36,972.923
2034.81,984.218
2036.26,1002.18
2037.71,991.109
2039.16,992.673
2040.61,1004.36
2042.06,976.283
2043.51,957.487
2044.96,971.236
2046.41,943.19
2047.86,958.613
2049.31,971.486
2050.76,958.922
2052.21,956.934
2053.66,980.137
2055.11,985.67
2056.56,964.334
2058.01,955.833
2059.46,975.84
2060.91,978.138
2062.36,965.293
2063.81,954.991
2065.26,943.925
2066.72,947.615
2068.17,962.052
2069.62,935.154
2071.07,939.39
2072.52,967.091
2073.97,964.927
2075.42,956.582
2076.87,958.683
2078.32,954.447
2079.77,936.913
2081.22,950.337
2082.67,967.049
2084.12,962.618
2085.57,940.812
2087.02,942.261
2088.47,924.01
2089.92,922.804
2091.37,931.574
2092.82,947.692
2094.27,971.55
2095.72,958.11
2097.17,949.941
2098.62,953.29
2100.07,940.022
2101.52,928.566
2102.97,937.738
2104.42,928.476
2105.87,944.258
2107.32,950.73
2108.77,954.936
2110.22,956.864
2111.68,964.212
2113.13,952.33
2114.58,946.443
2116.03,962.579
2117.48,963.182
2118.93,947.869
2120.38,965.52
2121.83,964.367
2123.28,936.333
2124.73,953.494
2126.18,965.37
2127.63,958.506
2129.08,962.028
2130.53,969.148
2131.98,975.745
2133.43,975.085
2134.88,975.005
2136.33,969.016
2137.78,977.16
2139.23,976.824
2140.68,975.397
2142.13,965.863
2143.58,964.298
2145.03,996.314
2146.48,998.125
2147.93,986.297
2149.38,973.138
2150.83,975.211
2152.28,990.05
2153.73,990.767
2155.18,978.661
2156.64,984.435
2158.09,985.631
2159.54,982.21
2160.99,993.881
2162.44,995.525
2163.89,996.542
2165.34,987.589
2166.79,993.933
2168.24,1025.04
2169.69,1016.67
2171.14,1003.25
2172.59,1004.52
2174.04,1006.57
2175.49,1014.37
2176.94,1017.02
2178.39,1009.17
2179.84,1010.68
2181.29,1011.87
2182.74,1018.14
2184.19,1016.02
2185.64,1008.47
2187.09,1015.42
2188.54,1024.2
2189.99,1024.5
2191.44,1018.23
2192.89,1030.29
2194.34,1029.84
2195.79,1029.63
2197.24,1038.89
2198.69,1035.6
2200.15,1020.51
2201.6,1022.47
2203.05,1023.07
2204.5,1045.43
2205.95,1039.87
2207.4,1044.56
2208.85,1035.35
2210.3,1043.16
2211.75,1053.79
2213.2,1057.62
2214.65,1048.32
2216.1,1048.43
2217.55,1056.5
2219,1063.33
2220.45,1035.08
2221.9,1060
2223.35,1073.5
2224.8,1071.47
2226.25,1053.78
2227.7,1035.66
2229.15,1067.55
2230.6,1084.1
2232.05,1083.39
2233.5,1057.69
2234.95,1065.52
2236.4,1065.71
2237.85,1070.42
2239.3,1045.13
2240.75,1052.27
2242.2,1076.56
2243.65,1091.68
2245.11,1063.97
2246.56,1089.28
2248.01,1079.59
2249.46,1076.4
2250.91,1098.06
2252.36,1086.95
2253.81,1079.38
2255.26,1091.56
2256.71,1074.97
2258.16,1086.22
2259.61,1100.58
2261.06,1093.28
2262.51,1066.65
2263.96,1097.44
2265.41,1107.99
2266.86,1092.35
2268.31,1071.82
2269.76,1088.81
2271.21,1112.09
2272.66,1099.97
2274.11,1098.27
2275.56,1082.16
2277.01,1084.84
2278.46,1116.81
2279.91,1117.29
2281.36,1138.73
2282.81,1144.7
2284.26,1107.34
2285.71,1106.8
2287.16,1123.92
2288.61,1141.7
2290.07,1125.29
2291.52,1106.35
2292.97,1132.19
2294.42,1138.78
2295.87,1143.77
2297.32,1146.52
2298.77,1118.23
2300.22,1146.62
2301.67,1186.59
2303.12,1185.13
2304.57,1168.13
2306.02,1147.3
2307.47,1154.7
2308.92,1151.16
2310.37,1167.1
2311.82,1162.38
2313.27,1178.79
2314.72,1155.11
2316.17,1190.75
2317.62,1166.82
2319.07,1179.74
2320.52,1200.31
2321.97,1183.76
2323.42,1187.61
2324.87,1223.39
2326.32,1197.94
2327.77,1202.4
2329.22,1193.58
2330.67,1227.34
2332.12,1232.31
2333.57,1236.44
2335.03,1239.59
2336.48,1208.59
2337.93,1206.81
2339.38,1231.92
2340.83,1257.1
2342.28,1247.7
2343.73,1259.79
2345.18,1247.68
2346.63,1265.03
2348.08,1284.27
2349.53,1285.99
2350.98,1282.78
2352.43,1302.82
2353.88,1295.65
2355.33,1300.7
2356.78,1304.34
2358.23,1329.5
2359.68,1315.98
2361.13,1333.15
2362.58,1370.17
2364.03,1378.85
2365.48,1351.75
2366.93,1358.86
2368.38,1391.75
2369.83,1393.5
2371.28,1385.91
2372.73,1395.22
2374.18,1438.4
2375.63,1454.07
2377.08,1462.92
2378.54,1470.35
2379.99,1470.71
2381.44,1483.46
2382.89,1527.16
2384.34,1541.01
2385.79,1529.58
2387.24,1544.84
2388.69,1578.46
2390.14,1603.58
2391.59,1632.8
2393.04,1631.5
2394.49,1639.43
2395.94,1667.89
2397.39,1654.86
2398.84,1660.77
2400.29,1737.44
2401.74,1769.44
2403.19,1777.13
2404.64,1785.29
2406.09,1789.9
2407.54,1840.27
2408.99,1822.09
2410.44,1837.24
2411.89,1831.04
2413.34,1878.13
2414.79,1900.39
2416.24,1867.01
2417.69,1912.31
2419.14,1902.29
2420.59,1919.78
2422.04,1931.58
2423.5,1922.19
2424.95,1941.35
2426.4,1956.5
2427.85,1954.18
2429.3,1928.01
2430.75,1923.64
2432.2,1904.32
2433.65,1915.51
2435.1,1922.92
2436.55,1939.12
2438,1890.33
2439.45,1902.29
2440.9,1908.05
2442.35,1901.55
2443.8,1868.26
2445.25,1859.17
2446.7,1887.79
2448.15,1863.48
2449.6,1853.17
2451.05,1863.93
2452.5,1836.54
2453.95,1849.01
2455.4,1835.1
2456.85,1819.56
2458.3,1790.1
2459.75,1747.48
2461.2,1760.97
2462.65,1761.84
2464.1,1770.63
2465.55,1784.7
2467.01,1799.93
2468.46,1754.03
2469.91,1796.78
2471.36,1791.75
2472.81,1764.89
2474.26,1750.94
2475.71,1741.77
2477.16,1784.23
2478.61,1770.32
2480.06,1758.6
2481.51,1767.66
2482.96,1737.08
2484.41,1760.31
2485.86,1750.38
2487.31,1758.6
2488.76,1757.44
2490.21,1762.91
2491.66,1749.04
2493.11,1761.43
2494.56,1799.62
2496.01,1778.06
2497.46,1784.96
2498.91,1781.76
2500.36,1815.35
2501.81,1804.22
2503.26,1797.45
2504.71,1828.67
2506.16,1843.53
2507.61,1822.24
2509.06,1840.44
2510.51,1841.34
2511.97,1831.09
2513.42,1807.86
2514.87,1864.76
2516.32,1863.4
2517.77,1851.47
2519.22,1877.46
2520.67,1883.23
2522.12,1880.06
2523.57,1912.51
2525.02,1966.76
2526.47,1982.09
2527.92,1986.29
2529.37,1989.76
2530.82,2032.08
2532.27,2047.97
2533.72,2044.58
2535.17,2062.21
2536.62,2068.57
2538.07,2113.19
2539.52,2094.47
2540.97,2138.44
2542.42,2163.01
2543.87,2166.6
2545.32,2214.4
2546.77,2205.2
2548.22,2268.47
2549.67,2323.3
2551.12,2346.55
2552.57,2362.46
2554.02,2365.06
2555.48,2377.32
2556.93,2424.89
2558.38,2482.11
2559.83,2512.01
2561.28,2542.2
2562.73,2579.22
2564.18,2672
2565.63,2683.03
2567.08,2753.14
2568.53,2779.38
2569.98,2905.25
2571.43,2955.83
2572.88,2996.75
2574.33,3046.38
2575.78,3118.58
2577.23,3175.88
2578.68,3241.79
2580.13,3322.73
2581.58,3364.57
2583.03,3408.51
2584.48,3525.44
2585.93,3615.24
2587.38,3692.31
2588.83,3849.21
2590.28,3901.92
2591.73,3978.85
2593.18,4133.74
2594.63,4282.38
2596.08,4381.15
2597.53,4520.17
2598.98,4705.9
2600.44,4837.54
2601.89,4971.15
2603.34,5145.18
2604.79,5326.11
2606.24,5450.99
2607.69,5660.59
2609.14,5844.49
2610.59,6067.84
2612.04,6233.74
2613.49,6516.17
2614.94,6658.39
2616.39,6845.75
2617.84,7180.93
2619.29,7379.56
2620.74,7637.52
2622.19,7956.73
2623.64,8219.34
2625.09,8429.14
2626.54,8685.96
2627.99,8946.89
2629.44,9254.47
2630.89,9455.34
2632.34,9729.53
2633.79,10039.4
2635.24,10318.7
2636.69,10617
2638.14,10825.3
2639.59,11028.1
2641.04,11307.7
2642.49,11564.4
2643.94,11737.2
2645.4,11915.7
2646.85,12043.6
2648.3,12203.5
2649.75,12298.9
2651.2,12374.5
2652.65,12419.6
2654.1,12337.3
2655.55,12363.5
2657,12421.8
2658.45,12322.3
2659.9,12293.6
2661.35,12245.3
2662.8,12128.4
2664.25,11911.5
2665.7,11727.2
2667.15,11586.5
2668.6,11383.8
2670.05,11053.1
2671.5,10753.4
2672.95,10637.7
2674.4,10258.3
2675.85,10087.9
2677.3,9760.78
2678.75,9464.74
2680.2,9191.78
2681.65,8839.54
2683.1,8601.72
2684.55,8350.43
2686,8115.8
2687.45,7820.94
2688.91,7476.86
2690.36,7220.88
2691.81,6911.17
2693.26,6650.78
2694.71,6430.56
2696.16,6208.51
2697.61,5882.31
2699.06,5770.08
2700.51,5610.91
2701.96,5408.12
2703.41,5195.27
2704.86,4990.12
2706.31,4804.88
2707.76,4643.15
2709.21,4466.14
2710.66,4278.17
2712.11,4137.35
2713.56,4021.44
2715.01,3896.65
2716.46,3878.99
2717.91,3691.42
2719.36,3605.58
2720.81,3482.2
2722.26,3335.26
2723.71,3294.94
2725.16,3231.08
2726.61,3116.75
2728.06,3049.4
2729.51,3023.11
2730.96,2901.75
2732.41,2876.03
2733.87,2804.02
2735.32,2700.64
2736.77,2670.05
2738.22,2609.92
2739.67,2587.12
2741.12,2527.94
2742.57,2489.45
2744.02,2474.85
2745.47,2359.01
2746.92,2366.25
2748.37,2316.56
2749.82,2305.43
2751.27,2254.62
2752.72,2207.44
2754.17,2221.06
2755.62,2150.98
2757.07,2103.73
2758.52,2107.06
2759.97,2079.38
2761.42,2057.81
2762.87,2061.01
2764.32,1999.39
2765.77,1996.62
2767.22,1997.79
2768.67,1956.68
2770.12,1933.22
2771.57,1936.49
2773.02,1902.82
2774.47,1900.8
2775.92,1878.89
2777.38,1870.13
2778.83,1851.88
2780.28,1832.81
2781.73,1809.02
2783.18,1768.49
2784.63,1815.54
2786.08,1756.26
2787.53,1765.19
2788.98,1755.7
2790.43,1731.83
2791.88,1733.8
2793.33,1722.97
2794.78,1685.92
2796.23,1708.75
2797.68,1676.93
2799.13,1706.71
2800.58,1671.23
2802.03,1657.93
2803.48,1635.5
2804.93,1677.1
2806.38,1661.49
2807.83,1629.18
2809.28,1620.58
2810.73,1622.61
2812.18,1599.29
2813.63,1622.04
2815.08,1596.59
2816.53,1597.98
2817.98,1593.31
2819.43,1600.88
2820.88,1594.21
2822.33,1571.16
2823.79,1551.63
2825.24,1565.96
2826.69,1572.8
2828.14,1566.93
2829.59,1547.23
2831.04,1555.13
2832.49,1522.08
2833.94,1526.4
2835.39,1547.66
2836.84,1531.23
2838.29,1494.48
2839.74,1485.15
2841.19,1495.07
2842.64,1520.91
2844.09,1514.53
2845.54,1501.22
2846.99,1464.63
2848.44,1523.41
2849.89,1504.18
2851.34,1500.48
2852.79,1506.57
2854.24,1502.34
2855.69,1494.17
2857.14,1491.61
2858.59,1494.29
2860.04,1461.82
2861.49,1522.45
2862.94,1461
2864.39,1475.15
2865.84,1500.01
2867.3,1505.3
2868.75,1479.64
2870.2,1476.88
2871.65,1471.88
2873.1,1463.38
2874.55,1450.96
2876,1446.24
2877.45,1479.23
2878.9,1486.68
2880.35,1439.57
2881.8,1444.9
2883.25,1469.99
2884.7,1475.38
2886.15,1470.62
2887.6,1463.29
2889.05,1471.72
2890.5,1482.05
2891.95,1461.73
2893.4,1465.16
2894.85,1454.66
2896.3,1460.66
2897.75,1459.85
2899.2,1462.35
2900.65,1465.16
2902.1,1462.49
2903.55,1439.54
2905,1448.76
2906.45,1459.16
2907.9,1447.57
2909.35,1440.3
2910.8,1432.84
2912.26,1415.66
2913.71,1430.49
2915.16,1414.88
2916.61,1423.44
2918.06,1393.72
2919.51,1429.67
2920.96,1412.61
2922.41,1431.99
2923.86,1412.93
2925.31,1401.81
2926.76,1415.78
2928.21,1407.72
2929.66,1397.63
2931.11,1385.32
2932.56,1385.4
2934.01,1382.93
2935.46,1355.56
2936.91,1353.32
2938.36,1354.07
2939.81,1351.94
2941.26,1343.86
2942.71,1337.41
2944.16,1356.55
2945.61,1352.3
2947.06,1327.76
2948.51,1327.37
2949.96,1313.79
2951.41,1325.65
2952.86,1333.37
2954.31,1326.8
2955.77,1298.3
2957.22,1296.56
2958.67,1281.04
2960.12,1306.71
2961.57,1271.63
2963.02,1293.21
2964.47,1286.52
2965.92,1291.56
2967.37,1282.24
2968.82,1281.96
2970.27,1276.63
2971.72,1276.46
2973.17,1261.4
2974.62,1259.14
2976.07,1248.69
2977.52,1242.91
2978.97,1245.72
2980.42,1255.17
2981.87,1243.86
2983.32,1245.38
2984.77,1238.98
2986.22,1244.49
2987.67,1242.14
2989.12,1260.84
2990.57,1244.39
2992.02,1248.36
2993.47,1249.09
2994.92,1250.53
2996.37,1235.64
2997.82,1250.71
2999.27,1261.07
3000.73,1230.93
3002.18,1242.54
3003.63,1211.38
3005.08,1244.02
3006.53,1247.39
3007.98,1242.15
3009.43,1244.08
3010.88,1232.11
3012.33,1219.3
3013.78,1203.82
3015.23,1217.99
3016.68,1230.01
3018.13,1242.85
3019.58,1202.51
3021.03,1201.77
3022.48,1209.24
3023.93,1222.87
3025.38,1231.17
3026.83,1238.33
3028.28,1235.82
3029.73,1244.2
3031.18,1230.01
3032.63,1215.17
3034.08,1245.2
3035.53,1215.18
3036.98,1225.64
3038.43,1195.54
3039.88,1214.64
3041.33,1265.49
3042.78,1259.84
3044.23,1232.29
3045.69,1232.18
3047.14,1223.45
3048.59,1217.28
3050.04,1228.45
3051.49,1197.4
3052.94,1226.95
3054.39,1231.76
3055.84,1209.57
3057.29,1235.12
3058.74,1241.86
3060.19,1275.24
3061.64,1249.62
3063.09,1267.73
3064.54,1256.14
3065.99,1247.39
3067.44,1257.39
3068.89,1271.31
3070.34,1269.63
3071.79,1248.89
3073.24,1274.18
3074.69,1286.06
3076.14,1296.29
3077.59,1295.65
3079.04,1312.81
3080.49,1326.39
3081.94,1324.94
3083.39,1280.09
3084.84,1317.11
3086.29,1349.46
3087.74,1317.72
3089.2,1341.89
3090.65,1359.38
3092.1,1389.79
3093.55,1373.02
3095,1378.57
3096.45,1378.95
3097.9,1389.53
3099.35,1383.03
3100.8,1390.99
3102.25,1425.89
3103.7,1408.38
3105.15,1461.02
3106.6,1471.21
3108.05,1470.45
3109.5,1465.6
3110.95,1488.51
3112.4,1504.97
3113.85,1519.3
3115.3,1471.73
3116.75,1514.55
3118.2,1569.02
3119.65,1557.23
3121.1,1582.21
3122.55,1608.14
3124,1599.39
3125.45,1599.04
3126.9,1627.97
3128.35,1631.17
3129.8,1611.92
3131.25,1644.31
3132.7,1646.76
3134.16,1635.51
3135.61,1648.39
3137.06,1628.73
3138.51,1640.11
3139.96,1690.59
3141.41,1696.58
3142.86,1698.22
3144.31,1701.52
3145.76,1681.49
3147.21,1697.93
3148.66,1748.26
3150.11,1733.03
3151.56,1713.61
3153.01,1716.27
3154.46,1729.1
3155.91,1706.12
3157.36,1747.26
3158.81,1736.73
3160.26,1757.1
3161.71,1749.18
3163.16,1737.83
3164.61,1757.46
3166.06,1743.55
3167.51,1759.93
3168.96,1767.36
3170.41,1808.89
3171.86,1836.05
3173.31,1811.35
3174.76,1819.28
3176.21,1826.48
3177.67,1826.29
3179.12,1864.41
3180.57,1850
3182.02,1853.78
3183.47,1883
3184.92,1889.73
3186.37,1904.53
3187.82,1901.42
3189.27,1881.5
3190.72,1894.37
3192.17,1894.65
3193.62,1892.73
3195.07,1882.63
3196.52,1875.26
3197.97,1878.47
3199.42,1873.37
3200.87,1837.72
3202.32,1868.97
3203.77,1822.72
3205.22,1793.05
3206.67,1770.19
3208.12,1844.01
3209.57,1785.49
3211.02,1746.01
3212.47,1727.68
3213.92,1736.55
3215.37,1721.05
3216.82,1694.63
3218.27,1702.61
3219.72,1670.27
3221.17,1650.96
3222.63,1634.23
3224.08,1629.87
3225.53,1601.91
3226.98,1557.45
3228.43,1552.97
3229.88,1530.98
3231.33,1507.07
3232.78,1469.32
3234.23,1460.68
3235.68,1431.21
3237.13,1377.87
3238.58,1422.86
3240.03,1423.75
3241.48,1392.36
3242.93,1367.27
3244.38,1354.22
3245.83,1321.35
3247.28,1309.29
3248.73,1306.15
3250.18,1323.34
3251.63,1301.83
3253.08,1277.61
3254.53,1273.97
3255.98,1243.47
3257.43,1233.84
3258.88,1249.6
3260.33,1227.27
3261.78,1253.99
3263.23,1241.98
3264.68,1207.96
3266.13,1235.15
3267.59,1260.97
3269.04,1225.9
3270.49,1211.12
3271.94,1233.98
3273.39,1201.36
3274.84,1186.2
3276.29,1233.68
3277.74,1182.12
3279.19,1189.04
3280.64,1214.62
3282.09,1211.65
3283.54,1203.3
3284.99,1179.73
3286.44,1188.7
3287.89,1196.55
3289.34,1165.57
3290.79,1186.14
3292.24,1192.56
3293.69,1189.89
3295.14,1187.71
3296.59,1185.36
3298.04,1171.75
3299.49,1188.13
3300.94,1184.44
3302.39,1211.33
3303.84,1179.09
3305.29,1174.75
3306.74,1189.17
3308.19,1181
3309.64,1183.44
3311.09,1195.87
3312.55,1189.95
3314,1212.85
3315.45,1194.39
3316.9,1184.56
3318.35,1176.46
3319.8,1168.79
3321.25,1188.44
3322.7,1172.42
3324.15,1172.61
3325.6,1199.42
3327.05,1199.54
3328.5,1170.19
3329.95,1180.99
3331.4,1207.24
3332.85,1180.22
3334.3,1179.18
3335.75,1170.2
3337.2,1177.09
3338.65,1162.61
3340.1,1188.42
3341.55,1168.67
3343,1170.42
3344.45,1166.72
3345.9,1173.91
3347.35,1118.55
3348.8,1177.03
3350.25,1183.86
3351.7,1196
3353.15,1195.52
3354.6,1182.78
3356.06,1174.91
3357.51,1196.6
3358.96,1146.56
3360.41,1157.86
3361.86,1164.78
3363.31,1181.71
3364.76,1150.01
3366.21,1169.29
3367.66,1198.99
3369.11,1193.75
3370.56,1186.82
3372.01,1190.05
3373.46,1157.3
3374.91,1198.83
3376.36,1202.99
3377.81,1187.2
3379.26,1165.11
3380.71,1203.77
3382.16,1213.52
3383.61,1195.29
3385.06,1185.8
3386.51,1173.33
3387.96,1189.1
3389.41,1217.25
3390.86,1214.37
3392.31,1174.37
3393.76,1186.75
3395.21,1197.95
3396.66,1159.62
3398.11,1197.45
3399.56,1192.68
3401.02,1193.94
3402.47,1192.73
3403.92,1178.34
3405.37,1197.21
3406.82,1168.69
3408.27,1210.93
3409.72,1189.29
3411.17,1194.16
3412.62,1171.95
3414.07,1206.13
3415.52,1170.85
3416.97,1201.62
3418.42,1199.93
3419.87,1189.69
3421.32,1183.76
3422.77,1182.74
3424.22,1196.77
3425.67,1220.82
3427.12,1234.08
3428.57,1198
3430.02,1203.77
3431.47,1196.16
3432.92,1174.07
3434.37,1191.94
3435.82,1208.48
3437.27,1210.56
3438.72,1217.12
3440.17,1190.69
3441.62,1197.4
3443.07,1202.84
3444.52,1215.91
3445.98,1200.71
3447.43,1166.47
3448.88,1178.88
3450.33,1187.04
3451.78,1197.23
3453.23,1219.24
3454.68,1194.17
3456.13,1201.11
3457.58,1231.35
3459.03,1200.87
3460.48,1193.88
3461.93,1196.59
3463.38,1186.3
3464.83,1210.42
3466.28,1209.69
3467.73,1181.26
3469.18,1219.65
3470.63,1208.09
3472.08,1202.83
3473.53,1196.08
3474.98,1206.51
3476.43,1171.41
3477.88,1227.5
3479.33,1212.78
3480.78,1209.08
3482.23,1222.14
3483.68,1215.19
3485.13,1203.27
3486.58,1211.94
3488.03,1195.65
3489.49,1195.39
3490.94,1197.49
3492.39,1199.4
3493.84,1217.43
3495.29,1196.48
3496.74,1212.04
3498.19,1195.11
3499.64,1237.67
3501.09,1195.9
3502.54,1235.91
3503.99,1220.72
3505.44,1199.98
3506.89,1228.78
3508.34,1225.11
3509.79,1244.88
3511.24,1238.22
3512.69,1236.42
3514.14,1220.7
3515.59,1232.66
3517.04,1271.28
3518.49,1241
3519.94,1220.56
3521.39,1196.59
3522.84,1251.58
3524.29,1224.66
3525.74,1210.36
3527.19,1241.07
3528.64,1227.81
3530.09,1235.91
3531.54,1208.17
3532.99,1211.65
3534.45,1225.39
3535.9,1254.46
3537.35,1222.82
3538.8,1223.29
3540.25,1201.95
3541.7,1206.43
3543.15,1213.22
3544.6,1222.62
3546.05,1257.36
3547.5,1243.81
3548.95,1253.98
3550.4,1247.25
3551.85,1247.25
3553.3,1207.72
3554.75,1217.03
3556.2,1218.62
3557.65,1241.67
3559.1,1229.96
3560.55,1223.49
3562,1208.2
3563.45,1250.65
3564.9,1247.29
3566.35,1224.15
3567.8,1253.1
3569.25,1231.12
3570.7,1245.19
3572.15,1248.27
3573.6,1253.34
3575.05,1246.05
3576.5,1210.85
3577.96,1207.15
3579.41,1237.79
3580.86,1227.91
3582.31,1244.67
3583.76,1254.63
3585.21,1251.7
3586.66,1241.4
3588.11,1260.56
3589.56,1235.1
3591.01,1256.11
3592.46,1270.54
3593.91,1236.91
3595.36,1241.2
3596.81,1259.8
3598.26,1253.12
3599.71,1230.61
3601.16,1247.93
3602.61,1262.19
3604.06,1246.54
3605.51,1243.86
3606.96,1241.7
3608.41,1260.85
3609.86,1249.98
3611.31,1264.95
3612.76,1236.78
3614.21,1235.25
3615.66,1285.26
3617.11,1246.46
3618.56,1260.76
3620.01,1250.41
3621.46,1265.07
3622.92,1263.32
3624.37,1264.17
3625.82,1264.5
3627.27,1269.03
3628.72,1231.53
3630.17,1250.35
3631.62,1267.83
3633.07,1240.69
3634.52,1265.07
3635.97,1267.79
3637.42,1264.81
3638.87,1275.22
3640.32,1240.58
3641.77,1291.05
3643.22,1293.55
3644.67,1273.62
3646.12,1274.41
3647.57,1278.3
3649.02,1272.06
3650.47,1286.94
3651.92,1276.46
3653.37,1288.78
3654.82,1281.94
3656.27,1275.44
3657.72,1270.06
3659.17,1288.92
3660.62,1299.06
3662.07,1286.92
3663.52,1283.49
3664.97,1289.44
3666.43,1281.54
3667.88,1305.08
3669.33,1266.48
3670.78,1272.56
3672.23,1287.16
3673.68,1299.73
3675.13,1299.91
3676.58,1304.97
3678.03,1285.13
3679.48,1305.18
3680.93,1314.42
3682.38,1285.99
3683.83,1284.46
3685.28,1282.19
3686.73,1312.25
3688.18,1301.62
3689.63,1304.61
3691.08,1292.53
3692.53,1312.79
3693.98,1298.42
3695.43,1311.33
3696.88,1297.88
3698.33,1283.12
3699.78,1283.24
3701.23,1299.17
3702.68,1304.56
3704.13,1328.09
3705.58,1304.31
3707.03,1327.85
3708.48,1302.77
3709.93,1296.8
3711.39,1311.63
3712.84,1278.39
3714.29,1320.66
3715.74,1308.06
3717.19,1311.11
3718.64,1319.68
3720.09,1310.14
3721.54,1309.54
3722.99,1309.51
3724.44,1316.4
3725.89,1301.69
3727.34,1286.03
3728.79,1290.57
3730.24,1285.19
3731.69,1324.33
3733.14,1319.51
3734.59,1323.44
3736.04,1306.71
3737.49,1311.24
3738.94,1327.28
3740.39,1350.35
3741.84,1305.52
3743.29,1344.37
3744.74,1356.25
3746.19,1318.96
3747.64,1334.78
3749.09,1347.31
3750.54,1313.21
3751.99,1319.4
3753.44,1327.76
3754.89,1330.86
3756.35,1344.13
3757.8,1337.61
3759.25,1336.77
3760.7,1337.87
3762.15,1333.22
3763.6,1317.81
3765.05,1342.02
3766.5,1341.2
3767.95,1348.96
3769.4,1344.29
3770.85,1339.77
3772.3,1327.67
3773.75,1329.96
3775.2,1339.9
3776.65,1335.55
3778.1,1355.97
3779.55,1336.79
3781,1358.05
3782.45,1374.33
3783.9,1349.94
3785.35,1329.59
3786.8,1380.45
3788.25,1329.12
3789.7,1355.25
3791.15,1333.7
3792.6,1374.82
3794.05,1347.44
3795.5,1329.91
3796.95,1340.73
3798.4,1326.33
3799.85,1356.93
3801.31,1357.67
3802.76,1330.33
3804.21,1390.07
3805.66,1384.76
3807.11,1385.82
3808.56,1372.59
3810.01,1384.42
3811.46,1394.04
3812.91,1391.04
3814.36,1370.42
3815.81,1371.49
3817.26,1377.8
3818.71,1376.8
3820.16,1390.82
3821.61,1394.21
3823.06,1368.42
3824.51,1359.96
3825.96,1386.85
3827.41,1388.07
3828.86,1385.71
3830.31,1399.36
3831.76,1386.1
3833.21,1394.64
3834.66,1415.48
3836.11,1412.26
3837.56,1403.58
3839.01,1394.07
3840.46,1394.64
3841.91,1382.41
3843.36,1380.04
3844.82,1341.06
3846.27,1389.5
3847.72,1407.45
3849.17,1404.27
3850.62,1428.28
3852.07,1411.23
3853.52,1403.58
3854.97,1405.65
3856.42,1403.86
3857.87,1403.6
3859.32,1417.84
3860.77,1411.4
3862.22,1408.94
3863.67,1425.54
3865.12,1422.63
3866.57,1409.11
3868.02,1409.53
3869.47,1440.5
3870.92,1408.55
3872.37,1401.33
3873.82,1423.64
3875.27,1452.35
3876.72,1467.72
3878.17,1461.08
3879.62,1423.31
3881.07,1432
3882.52,1430.93
3883.97,1434.83
3885.42,1450.89
3886.87,1449.69
3888.32,1461.9
3889.78,1440.59
3891.23,1453.25
3892.68,1446.37
3894.13,1443.16
3895.58,1454.89
3897.03,1473.05
3898.48,1476.11
3899.93,1487.18
3901.38,1479.56
3902.83,1449.87
3904.28,1482.61
3905.73,1486.15
3907.18,1487.74
3908.63,1461.38
3910.08,1479.55
3911.53,1474.03
3912.98,1498.11
3914.43,1485.62
3915.88,1488.01
3917.33,1471.89
3918.78,1460.78
3920.23,1490.15
3921.68,1499.54
3923.13,1519.65
3924.58,1493.57
3926.03,1506.32
3927.48,1500.22
3928.93,1552.64
3930.38,1498.85
3931.83,1506.17
3933.28,1512.71
3934.74,1520.17
3936.19,1546.69
3937.64,1529.57
3939.09,1506
3940.54,1547.67
3941.99,1530.78
3943.44,1519.77
3944.89,1526.83
3946.34,1542.47
3947.79,1559
3949.24,1547.63
3950.69,1552.74
3952.14,1561.93
3953.59,1570.29
3955.04,1575.39
3956.49,1529.63
3957.94,1581.88
3959.39,1546.24
3960.84,1542.31
3962.29,1554.75
3963.74,1546.91
3965.19,1534.31
3966.64,1593.05
3968.09,1556.57
3969.54,1586.01
3970.99,1549.2
3972.44,1579.78
3973.89,1574.42
3975.34,1609.37
3976.79,1601.14
3978.25,1611.55
3979.7,1607.61
3981.15,1591.05
3982.6,1600.44
3984.05,1615.27
3985.5,1622.44
3986.95,1643.79
3988.4,1616.42
3989.85,1623.55
3991.3,1617.1
3992.75,1627.54
3994.2,1647.19
3995.65,1612.58
3997.1,1693.48
3998.55,1623.9
4000,1627.38
