0.4,6.71411
1.45033,6.71411
2.90065,6.71411
4.35098,6.71411
5.80131,6.71411
7.25163,6.71411
8.70196,28.0889
10.1523,12.3216
11.6026,9.70904
13.0529,10.7794
14.5033,12.0531
15.9536,10.9237
17.4039,4.38078
18.8542,0.374665
20.3046,0.295339
21.7549,2.6076
23.2052,5.39207
24.6555,5.06468
26.1059,3.61384
27.5562,1.02541
29.0065,0.238876
30.4569,4.94617
31.9072,2.32488
33.3575,2.16449
34.8078,1.88788
36.2582,1.0311
37.7085,2.01467
39.1588,0.275754
40.6091,2.12951
42.0595,5.94347
43.5098,9.32788
44.9601,10.6403
46.4104,10.062
47.8608,15.5639
49.3111,27.2089
50.7614,41.0566
52.2117,102.134
53.6621,198.504
55.1124,343.418
56.5627,539.165
58.0131,772.119
59.4634,1000.34
60.9137,1204.95
62.364,1348.32
63.8144,1412.87
65.2647,1531.25
66.715,1582.03
68.1653,1625.99
69.6157,1675.75
71.066,1722.98
72.5163,1743.71
73.9666,1737.6
75.417,1722.11
76.8673,1723.95
78.3176,1796.4
79.7679,1810.11
81.2183,1839.7
82.6686,1891.39
84.1189,1957.93
85.5693,2001.75
87.0196,2014.06
88.4699,2012.46
89.9202,1969.69
91.3706,1849.94
92.8209,1751
94.2712,1660.48
95.7215,1560.18
97.1719,1468.56
98.6222,1442.16
100.073,1390.72
101.523,1330.88
102.973,1276.37
104.423,1234.49
105.874,1200.81
107.324,1173.1
108.774,1159.75
110.225,1139.23
111.675,1099.9
113.125,1108.5
114.576,1125.75
116.026,1116.01
117.476,1081.11
118.927,1039.33
120.377,1050.92
121.827,1029.12
123.278,1016.91
124.728,1016.29
126.178,1000.73
127.629,978.903
129.079,956.323
130.529,941.266
131.98,932.261
133.43,913.051
134.88,889.759
136.331,859.654
137.781,845.994
139.231,850.696
140.682,812.907
142.132,822.901
143.582,807.186
145.033,780.924
146.483,764.755
147.933,739.541
149.384,761.343
150.834,754.527
152.284,727.93
153.735,714.123
155.185,744.004
156.635,718.842
158.086,709.247
159.536,722.527
160.986,737.967
162.437,735.642
163.887,710.027
165.337,680.39
166.788,657.133
168.238,645.699
169.688,648.695
171.139,634.301
172.589,625.994
174.039,623.651
175.489,603.664
176.94,642.872
178.39,652.629
179.84,650.188
181.291,644.396
182.741,631.076
184.191,615.488
185.642,600.774
187.092,584.326
188.542,574.599
189.993,601.958
191.443,579.445
192.893,579.261
194.344,592.173
195.794,598.388
197.244,564.371
198.695,571.972
200.145,574.046
201.595,566.074
203.046,552.359
204.496,549.688
205.946,563.326
207.397,571.202
208.847,579.73
210.297,589.545
211.748,576.516
213.198,578.157
214.648,583.164
216.099,581.859
217.549,572.713
218.999,576.724
220.45,588.986
221.9,581.635
223.35,565.007
224.801,555.528
226.251,574.596
227.701,568.894
229.152,580.698
230.602,572.423
232.052,535.622
233.503,565.119
234.953,566.841
236.403,568.2
237.854,569.55
239.304,569.431
240.754,568.76
242.204,563.409
243.655,558.625
245.105,546.505
246.555,529.591
248.006,534.955
249.456,537.16
250.906,546.207
252.357,555.862
253.807,554.04
255.257,519.434
256.708,528.134
258.158,536.136
259.608,540.493
261.059,544.138
262.509,555.571
263.959,508.468
265.41,502.169
266.86,502.565
268.31,505.558
269.761,539.705
271.211,522.877
272.661,516.112
274.112,505.344
275.562,498.442
277.012,516.806
278.463,515.46
279.913,519.488
281.363,514.751
282.814,508.856
284.264,515.967
285.714,498.101
287.165,502.697
288.615,508.804
290.065,500.019
291.516,473.158
292.966,490.025
294.416,507.779
295.867,496.634
297.317,480.705
298.767,481.894
300.218,474.812
301.668,479.457
303.118,481.545
304.569,462.79
306.019,433.619
307.469,460.649
308.919,448.65
310.37,451.545
311.82,450.138
313.27,440.584
314.721,439.903
316.171,438.889
317.621,443.128
319.072,432.424
320.522,422.147
321.972,443.145
323.423,441.454
324.873,426.784
326.323,425.919
327.774,435.337
329.224,440.45
330.674,424.867
332.125,439.212
333.575,440.002
335.025,428.275
336.476,414.632
337.926,413.615
339.376,411.949
340.827,417.613
342.277,421.269
343.727,422.358
345.178,429.735
346.628,407
348.078,417.342
349.529,439.013
350.979,449.842
352.429,433.303
353.88,408.174
355.33,421.838
356.78,430.337
358.231,431.279
359.681,429.016
361.131,419.16
362.582,403.539
364.032,396.515
365.482,400.981
366.933,408.329
368.383,399.277
369.833,395.871
371.284,390.305
372.734,390.147
374.184,391.017
375.635,388.138
377.085,411.969
378.535,423.218
379.986,404.772
381.436,389.89
382.886,399.84
384.336,408.699
385.787,398.722
387.237,391.193
388.687,394.931
390.138,405.656
391.588,409.418
393.038,403.28
394.489,387.714
395.939,395.574
397.389,406.66
398.84,396.288
400.29,379.904
401.74,404.118
403.191,391.251
404.641,389.5
406.091,403.537
407.542,382.625
408.992,393.215
410.442,405.479
411.893,408.013
413.343,407.102
414.793,408.738
416.244,389.933
417.694,404.574
419.144,405.733
420.595,392.874
422.045,381.73
423.495,397.134
424.946,393.371
426.396,388.21
427.846,379.082
429.297,384.949
430.747,410.996
432.197,382.537
433.648,397.096
435.098,392.079
436.548,381.535
437.999,378.251
439.449,382.751
440.899,368.352
442.35,387.831
443.8,386.984
445.25,377.55
446.701,384.283
448.151,403.519
449.601,400.766
451.051,396.987
452.502,394.279
453.952,385.827
455.402,365.8
456.853,389.522
458.303,382.829
459.753,383.336
461.204,384.392
462.654,379.805
464.104,382.199
465.555,377.042
467.005,384.318
468.455,391.842
469.906,385.905
471.356,367.69
472.806,398.686
474.257,402.617
475.707,394.322
477.157,392.668
478.608,401.482
480.058,406.122
481.508,369.965
482.959,387.289
484.409,390.01
485.859,389.172
487.31,395.321
488.76,378.48
490.21,399.506
491.661,410.213
493.111,396.865
494.561,374.675
496.012,368.854
497.462,388.169
498.912,375.349
500.363,382.431
501.813,385.076
503.263,378.756
504.714,379.762
506.164,393.227
507.614,388.93
509.065,384.935
510.515,385.079
511.965,384.44
513.416,372.977
514.866,380.934
516.316,389.758
517.766,390.9
519.217,386.564
520.667,381.694
522.117,379.322
523.568,387.287
525.018,379.782
526.468,373.874
527.919,372.855
529.369,378.407
530.819,406.827
532.27,379.206
533.72,386.685
535.17,385.934
536.621,379.824
538.071,391.905
539.521,395.371
540.972,385.188
542.422,390.842
543.872,386.004
545.323,379.069
546.773,395.876
548.223,387.541
549.674,386.175
551.124,392.613
552.574,396.386
554.025,393.501
555.475,388.247
556.925,385.815
558.376,383.691
559.826,378.965
561.276,378.141
562.727,377.606
564.177,366.619
565.627,380.536
567.078,373.942
568.528,363.602
569.978,362.602
571.429,369.088
572.879,368.036
574.329,379.877
575.78,368.285
577.23,375.573
578.68,383.493
580.131,384.171
581.581,393.675
583.031,372.76
584.482,383.156
585.932,381.26
587.382,378.743
588.832,379.31
590.283,366.736
591.733,366.736
593.183,374.697
594.634,388.04
596.084,379.884
597.534,354.578
598.985,350.727
600.435,354.22
601.885,374.473
603.336,379.681
604.786,382.938
606.236,387.444
607.687,381.471
609.137,378.325
610.587,382.776
612.038,390.253
613.488,390.564
614.938,387.334
616.389,391.213
617.839,382.816
619.289,392.924
620.74,378.049
622.19,375.03
623.64,380.197
625.091,367.675
626.541,365.572
627.991,379.233
629.442,394.936
630.892,397.266
632.342,386.827
633.793,374.777
635.243,373.024
636.693,394.906
638.144,393.192
639.594,383.978
641.044,381.235
642.495,389.662
643.945,399.252
645.395,370.12
646.846,392.342
648.296,402.622
649.746,401.54
651.197,399.702
652.647,395.282
654.097,396.688
655.547,403.714
656.998,404.078
658.448,397.499
659.898,391.586
661.349,393.737
662.799,389.165
664.249,400.177
665.7,403.383
667.15,396.569
668.6,398.193
670.051,416.24
671.501,406.036
672.951,402.868
674.402,406.871
675.852,410.74
677.302,402.995
678.753,390.716
680.203,403.867
681.653,408.806
683.104,413.431
684.554,403.549
686.004,403.139
687.455,409.032
688.905,399.128
690.355,406.535
691.806,419.339
693.256,407.15
694.706,411.322
696.157,418.508
697.607,411.074
699.057,425.623
700.508,410.067
701.958,403.82
703.408,404.163
704.859,405.797
706.309,401.07
707.759,389.87
709.21,419.561
710.66,417.884
712.11,412.928
713.561,407.823
715.011,407.811
716.461,413.99
717.912,413.742
719.362,403.823
720.812,425.299
722.263,428.84
723.713,429.235
725.163,428.119
726.613,405.399
728.064,410.357
729.514,402.291
730.964,406.949
732.415,423.467
733.865,424.518
735.315,405.611
736.766,423.058
738.216,420.217
739.666,413.066
741.117,417.012
742.567,425.515
744.017,429.176
745.468,422.332
746.918,403.497
748.368,405.205
749.819,414.463
751.269,441.721
752.719,445.635
754.17,422.688
755.62,436.444
757.07,452.453
758.521,443.896
759.971,428.188
761.421,413.383
762.872,418.12
764.322,438.324
765.772,418.257
767.223,410.778
768.673,433.963
770.123,431.775
771.574,415.338
773.024,413.742
774.474,435.072
775.925,424.034
777.375,442.932
778.825,428.479
780.276,429.268
781.726,431.784
783.176,430.752
784.627,442.062
786.077,430.283
787.527,448.151
788.978,442.129
790.428,436.297
791.878,434.512
793.328,434.825
794.779,440.151
796.229,442.295
797.68,427.343
799.13,427.997
800.58,437.775
802.03,448.148
803.481,446.323
804.931,420.997
806.381,429.223
807.832,443.377
809.282,449.446
810.732,447.248
812.183,442.645
813.633,436.72
815.083,422.537
816.534,435.787
817.984,424.613
819.434,444.217
820.885,451.304
822.335,447.271
823.785,456.715
825.236,475.076
826.686,458.584
828.136,467.151
829.587,486.247
831.037,477.572
832.487,461.359
833.938,460.253
835.388,443.73
836.838,481.417
838.289,467.272
839.739,455.774
841.189,451.204
842.64,455.651
844.09,462.064
845.54,453.408
846.991,472.811
848.441,459.529
849.891,480.543
851.342,475.284
852.792,451.068
854.242,446.406
855.693,467.19
857.143,442.007
858.593,473.268
860.044,487.297
861.494,494.354
862.944,485.223
864.394,469.416
865.845,475.08
867.295,460.674
868.745,474.901
870.196,468.091
871.646,467.742
873.096,464.488
874.547,454.557
875.997,454.608
877.447,482.249
878.898,486.936
880.348,459.607
881.798,456.799
883.249,453.788
884.699,455.628
886.149,474.993
887.6,469.289
889.05,464.59
890.5,469.103
891.951,477.781
893.401,478.942
894.851,490.522
896.302,507.031
897.752,484.112
899.202,472.907
900.653,461.339
902.103,491.122
903.553,489.108
905.004,476.232
906.454,477.403
907.904,483.057
909.355,483.083
910.805,472.939
912.255,499.655
913.706,513.466
915.156,503.484
916.606,500.889
918.057,517.012
919.507,503.895
920.957,483.945
922.408,513.347
923.858,506.466
925.308,488.381
926.759,490.403
928.209,506.849
929.659,505.931
931.109,490.898
932.56,502.159
934.01,487.462
935.46,499.022
936.911,504.711
938.361,511.675
939.811,524.115
941.262,506.215
942.712,508.031
944.162,484.348
945.613,513.294
947.063,500.764
948.513,480.476
949.964,482.588
951.414,502.144
952.864,542.19
954.315,528.734
955.765,502.791
957.215,515.733
958.666,515.428
960.116,506.438
961.566,499.066
963.017,487.949
964.467,503.124
965.917,504.947
967.368,517.775
968.818,509.315
970.268,503.075
971.719,509.669
973.169,515.975
974.619,504.283
976.07,490.728
977.52,519.896
978.97,520.828
980.421,520.048
981.871,523.532
983.321,511.108
984.772,488.831
986.222,504.683
987.672,516.743
989.123,528.428
990.573,522.52
992.023,516.967
993.474,516.817
994.924,517.778
996.374,511.907
997.825,500.307
999.275,524.824
1000.73,538.53
1002.18,545
1003.63,546.806
1005.08,532.327
1006.53,527.296
1007.98,547.398
1009.43,554.146
1010.88,564.404
1012.33,564.17
1013.78,554.805
1015.23,546.395
1016.68,556.242
1018.13,567.377
1019.58,567.017
1021.03,575.765
1022.48,566.639
1023.93,572.144
1025.38,585.89
1026.83,586.85
1028.28,583.52
1029.73,575.725
1031.18,576.689
1032.63,606.225
1034.08,604.9
1035.53,583.958
1036.98,620.971
1038.43,619.399
1039.88,627.747
1041.33,639.518
1042.78,647.572
1044.23,659.44
1045.69,619.361
1047.14,651.371
1048.59,639.225
1050.04,637.792
1051.49,647.263
1052.94,654.562
1054.39,669.901
1055.84,688.292
1057.29,656.497
1058.74,663.496
1060.19,671.941
1061.64,675.747
1063.09,688.118
1064.54,707.096
1065.99,716.723
1067.44,719.971
1068.89,739.061
1070.34,746.357
1071.79,733.814
1073.24,733.64
1074.69,744.457
1076.14,731.141
1077.59,733.679
1079.04,767.559
1080.49,789.103
1081.94,766.86
1083.39,758.734
1084.84,778.819
1086.29,751.262
1087.74,739.94
1089.2,732.832
1090.65,735.856
1092.1,750.201
1093.55,752.148
1095,751.548
1096.45,753.028
1097.9,743.803
1099.35,740.351
1100.8,734.762
1102.25,746.088
1103.7,755.91
1105.15,745.705
1106.6,744.39
1108.05,734.247
1109.5,732.021
1110.95,751.161
1112.4,743.745
1113.85,723.49
1115.3,720.237
1116.75,731.024
1118.2,726.819
1119.65,701.304
1121.1,695.509
1122.55,705.898
1124,699.265
1125.45,704.392
1126.9,698.847
1128.35,700.076
1129.8,706.678
1131.25,696.838
1132.7,689.483
1134.16,695.377
1135.61,679.398
1137.06,679.723
1138.51,681.486
1139.96,675.486
1141.41,691.371
1142.86,699.181
1144.31,671.123
1145.76,695.15
1147.21,696.296
1148.66,700.394
1150.11,677.732
1151.56,673.291
1153.01,659.748
1154.46,665.065
1155.91,685.487
1157.36,687.909
1158.81,682.804
1160.26,666.507
1161.71,664.64
1163.16,668.549
1164.61,664.779
1166.06,669.044
1167.51,673.46
1168.96,669.362
1170.41,671
1171.86,689.132
1173.31,668.327
1174.76,700.427
1176.21,673.069
1177.66,682.69
1179.12,678.876
1180.57,667.935
1182.02,656.974
1183.47,660.647
1184.92,683.164
1186.37,674.531
1187.82,685.383
1189.27,669.307
1190.72,693.803
1192.17,707.727
1193.62,714.041
1195.07,711.365
1196.52,707.733
1197.97,705.549
1199.42,694.33
1200.87,712.492
1202.32,711.367
1203.77,717.358
1205.22,701.872
1206.67,702.978
1208.12,694.287
1209.57,683.162
1211.02,690.702
1212.47,709.928
1213.92,718.825
1215.37,715.91
1216.82,715.91
1218.27,713.16
1219.72,708.649
1221.17,707.904
1222.63,713.346
1224.08,709.157
1225.53,715.684
1226.98,753.843
1228.43,736.894
1229.88,704.534
1231.33,732.367
1232.78,719.588
1234.23,752.93
1235.68,748.855
1237.13,746.811
1238.58,738.114
1240.03,715.277
1241.48,729.651
1242.93,747.54
1244.38,752.918
1245.83,734.46
1247.28,741.805
1248.73,754.367
1250.18,743.915
1251.63,768.82
1253.08,803.767
1254.53,790.811
1255.98,757.713
1257.43,774.181
1258.88,807.447
1260.33,791.222
1261.78,789.578
1263.23,798.706
1264.68,803.383
1266.13,806.171
1267.59,801.623
1269.04,803.073
1270.49,825.031
1271.94,843.771
1273.39,876.71
1274.84,853.247
1276.29,868.51
1277.74,904.179
1279.19,895.255
1280.64,887.796
1282.09,895.892
1283.54,898.555
1284.99,909.57
1286.44,957.074
1287.89,969.611
1289.34,979.491
1290.79,993.124
1292.24,1012.93
1293.69,1024.88
1295.14,1056.7
1296.59,1102.53
1298.04,1122.73
1299.49,1129.59
1300.94,1158.85
1302.39,1188.48
1303.84,1250.43
1305.29,1236.01
1306.74,1240.52
1308.19,1324.96
1309.64,1389.73
1311.09,1414.37
1312.55,1454.47
1314,1496.62
1315.45,1531.78
1316.9,1590.21
1318.35,1645.05
1319.8,1745.51
1321.25,1789.59
1322.7,1841.46
1324.15,1926.88
1325.6,1969.45
1327.05,2015.94
1328.5,2063.04
1329.95,2087.45
1331.4,2088.87
1332.85,2105.08
1334.3,2165.63
1335.75,2149.8
1337.2,2122.39
1338.65,2090.84
1340.1,2088.77
1341.55,2094.25
1343,2016.82
1344.45,1968.27
1345.9,1949.5
1347.35,1889.22
1348.8,1821.79
1350.25,1815.28
1351.7,1774.74
1353.15,1688.29
1354.6,1623.07
1356.06,1567.89
1357.51,1540.28
1358.96,1477.86
1360.41,1418.91
1361.86,1382.6
1363.31,1322.29
1364.76,1255.31
1366.21,1256.35
1367.66,1245.25
1369.11,1193.42
1370.56,1206.05
1372.01,1159.29
1373.46,1154.32
1374.91,1134.49
1376.36,1114.65
1377.81,1101.56
1379.26,1092
1380.71,1070.52
1382.16,1042.03
1383.61,1037.81
1385.06,1039.91
1386.51,1055.19
1387.96,1022.26
1389.41,1055.52
1390.86,1041.6
1392.31,1015.61
1393.76,998.326
1395.21,999.515
1396.66,993.696
1398.11,990.566
1399.56,1005.35
1401.02,1006.16
1402.47,1025.13
1403.92,1034.94
1405.37,988.084
1406.82,1004.25
1408.27,990.049
1409.72,995.733
1411.17,987.603
1412.62,988.553
1414.07,1004.07
1415.52,1006.12
1416.97,1012.7
1418.42,1044.05
1419.87,1019.23
1421.32,1044.91
1422.77,1053.36
1424.22,1027.95
1425.67,1049.36
1427.12,1043.91
1428.57,1045.4
1430.02,1036.16
1431.47,1037.48
1432.92,1049.72
1434.37,1073.2
1435.82,1084.4
1437.27,1043
1438.72,1073.37
1440.17,1085.08
1441.62,1063.09
1443.07,1145.07
1444.53,1128.67
1445.98,1128.2
1447.43,1135.5
1448.88,1132.81
1450.33,1132.08
1451.78,1158.8
1453.23,1183.21
1454.68,1185.02
1456.13,1211.99
1457.58,1201.88
1459.03,1234.02
1460.48,1227.44
1461.93,1244.44
1463.38,1240.57
1464.83,1248.98
1466.28,1300.03
1467.73,1335.24
1469.18,1334.88
1470.63,1327.85
1472.08,1346.75
1473.53,1378
1474.98,1384.19
1476.43,1391.21
1477.88,1412.24
1479.33,1475.81
1480.78,1457.58
1482.23,1462.32
1483.68,1546.96
1485.13,1555.71
1486.58,1584.82
1488.03,1621.54
1489.49,1616.77
1490.94,1655.6
1492.39,1722.16
1493.84,1744.29
1495.29,1818.39
1496.74,1794.14
1498.19,1805.1
1499.64,1922.6
1501.09,1955.22
1502.54,2004.13
1503.99,2058.29
1505.44,2109.14
1506.89,2171.2
1508.34,2238.24
1509.79,2337.18
1511.24,2419.29
1512.69,2501.05
1514.14,2651.17
1515.59,2782.86
1517.04,2870.13
1518.49,2986.5
1519.94,3097.15
1521.39,3334.12
1522.84,3501.12
1524.29,3694.51
1525.74,3911.84
1527.19,4155.09
1528.64,4429.81
1530.09,4730.91
1531.54,5078.61
1532.99,5480.34
1534.45,5876.73
1535.9,6314.64
1537.35,6955.88
1538.8,7589.66
1540.25,8297.25
1541.7,8953.34
1543.15,9680.47
1544.6,10550.1
1546.05,11469.7
1547.5,12517.7
1548.95,13498.3
1550.4,14429.7
1551.85,15450.7
1553.3,16486.3
1554.75,17518.2
1556.2,18589.9
1557.65,19573.9
1559.1,19605.6
1560.55,19629
1562,19674.1
1563.45,19687.5
1564.9,19697.6
1566.35,19685.8
1567.8,19680.8
1569.25,19695.9
1570.7,19692.5
1572.15,19058.8
1573.6,18072.5
1575.05,17053.2
1576.5,16025.5
1577.96,14903.1
1579.41,13753.9
1580.86,12706.7
1582.31,11737.3
1583.76,10726.9
1585.21,9853.39
1586.66,9009.47
1588.11,8288.11
1589.56,7659.85
1591.01,7043.75
1592.46,6531.25
1593.91,6111.98
1595.36,5669.97
1596.81,5299.32
1598.26,4920.46
1599.71,4636.97
1601.16,4445.61
1602.61,4222.5
1604.06,4018.39
1605.51,3845.39
1606.96,3662.68
1608.41,3475.36
1609.86,3329.06
1611.31,3154.3
1612.76,3089.99
1614.21,2885.72
1615.66,2809.08
1617.11,2690.36
1618.56,2618.94
1620.01,2505.3
1621.46,2413.07
1622.92,2320.42
1624.37,2247.37
1625.82,2194.88
1627.27,2131.14
1628.72,2081.99
1630.17,2016.71
1631.62,1978.37
1633.07,1929.86
1634.52,1894.13
1635.97,1832.48
1637.42,1829.02
1638.87,1776.26
1640.32,1729.88
1641.77,1721.81
1643.22,1699.77
1644.67,1673.76
1646.12,1646.63
1647.57,1640.35
1649.02,1616.04
1650.47,1580
1651.92,1572.77
1653.37,1569.29
1654.82,1532.96
1656.27,1510.92
1657.72,1504.79
1659.17,1474.14
1660.62,1447.04
1662.07,1453.17
1663.52,1483.89
1664.97,1468.88
1666.42,1449.18
1667.88,1436.37
1669.33,1424.52
1670.78,1405.23
1672.23,1375.35
1673.68,1382.9
1675.13,1379.16
1676.58,1376.38
1678.03,1357.21
1679.48,1340.33
1680.93,1351.59
1682.38,1348.84
1683.83,1337.93
1685.28,1323.83
1686.73,1333.24
1688.18,1330.27
1689.63,1325.92
1691.08,1313.93
1692.53,1291.38
1693.98,1289.33
1695.43,1312.81
1696.88,1327.29
1698.33,1317.1
1699.78,1320.46
1701.23,1300.7
1702.68,1305.31
1704.13,1289.07
1705.58,1302.6
1707.03,1302.24
1708.48,1272.35
1709.93,1301.93
1711.39,1301.41
1712.84,1300.2
1714.29,1294.55
1715.74,1313.73
1717.19,1328.73
1718.64,1301.53
1720.09,1303.75
1721.54,1308.55
1722.99,1275.76
1724.44,1281.88
1725.89,1317.95
1727.34,1330
1728.79,1330.16
1730.24,1297.87
1731.69,1276
1733.14,1330.28
1734.59,1287.52
1736.04,1277.13
1737.49,1309.38
1738.94,1282.47
1740.39,1278.49
1741.84,1303.21
1743.29,1280.83
1744.74,1272.31
1746.19,1250.53
1747.64,1238.73
1749.09,1257.19
1750.54,1238.86
1751.99,1236.11
1753.44,1255.27
1754.89,1239.37
1756.35,1236.69
1757.8,1265.92
1759.25,1258.66
1760.7,1243.17
1762.15,1248.69
1763.6,1219.35
1765.05,1221.39
1766.5,1240.89
1767.95,1232.75
1769.4,1196.99
1770.85,1192.89
1772.3,1183.69
1773.75,1203.74
1775.2,1195.53
1776.65,1193.62
1778.1,1195.84
1779.55,1202.78
1781,1195.18
1782.45,1199.59
1783.9,1194.8
1785.35,1210.47
1786.8,1214.77
1788.25,1209.63
1789.7,1197.96
1791.15,1194.04
1792.6,1210.93
1794.05,1207.24
1795.5,1200.97
1796.95,1196.22
1798.4,1202.6
1799.85,1215.5
1801.31,1180.57
1802.76,1180.52
1804.21,1156
1805.66,1190.67
1807.11,1132.05
1808.56,1156.69
1810.01,1168.53
1811.46,1170.02
1812.91,1140.83
1814.36,1177.8
1815.81,1202.19
1817.26,1212.37
1818.71,1211.18
1820.16,1196.19
1821.61,1184.76
1823.06,1170.59
1824.51,1181.23
1825.96,1184.49
1827.41,1172.43
1828.86,1192.29
1830.31,1202.01
1831.76,1192.22
1833.21,1203.33
1834.66,1188.04
1836.11,1187.63
1837.56,1172.97
1839.01,1209.72
1840.46,1237.06
1841.91,1185.13
1843.36,1200.34
1844.82,1220.47
1846.27,1202.32
1847.72,1218.79
1849.17,1229.7
1850.62,1218.67
1852.07,1222.17
1853.52,1249.4
1854.97,1250.32
1856.42,1227.44
1857.87,1217.48
1859.32,1253.46
1860.77,1269.29
1862.22,1254.04
1863.67,1237.29
1865.12,1244.37
1866.57,1249.68
1868.02,1235.78
1869.47,1214.54
1870.92,1203.96
1872.37,1221.21
1873.82,1237.35
1875.27,1224.64
1876.72,1208.66
1878.17,1221.48
1879.62,1209.63
1881.07,1199.61
1882.52,1185.31
1883.97,1188.48
1885.42,1189.68
1886.87,1200.34
1888.32,1196.19
1889.78,1180.63
1891.23,1191.19
1892.68,1185.83
1894.13,1194.79
1895.58,1185.88
1897.03,1198.07
1898.48,1196.34
1899.93,1167.58
1901.38,1171.29
1902.83,1162.34
1904.28,1154.44
1905.73,1161.64
1907.18,1179.7
1908.63,1179.58
1910.08,1166.81
1911.53,1147.84
1912.98,1131.06
1914.43,1143.33
1915.88,1152.66
1917.33,1132.43
1918.78,1132.91
1920.23,1154.53
1921.68,1156.53
1923.13,1154.55
1924.58,1150.89
1926.03,1140.01
1927.48,1143.61
1928.93,1156.95
1930.38,1150.94
1931.83,1145.98
1933.29,1113.94
1934.74,1149
1936.19,1157.33
1937.64,1112.49
1939.09,1131.66
1940.54,1120.04
1941.99,1145.99
1943.44,1148.79
1944.89,1150.03
1946.34,1152.48
1947.79,1126.27
1949.24,1150.57
1950.69,1131.68
1952.14,1161.47
1953.59,1167.99
1955.04,1146.26
1956.49,1161.28
1957.94,1154.54
1959.39,1139.21
1960.84,1152.83
1962.29,1148.56
1963.74,1159.1
1965.19,1166.88
1966.64,1165.69
1968.09,1186.66
1969.54,1198.22
1970.99,1200.87
1972.44,1206.84
1973.89,1183.51
1975.34,1183.83
1976.79,1196.25
1978.25,1194.08
1979.7,1179.17
1981.15,1181.14
1982.6,1190.31
1984.05,1177.85
1985.5,1188.28
1986.95,1179.82
1988.4,1164.6
1989.85,1195.91
1991.3,1186.23
1992.75,1186.99
1994.2,1191.67
1995.65,1199.37
1997.1,1203.2
1998.55,1193.62
2000,1182.77
2001.45,1203.73
2002.9,1189.74
2004.35,1180.23
2005.8,1187.25
2007.25,1197.15
2008.7,1203.8
2010.15,1205.48
2011.6,1212.03
2013.05,1173.54
2014.5,1165.24
2015.95,1181.71
2017.4,1166.81
2018.85,1139.34
2020.3,1180.91
2021.75,1185.38
2023.21,1146.36
2024.66,1176.53
2026.11,1162.6
2027.56,1178.72
2029.01,1184.58
2030.46,1154.43
2031.91,1157.33
2033.36,1139.03
2034.81,1152.25
2036.26,1173.29
2037.71,1160.32
2039.16,1162.15
2040.61,1175.83
2042.06,1142.96
2043.51,1120.96
2044.96,1137.05
2046.41,1104.22
2047.86,1122.28
2049.31,1137.35
2050.76,1122.64
2052.21,1120.31
2053.66,1147.47
2055.11,1153.95
2056.56,1128.97
2058.01,1119.02
2059.46,1142.44
2060.91,1145.13
2062.36,1130.1
2063.81,1118.04
2065.26,1105.08
2066.72,1109.4
2068.17,1126.3
2069.62,1094.81
2071.07,1099.77
2072.52,1132.2
2073.97,1129.67
2075.42,1119.9
2076.87,1122.36
2078.32,1117.4
2079.77,1096.87
2081.22,1112.59
2082.67,1132.15
2084.12,1126.96
2085.57,1101.44
2087.02,1103.13
2088.47,1081.76
2089.92,1080.35
2091.37,1090.62
2092.82,1109.49
2094.27,1137.42
2095.72,1121.69
2097.17,1112.12
2098.62,1116.04
2100.07,1100.51
2101.52,1087.1
2102.97,1097.84
2104.42,1086.99
2105.87,1105.47
2107.32,1113.05
2108.77,1117.97
2110.22,1120.23
2111.68,1128.83
2113.13,1114.92
2114.58,1108.03
2116.03,1126.92
2117.48,1127.62
2118.93,1109.7
2120.38,1130.36
2121.83,1129.01
2123.28,1096.19
2124.73,1116.28
2126.18,1130.19
2127.63,1122.15
2129.08,1126.27
2130.53,1134.61
2131.98,1142.33
2133.43,1141.56
2134.88,1141.47
2136.33,1134.45
2137.78,1143.99
2139.23,1143.6
2140.68,1141.92
2142.13,1130.76
2143.58,1128.93
2145.03,1166.41
2146.48,1168.53
2147.93,1154.69
2149.38,1139.28
2150.83,1141.71
2152.28,1159.08
2153.73,1159.92
2155.18,1145.75
2156.64,1152.51
2158.09,1153.91
2159.54,1149.9
2160.99,1163.56
2162.44,1165.49
2163.89,1166.68
2165.34,1156.2
2166.79,1163.63
2168.24,1200.04
2169.69,1190.25
2171.14,1174.53
2172.59,1176.03
2174.04,1178.42
2175.49,1187.55
2176.94,1190.65
2178.39,1181.46
2179.84,1183.23
2181.29,1184.63
2182.74,1191.97
2184.19,1189.49
2185.64,1180.64
2187.09,1188.78
2188.54,1199.06
2189.99,1199.41
2191.44,1192.07
2192.89,1206.19
2194.34,1205.66
2195.79,1205.42
2197.24,1216.26
2198.69,1212.4
2200.15,1194.74
2201.6,1197.03
2203.05,1197.74
2204.5,1223.91
2205.95,1217.4
2207.4,1222.9
2208.85,1212.12
2210.3,1221.26
2211.75,1233.7
2213.2,1238.18
2214.65,1227.3
2216.1,1227.43
2217.55,1236.87
2219,1244.87
2220.45,1211.79
2221.9,1240.98
2223.35,1256.77
2224.8,1254.4
2226.25,1233.69
2227.7,1212.48
2229.15,1249.81
2230.6,1269.19
2232.05,1268.36
2233.5,1238.27
2234.95,1247.44
2236.4,1247.65
2237.85,1253.17
2239.3,1223.57
2240.75,1231.92
2242.2,1260.35
2243.65,1278.06
2245.11,1245.62
2246.56,1275.25
2248.01,1263.91
2249.46,1260.17
2250.91,1285.53
2252.36,1272.53
2253.81,1263.66
2255.26,1277.92
2256.71,1258.49
2258.16,1271.67
2259.61,1288.47
2261.06,1279.94
2262.51,1248.76
2263.96,1284.8
2265.41,1297.15
2266.86,1278.84
2268.31,1254.81
2269.76,1274.7
2271.21,1301.96
2272.66,1287.77
2274.11,1285.78
2275.56,1266.92
2277.01,1270.05
2278.46,1307.48
2279.91,1308.04
2281.36,1333.15
2282.81,1340.13
2284.26,1296.39
2285.71,1295.76
2287.16,1315.8
2288.61,1336.62
2290.07,1317.41
2291.52,1295.24
2292.97,1325.48
2294.42,1333.21
2295.87,1339.04
2297.32,1342.26
2298.77,1309.15
2300.22,1342.39
2301.67,1389.18
2303.12,1387.46
2304.57,1367.57
2306.02,1343.18
2307.47,1351.84
2308.92,1347.7
2310.37,1366.36
2311.82,1360.83
2313.27,1380.04
2314.72,1352.32
2316.17,1394.05
2317.62,1366.03
2319.07,1381.16
2320.52,1405.24
2321.97,1385.86
2323.42,1390.37
2324.87,1432.25
2326.32,1402.46
2327.77,1407.68
2329.22,1397.36
2330.67,1436.88
2332.12,1442.71
2333.57,1447.54
2335.03,1451.22
2336.48,1414.94
2337.93,1412.85
2339.38,1442.24
2340.83,1471.73
2342.28,1460.72
2343.73,1474.87
2345.18,1460.7
2346.63,1481
2348.08,1503.53
2349.53,1505.55
2350.98,1501.79
2352.43,1525.25
2353.88,1516.85
2355.33,1522.77
2356.78,1527.03
2358.23,1556.48
2359.68,1540.66
2361.13,1560.75
2362.58,1604.09
2364.03,1614.26
2365.48,1582.53
2366.93,1590.86
2368.38,1629.36
2369.83,1631.41
2371.28,1622.52
2372.73,1633.43
2374.18,1683.98
2375.63,1702.33
2377.08,1712.68
2378.54,1721.38
2379.99,1721.8
2381.44,1736.73
2382.89,1787.88
2384.34,1804.11
2385.79,1790.73
2387.24,1808.59
2388.69,1847.95
2390.14,1877.36
2391.59,1911.56
2393.04,1910.04
2394.49,1919.32
2395.94,1952.64
2397.39,1937.39
2398.84,1944.31
2400.29,2034.07
2401.74,2071.54
2403.19,2080.54
2404.64,2090.09
2406.09,2095.49
2407.54,2154.45
2408.99,2133.18
2410.44,2150.91
2411.89,2143.65
2413.34,2198.78
2414.79,2224.84
2416.24,2185.77
2417.69,2238.79
2419.14,2227.06
2420.59,2247.54
2422.04,2261.35
2423.5,2250.36
2424.95,2272.8
2426.4,2290.53
2427.85,2287.82
2429.3,2257.17
2430.75,2252.05
2432.2,2229.44
2433.65,2242.54
2435.1,2251.22
2436.55,2270.19
2438,2213.06
2439.45,2227.06
2440.9,2233.81
2442.35,2226.19
2443.8,2187.22
2445.25,2176.58
2446.7,2210.09
2448.15,2181.63
2449.6,2169.56
2451.05,2182.15
2452.5,2150.09
2453.95,2164.69
2455.4,2148.4
2456.85,2130.22
2458.3,2095.72
2459.75,2045.83
2461.2,2061.62
2462.65,2062.64
2464.1,2072.93
2465.55,2089.4
2467.01,2107.23
2468.46,2053.49
2469.91,2103.54
2471.36,2097.65
2472.81,2066.2
2474.26,2049.88
2475.71,2039.14
2477.16,2088.85
2478.61,2072.56
2480.06,2058.84
2481.51,2069.45
2482.96,2033.65
2484.41,2060.85
2485.86,2049.22
2487.31,2058.84
2488.76,2057.49
2490.21,2063.89
2491.66,2047.65
2493.11,2062.15
2494.56,2106.86
2496.01,2081.62
2497.46,2089.7
2498.91,2085.96
2500.36,2125.28
2501.81,2112.25
2503.26,2104.32
2504.71,2140.87
2506.16,2158.27
2507.61,2133.34
2509.06,2154.65
2510.51,2155.71
2511.97,2143.71
2513.42,2116.52
2514.87,2183.12
2516.32,2181.53
2517.77,2167.57
2519.22,2197.99
2520.67,2204.75
2522.12,2201.04
2523.57,2239.02
2525.02,2302.54
2526.47,2320.48
2527.92,2325.4
2529.37,2329.47
2530.82,2379.01
2532.27,2397.61
2533.72,2393.65
2535.17,2414.29
2536.62,2421.73
2538.07,2473.97
2539.52,2452.06
2540.97,2503.53
2542.42,2532.3
2543.87,2536.49
2545.32,2592.46
2546.77,2581.69
2548.22,2655.76
2549.67,2719.95
2551.12,2747.17
2552.57,2765.8
2554.02,2768.85
2555.48,2783.2
2556.93,2838.88
2558.38,2905.87
2559.83,2940.88
2561.28,2976.23
2562.73,3019.57
2564.18,3128.19
2565.63,3141.1
2567.08,3223.18
2568.53,3253.89
2569.98,3401.26
2571.43,3460.47
2572.88,3508.38
2574.33,3566.48
2575.78,3651.01
2577.23,3718.1
2578.68,3795.26
2580.13,3890.01
2581.58,3938.99
2583.03,3990.44
2584.48,4127.34
2585.93,4232.46
2587.38,4322.69
2588.83,4506.38
2590.28,4568.09
2591.73,4658.15
2593.18,4839.48
2594.63,5013.51
2596.08,5129.14
2597.53,5291.89
2598.98,5509.33
2600.44,5663.45
2601.89,5819.86
2603.34,6023.61
2604.79,6235.42
2606.24,6381.63
2607.69,6627.01
2609.14,6842.31
2610.59,7103.8
2612.04,7298.01
2613.49,7628.67
2614.94,7795.17
2616.39,8014.51
2617.84,8406.92
2619.29,8639.46
2620.74,8941.46
2622.19,9315.17
2623.64,9622.61
2625.09,9868.23
2626.54,10168.9
2627.99,10474.4
2629.44,10834.5
2630.89,11069.6
2632.34,11390.6
2633.79,11753.4
2635.24,12080.4
2636.69,12429.6
2638.14,12673.5
2639.59,12910.9
2641.04,13238.3
2642.49,13538.7
2643.94,13741.1
2645.4,13950.1
2646.85,14099.8
2648.3,14286.9
2649.75,14398.7
2651.2,14487.2
2652.65,14540
2654.1,14443.6
2655.55,14474.3
2657,14542.5
2658.45,14426.1
2659.9,14392.5
2661.35,14336
2662.8,14199.1
2664.25,13945.1
2665.7,13729.4
2667.15,13564.6
2668.6,13327.4
2670.05,12940.1
2671.5,12589.4
2672.95,12453.8
2674.4,12009.7
2675.85,11810.2
2677.3,11427.2
2678.75,11080.6
2680.2,10761.1
2681.65,10348.7
2683.1,10070.3
2684.55,9776.08
2686,9501.39
2687.45,9156.2
2688.91,8753.37
2690.36,8453.69
2691.81,8091.1
2693.26,7786.25
2694.71,7528.44
2696.16,7268.47
2697.61,6886.58
2699.06,6755.19
2700.51,6568.86
2701.96,6331.43
2703.41,6082.25
2704.86,5842.07
2706.31,5625.21
2707.76,5435.86
2709.21,5228.63
2710.66,5008.57
2712.11,4843.71
2713.56,4708.01
2715.01,4561.92
2716.46,4541.24
2717.91,4321.65
2719.36,4221.16
2720.81,4076.7
2722.26,3904.68
2723.71,3857.48
2725.16,3782.71
2726.61,3648.86
2728.06,3570.01
2729.51,3539.24
2730.96,3397.16
2732.41,3367.05
2733.87,3282.75
2735.32,3161.71
2736.77,3125.9
2738.22,3055.51
2739.67,3028.82
2741.12,2959.53
2742.57,2914.47
2744.02,2897.38
2745.47,2761.76
2746.92,2770.24
2748.37,2712.06
2749.82,2699.03
2751.27,2639.55
2752.72,2584.32
2754.17,2600.26
2755.62,2518.21
2757.07,2462.9
2758.52,2466.79
2759.97,2434.39
2761.42,2409.14
2762.87,2412.88
2764.32,2340.74
2765.77,2337.49
2767.22,2338.87
2768.67,2290.74
2770.12,2263.28
2771.57,2267.11
2773.02,2227.68
2774.47,2225.32
2775.92,2199.67
2777.38,2189.41
2778.83,2168.05
2780.28,2145.72
2781.73,2117.87
2783.18,2070.42
2784.63,2125.5
2786.08,2056.1
2787.53,2066.55
2788.98,2055.45
2790.43,2027.5
2791.88,2029.8
2793.33,2017.13
2794.78,1973.75
2796.23,2000.48
2797.68,1963.23
2799.13,1998.09
2800.58,1956.56
2802.03,1940.98
2803.48,1914.72
2804.93,1963.43
2806.38,1945.15
2807.83,1907.33
2809.28,1897.26
2810.73,1899.64
2812.18,1872.34
2813.63,1898.97
2815.08,1869.18
2816.53,1870.8
2817.98,1865.33
2819.43,1874.19
2820.88,1866.38
2822.33,1839.4
2823.79,1816.54
2825.24,1833.31
2826.69,1841.33
2828.14,1834.45
2829.59,1811.39
2831.04,1820.64
2832.49,1781.95
2833.94,1787
2835.39,1811.89
2836.84,1792.65
2838.29,1749.63
2839.74,1738.71
2841.19,1750.32
2842.64,1780.57
2844.09,1773.1
2845.54,1757.52
2846.99,1714.69
2848.44,1783.5
2849.89,1760.99
2851.34,1756.65
2852.79,1763.78
2854.24,1758.83
2855.69,1749.26
2857.14,1746.27
2858.59,1749.41
2860.04,1711.39
2861.49,1782.38
2862.94,1710.44
2864.39,1727
2865.84,1756.1
2867.3,1762.29
2868.75,1732.25
2870.2,1729.02
2871.65,1723.17
2873.1,1713.22
2874.55,1698.68
2876,1693.16
2877.45,1731.78
2878.9,1740.5
2880.35,1685.35
2881.8,1691.59
2883.25,1720.96
2884.7,1727.27
2886.15,1721.7
2887.6,1713.12
2889.05,1722.98
2890.5,1735.08
2891.95,1711.29
2893.4,1715.31
2894.85,1703.01
2896.3,1710.04
2897.75,1709.08
2899.2,1712.01
2900.65,1715.31
2902.1,1712.18
2903.55,1685.31
2905,1696.1
2906.45,1708.28
2907.9,1694.72
2909.35,1686.2
2910.8,1677.47
2912.26,1657.35
2913.71,1674.71
2915.16,1656.44
2916.61,1666.47
2918.06,1631.67
2919.51,1673.76
2920.96,1653.79
2922.41,1676.47
2923.86,1654.15
2925.31,1641.14
2926.76,1657.49
2928.21,1648.06
2929.66,1636.25
2931.11,1621.83
2932.56,1621.93
2934.01,1619.03
2935.46,1586.99
2936.91,1584.37
2938.36,1585.25
2939.81,1582.76
2941.26,1573.3
2942.71,1565.75
2944.16,1588.16
2945.61,1583.17
2947.06,1554.45
2948.51,1553.99
2949.96,1538.09
2951.41,1551.98
2952.86,1561.02
2954.31,1553.32
2955.77,1519.96
2957.22,1517.92
2958.67,1499.75
2960.12,1529.8
2961.57,1488.73
2963.02,1514
2964.47,1506.17
2965.92,1512.06
2967.37,1501.16
2968.82,1500.82
2970.27,1494.59
2971.72,1494.38
2973.17,1476.76
2974.62,1474.11
2976.07,1461.88
2977.52,1455.1
2978.97,1458.4
2980.42,1469.46
2981.87,1456.22
2983.32,1458.01
2984.77,1450.51
2986.22,1456.95
2987.67,1454.21
2989.12,1476.1
2990.57,1456.84
2992.02,1461.49
2993.47,1462.34
2994.92,1464.03
2996.37,1446.6
2997.82,1464.24
2999.27,1476.37
3000.73,1441.08
3002.18,1454.68
3003.63,1418.2
3005.08,1456.41
3006.53,1460.36
3007.98,1454.21
3009.43,1456.48
3010.88,1442.47
3012.33,1427.46
3013.78,1409.35
3015.23,1425.93
3016.68,1440.01
3018.13,1455.04
3019.58,1407.81
3021.03,1406.95
3022.48,1415.69
3023.93,1431.65
3025.38,1441.37
3026.83,1449.75
3028.28,1446.81
3029.73,1456.62
3031.18,1440.01
3032.63,1422.63
3034.08,1457.8
3035.53,1422.64
3036.98,1434.9
3038.43,1399.65
3039.88,1422.02
3041.33,1481.54
3042.78,1474.93
3044.23,1442.67
3045.69,1442.55
3047.14,1432.32
3048.59,1425.1
3050.04,1438.18
3051.49,1401.83
3052.94,1436.42
3054.39,1442.06
3055.84,1416.08
3057.29,1446
3058.74,1453.88
3060.19,1492.96
3061.64,1462.97
3063.09,1484.16
3064.54,1470.59
3065.99,1460.35
3067.44,1472.06
3068.89,1488.35
3070.34,1486.39
3071.79,1462.11
3073.24,1491.72
3074.69,1505.62
3076.14,1517.6
3077.59,1516.85
3079.04,1536.95
3080.49,1552.84
3081.94,1551.14
3083.39,1498.64
3084.84,1541.98
3086.29,1579.85
3087.74,1542.69
3089.2,1570.99
3090.65,1591.47
3092.1,1627.06
3093.55,1607.43
3095,1613.93
3096.45,1614.38
3097.9,1626.76
3099.35,1619.15
3100.8,1628.47
3102.25,1669.33
3103.7,1648.83
3105.15,1710.46
3106.6,1722.38
3108.05,1721.5
3109.5,1715.82
3110.95,1742.64
3112.4,1761.91
3113.85,1778.68
3115.3,1723
3116.75,1773.13
3118.2,1836.89
3119.65,1823.09
3121.1,1852.33
3122.55,1882.69
3124,1872.45
3125.45,1872.04
3126.9,1905.91
3128.35,1909.66
3129.8,1887.12
3131.25,1925.04
3132.7,1927.9
3134.16,1914.74
3135.61,1929.81
3137.06,1906.8
3138.51,1920.13
3139.96,1979.22
3141.41,1986.23
3142.86,1988.15
3144.31,1992.02
3145.76,1968.57
3147.21,1987.82
3148.66,2046.73
3150.11,2028.9
3151.56,2006.17
3153.01,2009.28
3154.46,2024.3
3155.91,1997.4
3157.36,2045.56
3158.81,2033.23
3160.26,2057.09
3161.71,2047.82
3163.16,2034.52
3164.61,2057.5
3166.06,2041.23
3167.51,2060.4
3168.96,2069.1
3170.41,2117.72
3171.86,2149.52
3173.31,2120.6
3174.76,2129.88
3176.21,2138.31
3177.67,2138.09
3179.12,2182.72
3180.57,2165.84
3182.02,2170.28
3183.47,2204.48
3184.92,2212.36
3186.37,2229.69
3187.82,2226.04
3189.27,2202.73
3190.72,2217.8
3192.17,2218.12
3193.62,2215.87
3195.07,2204.05
3196.52,2195.42
3197.97,2199.18
3199.42,2193.21
3200.87,2151.48
3202.32,2188.06
3203.77,2133.91
3205.22,2099.17
3206.67,2072.41
3208.12,2158.84
3209.57,2090.32
3211.02,2044.11
3212.47,2022.65
3213.92,2033.03
3215.37,2014.88
3216.82,1983.96
3218.27,1993.29
3219.72,1955.44
3221.17,1932.82
3222.63,1913.24
3224.08,1908.13
3225.53,1875.4
3226.98,1823.34
3228.43,1818.11
3229.88,1792.37
3231.33,1764.37
3232.78,1720.17
3234.23,1710.05
3235.68,1675.56
3237.13,1613.11
3238.58,1665.78
3240.03,1666.82
3241.48,1630.08
3242.93,1600.7
3244.38,1585.42
3245.83,1546.94
3247.28,1532.82
3248.73,1529.14
3250.18,1549.28
3251.63,1524.08
3253.08,1495.73
3254.53,1491.47
3255.98,1455.76
3257.43,1444.49
3258.88,1462.94
3260.33,1436.79
3261.78,1468.08
3263.23,1454.03
3264.68,1414.19
3266.13,1446.03
3267.59,1476.25
3269.04,1435.19
3270.49,1417.9
3271.94,1444.66
3273.39,1406.46
3274.84,1388.71
3276.29,1444.3
3277.74,1383.94
3279.19,1392.04
3280.64,1421.99
3282.09,1418.51
3283.54,1408.73
3284.99,1381.14
3286.44,1391.65
3287.89,1400.83
3289.34,1364.56
3290.79,1388.64
3292.24,1396.17
3293.69,1393.04
3295.14,1390.49
3296.59,1387.73
3298.04,1371.8
3299.49,1390.97
3300.94,1386.66
3302.39,1418.14
3303.84,1380.39
3305.29,1375.31
3306.74,1392.2
3308.19,1382.63
3309.64,1385.49
3311.09,1400.03
3312.55,1393.11
3314,1419.92
3315.45,1398.31
3316.9,1386.8
3318.35,1377.32
3319.8,1368.33
3321.25,1391.34
3322.7,1372.58
3324.15,1372.81
3325.6,1404.2
3327.05,1404.34
3328.5,1369.97
3329.95,1382.62
3331.4,1413.35
3332.85,1381.72
3334.3,1380.5
3335.75,1369.99
3337.2,1378.05
3338.65,1361.1
3340.1,1391.31
3341.55,1368.19
3343,1370.25
3344.45,1365.91
3345.9,1374.33
3347.35,1309.52
3348.8,1377.98
3350.25,1385.98
3351.7,1400.19
3353.15,1399.63
3354.6,1384.72
3356.06,1375.5
3357.51,1400.89
3358.96,1342.31
3360.41,1355.53
3361.86,1363.64
3363.31,1383.46
3364.76,1346.35
3366.21,1368.92
3367.66,1403.69
3369.11,1397.55
3370.56,1389.44
3372.01,1393.22
3373.46,1354.89
3374.91,1403.51
3376.36,1408.37
3377.81,1389.89
3379.26,1364.02
3380.71,1409.29
3382.16,1420.7
3383.61,1399.36
3385.06,1388.25
3386.51,1373.66
3387.96,1392.12
3389.41,1425.07
3390.86,1421.69
3392.31,1374.87
3393.76,1389.36
3395.21,1402.47
3396.66,1357.6
3398.11,1401.89
3399.56,1396.3
3401.02,1397.78
3402.47,1396.37
3403.92,1379.51
3405.37,1401.6
3406.82,1368.21
3408.27,1417.67
3409.72,1392.33
3411.17,1398.04
3412.62,1372.03
3414.07,1412.05
3415.52,1370.74
3416.97,1406.78
3418.42,1404.79
3419.87,1392.81
3421.32,1385.87
3422.77,1384.66
3424.22,1401.09
3425.67,1429.25
3427.12,1444.77
3428.57,1402.53
3430.02,1409.28
3431.47,1400.38
3432.92,1374.51
3434.37,1395.44
3435.82,1414.8
3437.27,1417.24
3438.72,1424.92
3440.17,1393.98
3441.62,1401.83
3443.07,1408.2
3444.52,1423.5
3445.98,1405.7
3447.43,1365.62
3448.88,1380.15
3450.33,1389.7
3451.78,1401.63
3453.23,1427.4
3454.68,1398.05
3456.13,1406.17
3457.58,1441.58
3459.03,1405.9
3460.48,1397.7
3461.93,1400.88
3463.38,1388.83
3464.83,1417.07
3466.28,1416.22
3467.73,1382.94
3469.18,1427.88
3470.63,1414.34
3472.08,1408.19
3473.53,1400.28
3474.98,1412.49
3476.43,1371.4
3477.88,1437.07
3479.33,1419.84
3480.78,1415.51
3482.23,1430.79
3483.68,1422.66
3485.13,1408.7
3486.58,1418.85
3488.03,1399.78
3489.49,1399.48
3490.94,1401.94
3492.39,1404.17
3493.84,1425.28
3495.29,1400.75
3496.74,1418.97
3498.19,1399.15
3499.64,1448.98
3501.09,1400.07
3502.54,1446.91
3503.99,1429.13
3505.44,1404.85
3506.89,1438.57
3508.34,1434.27
3509.79,1457.41
3511.24,1449.62
3512.69,1447.52
3514.14,1429.11
3515.59,1443.11
3517.04,1488.33
3518.49,1452.87
3519.94,1428.94
3521.39,1400.88
3522.84,1465.26
3524.29,1433.74
3525.74,1417
3527.19,1452.95
3528.64,1437.43
3530.09,1446.92
3531.54,1414.44
3532.99,1418.51
3534.45,1434.6
3535.9,1468.63
3537.35,1431.59
3538.8,1432.14
3540.25,1407.16
3541.7,1412.4
3543.15,1420.35
3544.6,1431.35
3546.05,1472.03
3547.5,1456.16
3548.95,1468.07
3550.4,1460.19
3551.85,1460.19
3553.3,1413.91
3554.75,1424.81
3556.2,1426.67
3557.65,1453.66
3559.1,1439.94
3560.55,1432.37
3562,1414.48
3563.45,1464.17
3564.9,1460.24
3566.35,1433.15
3567.8,1467.04
3569.25,1441.31
3570.7,1457.78
3572.15,1461.38
3573.6,1467.33
3575.05,1458.79
3576.5,1417.57
3577.96,1413.24
3579.41,1449.12
3580.86,1437.55
3582.31,1457.17
3583.76,1468.83
3585.21,1465.4
3586.66,1453.34
3588.11,1475.77
3589.56,1445.97
3591.01,1470.57
3592.46,1487.46
3593.91,1448.08
3595.36,1453.11
3596.81,1474.88
3598.26,1467.06
3599.71,1440.71
3601.16,1460.98
3602.61,1477.68
3604.06,1459.36
3605.51,1456.22
3606.96,1453.69
3608.41,1476.12
3609.86,1463.38
3611.31,1480.91
3612.76,1447.93
3614.21,1446.14
3615.66,1504.69
3617.11,1459.26
3618.56,1476.01
3620.01,1463.89
3621.46,1481.05
3622.92,1479
3624.37,1480
3625.82,1480.39
3627.27,1485.69
3628.72,1441.78
3630.17,1463.82
3631.62,1484.29
3633.07,1452.51
3634.52,1481.05
3635.97,1484.24
3637.42,1480.75
3638.87,1492.94
3640.32,1452.39
3641.77,1511.47
3643.22,1514.4
3644.67,1491.06
3646.12,1491.98
3647.57,1496.54
3649.02,1489.23
3650.47,1506.66
3651.92,1494.39
3653.37,1508.81
3654.82,1500.8
3656.27,1493.2
3657.72,1486.9
3659.17,1508.97
3660.62,1520.84
3662.07,1506.63
3663.52,1502.61
3664.97,1509.59
3666.43,1500.34
3667.88,1527.89
3669.33,1482.71
3670.78,1489.82
3672.23,1506.91
3673.68,1521.63
3675.13,1521.84
3676.58,1527.76
3678.03,1504.54
3679.48,1528.01
3680.93,1538.82
3682.38,1505.54
3683.83,1503.76
3685.28,1501.1
3686.73,1536.29
3688.18,1523.84
3689.63,1527.35
3691.08,1513.2
3692.53,1536.92
3693.98,1520.1
3695.43,1535.21
3696.88,1519.47
3698.33,1502.18
3699.78,1502.33
3701.23,1520.98
3702.68,1527.29
3704.13,1554.83
3705.58,1526.99
3707.03,1554.55
3708.48,1525.19
3709.93,1518.19
3711.39,1535.56
3712.84,1496.65
3714.29,1546.14
3715.74,1531.38
3717.19,1534.96
3718.64,1544.98
3720.09,1533.82
3721.54,1533.12
3722.99,1533.08
3724.44,1541.15
3725.89,1523.92
3727.34,1505.59
3728.79,1510.91
3730.24,1504.61
3731.69,1550.44
3733.14,1544.79
3734.59,1549.39
3736.04,1529.8
3737.49,1535.11
3738.94,1553.88
3740.39,1580.89
3741.84,1528.41
3743.29,1573.9
3744.74,1587.8
3746.19,1544.15
3747.64,1562.67
3749.09,1577.33
3750.54,1537.41
3751.99,1544.66
3753.44,1554.45
3754.89,1558.08
3756.35,1573.61
3757.8,1565.97
3759.25,1565
3760.7,1566.28
3762.15,1560.83
3763.6,1542.8
3765.05,1571.14
3766.5,1570.19
3767.95,1579.26
3769.4,1573.8
3770.85,1568.51
3772.3,1554.34
3773.75,1557.03
3775.2,1568.66
3776.65,1563.57
3778.1,1587.48
3779.55,1565.02
3781,1589.91
3782.45,1608.96
3783.9,1580.42
3785.35,1556.59
3786.8,1616.14
3788.25,1556.04
3789.7,1586.62
3791.15,1561.4
3792.6,1609.55
3794.05,1577.49
3795.5,1556.97
3796.95,1569.64
3798.4,1552.77
3799.85,1588.6
3801.31,1589.46
3802.76,1557.46
3804.21,1627.4
3805.66,1621.17
3807.11,1622.42
3808.56,1606.92
3810.01,1620.77
3811.46,1632.04
3812.91,1628.53
3814.36,1604.39
3815.81,1605.64
3817.26,1613.03
3818.71,1611.86
3820.16,1628.27
3821.61,1632.25
3823.06,1602.05
3824.51,1592.14
3825.96,1623.63
3827.41,1625.05
3828.86,1622.29
3830.31,1638.28
3831.76,1622.75
3833.21,1632.74
3834.66,1657.15
3836.11,1653.37
3837.56,1643.21
3839.01,1632.07
3840.46,1632.74
3841.91,1618.42
3843.36,1615.65
3844.82,1570.02
3846.27,1626.72
3847.72,1647.74
3849.17,1644.01
3850.62,1672.13
3852.07,1652.17
3853.52,1643.21
3854.97,1645.63
3856.42,1643.54
3857.87,1643.23
3859.32,1659.9
3860.77,1652.36
3862.22,1649.49
3863.67,1668.92
3865.12,1665.51
3866.57,1649.69
3868.02,1650.18
3869.47,1686.44
3870.92,1649.02
3872.37,1640.58
3873.82,1666.69
3875.27,1700.3
3876.72,1718.3
3878.17,1710.52
3879.62,1666.3
3881.07,1676.48
3882.52,1675.23
3883.97,1679.8
3885.42,1698.6
3886.87,1697.19
3888.32,1711.49
3889.78,1686.54
3891.23,1701.36
3892.68,1693.31
3894.13,1689.55
3895.58,1703.28
3897.03,1724.54
3898.48,1728.12
3899.93,1741.08
3901.38,1732.17
3902.83,1697.41
3904.28,1735.73
3905.73,1739.88
3907.18,1741.73
3908.63,1710.87
3910.08,1732.15
3911.53,1725.69
3912.98,1753.88
3914.43,1739.26
3915.88,1742.05
3917.33,1723.18
3918.78,1710.17
3920.23,1744.56
3921.68,1755.55
3923.13,1779.1
3924.58,1748.56
3926.03,1763.5
3927.48,1756.35
3928.93,1817.72
3930.38,1754.75
3931.83,1763.31
3933.28,1770.97
3934.74,1779.7
3936.19,1810.75
3937.64,1790.71
3939.09,1763.11
3940.54,1811.9
3941.99,1792.13
3943.44,1779.24
3944.89,1787.5
3946.34,1805.81
3947.79,1825.17
3949.24,1811.85
3950.69,1817.84
3952.14,1828.6
3953.59,1838.38
3955.04,1844.35
3956.49,1790.78
3957.94,1851.95
3959.39,1810.23
3960.84,1805.63
3962.29,1820.18
3963.74,1811.02
3965.19,1796.26
3966.64,1865.03
3968.09,1822.32
3969.54,1856.78
3970.99,1813.69
3972.44,1849.49
3973.89,1843.22
3975.34,1884.13
3976.79,1874.5
3978.25,1886.69
3979.7,1882.07
3981.15,1862.69
3982.6,1873.68
3984.05,1891.04
3985.5,1899.43
3986.95,1924.43
3988.4,1892.39
3989.85,1900.74
3991.3,1893.18
3992.75,1905.41
3994.2,1928.41
3995.65,1887.89
3997.1,1982.6
3998.55,1901.14
4000,1905.22
