0.5,4.97755
1.45033,4.97755
2.90065,4.97755
4.35098,4.97755
5.80131,4.97755
7.25163,4.97755
8.70196,20.8239
10.1523,9.13471
11.6026,7.19786
13.0529,7.99139
14.5033,8.93565
15.9536,8.09834
17.4039,3.24772
18.8542,0.27776
20.3046,0.218952
21.7549,1.93316
23.2052,3.99745
24.6555,3.75473
26.1059,2.67914
27.5562,0.760195
29.0065,0.177093
30.4569,3.66687
31.9072,1.72357
33.3575,1.60466
34.8078,1.39959
36.2582,0.764411
37.7085,1.49359
39.1588,0.204432
40.6091,1.57873
42.0595,4.40623
43.5098,6.91529
44.9601,7.88829
46.4104,7.45956
47.8608,11.5384
49.3111,20.1715
50.7614,30.4376
52.2117,75.7178
53.6621,147.163
55.1124,254.595
56.5627,399.714
58.0131,572.415
59.4634,741.611
60.9137,893.296
62.364,999.589
63.8144,1047.44
65.2647,1135.2
66.715,1172.85
68.1653,1205.44
69.6157,1242.33
71.066,1277.35
72.5163,1292.71
73.9666,1288.18
75.417,1276.7
76.8673,1278.06
78.3176,1331.77
79.7679,1341.94
81.2183,1363.88
82.6686,1402.19
84.1189,1451.52
85.5693,1484.01
87.0196,1493.14
88.4699,1491.95
89.9202,1460.24
91.3706,1371.47
92.8209,1298.12
94.2712,1231.01
95.7215,1156.65
97.1719,1088.73
98.6222,1069.16
100.073,1031.02
101.523,986.659
102.973,946.246
104.423,915.199
105.874,890.226
107.324,869.687
108.774,859.791
110.225,844.576
111.675,815.421
113.125,821.791
114.576,834.584
116.026,827.365
117.476,801.487
118.927,770.513
120.377,779.106
121.827,762.948
123.278,753.895
124.728,753.431
126.178,741.899
127.629,725.716
129.079,708.977
130.529,697.814
131.98,691.138
133.43,676.896
134.88,659.629
136.331,637.31
137.781,627.184
139.231,630.669
140.682,602.654
142.132,610.063
143.582,598.413
145.033,578.943
146.483,566.957
147.933,548.264
149.384,564.427
150.834,559.374
152.284,539.656
153.735,529.42
155.185,551.572
156.635,532.918
158.086,525.805
159.536,535.65
160.986,547.097
162.437,545.373
163.887,526.383
165.337,504.412
166.788,487.17
168.238,478.693
169.688,480.914
171.139,470.243
172.589,464.085
174.039,462.348
175.489,447.53
176.94,476.597
178.39,483.831
179.84,482.021
181.291,477.727
182.741,467.852
184.191,456.296
185.642,445.388
187.092,433.194
188.542,425.983
189.993,446.266
191.443,429.576
192.893,429.439
194.344,439.011
195.794,443.619
197.244,418.4
198.695,424.035
200.145,425.573
201.595,419.663
203.046,409.495
204.496,407.515
205.946,417.625
207.397,423.465
208.847,429.786
210.297,437.063
211.748,427.404
213.198,428.621
214.648,432.332
216.099,431.365
217.549,424.584
218.999,427.558
220.45,436.649
221.9,431.199
223.35,418.872
224.801,411.844
226.251,425.981
227.701,421.753
229.152,430.504
230.602,424.37
232.052,397.087
233.503,418.954
234.953,420.232
236.403,421.239
237.854,422.239
239.304,422.151
240.754,421.654
242.204,417.687
243.655,414.141
245.105,405.155
246.555,392.616
248.006,396.593
249.456,398.227
250.906,404.935
252.357,412.092
253.807,410.742
255.257,385.086
256.708,391.536
258.158,397.468
259.608,400.698
261.059,403.4
262.509,411.876
263.959,376.956
265.41,372.286
266.86,372.58
268.31,374.799
269.761,400.114
271.211,387.638
272.661,382.623
274.112,374.64
275.562,369.523
277.012,383.138
278.463,382.14
279.913,385.126
281.363,381.614
282.814,377.244
284.264,382.515
285.714,369.27
287.165,372.678
288.615,377.206
290.065,370.693
291.516,350.779
292.966,363.283
294.416,376.445
295.867,368.183
297.317,356.374
298.767,357.255
300.218,352.005
301.668,355.449
303.118,356.996
304.569,343.093
306.019,321.466
307.469,341.505
308.919,332.609
310.37,334.756
311.82,333.713
313.27,326.63
314.721,326.125
316.171,325.374
317.621,328.516
319.072,320.581
320.522,312.962
321.972,328.528
323.423,327.275
324.873,316.399
326.323,315.758
327.774,322.74
329.224,326.531
330.674,314.978
332.125,325.613
333.575,326.198
335.025,317.504
336.476,307.39
337.926,306.636
339.376,305.401
340.827,309.6
342.277,312.311
343.727,313.118
345.178,318.587
346.628,301.732
348.078,309.399
349.529,325.465
350.979,333.494
352.429,321.232
353.88,302.602
355.33,312.732
356.78,319.033
358.231,319.731
359.681,318.054
361.131,310.747
362.582,299.166
364.032,293.959
365.482,297.27
366.933,302.718
368.383,296.007
369.833,293.482
371.284,289.355
372.734,289.238
374.184,289.883
375.635,287.749
377.085,305.416
378.535,313.756
379.986,300.08
381.436,289.047
382.886,296.424
384.336,302.992
385.787,295.595
387.237,290.013
388.687,292.785
390.138,300.736
391.588,303.525
393.038,298.974
394.489,287.434
395.939,293.261
397.389,301.48
398.84,293.791
400.29,281.644
401.74,299.595
403.191,290.057
404.641,288.758
406.091,299.165
407.542,283.662
408.992,291.513
410.442,300.605
411.893,302.483
413.343,301.808
414.793,303.02
416.244,289.08
417.694,299.934
419.144,300.793
420.595,291.26
422.045,282.998
423.495,294.418
424.946,291.628
426.396,287.802
427.846,281.035
429.297,285.384
430.747,304.694
432.197,283.596
433.648,294.389
435.098,290.671
436.548,282.853
437.999,280.419
439.449,283.755
440.899,273.08
442.35,287.521
443.8,286.893
445.25,279.899
446.701,284.891
448.151,299.151
449.601,297.11
451.051,294.309
452.502,292.301
453.952,286.035
455.402,271.188
456.853,288.775
458.303,283.813
459.753,284.189
461.204,284.971
462.654,281.571
464.104,283.346
465.555,279.522
467.005,284.917
468.455,290.495
469.906,286.094
471.356,272.589
472.806,295.569
474.257,298.483
475.707,292.333
477.157,291.107
478.608,297.641
480.058,301.081
481.508,274.276
482.959,287.119
484.409,289.137
485.859,288.515
487.31,293.074
488.76,280.589
490.21,296.176
491.661,304.114
493.111,294.218
494.561,277.768
496.012,273.452
497.462,287.771
498.912,278.268
500.363,283.518
501.813,285.478
503.263,280.794
504.714,281.539
506.164,291.521
507.614,288.336
509.065,285.374
510.515,285.481
511.965,285.007
513.416,276.509
514.866,282.408
516.316,288.949
517.766,289.796
519.217,286.582
520.667,282.971
522.117,281.213
523.568,287.118
525.018,281.554
526.468,277.174
527.919,276.419
529.369,280.534
530.819,301.604
532.27,281.127
533.72,286.672
535.17,286.115
536.621,281.585
538.071,290.542
539.521,293.111
540.972,285.562
542.422,289.753
543.872,286.167
545.323,281.025
546.773,293.485
548.223,287.306
549.674,286.293
551.124,291.066
552.574,293.864
554.025,291.725
555.475,287.83
556.925,286.027
558.376,284.452
559.826,280.949
561.276,280.337
562.727,279.94
564.177,271.796
565.627,282.113
567.078,277.225
568.528,269.559
569.978,268.817
571.429,273.626
572.879,272.846
574.329,281.624
575.78,273.031
577.23,278.434
578.68,284.305
580.131,284.808
581.581,291.854
583.031,276.348
584.482,284.055
585.932,282.65
587.382,280.784
588.832,281.204
590.283,271.883
591.733,271.883
593.183,277.784
594.634,287.676
596.084,281.629
597.534,262.869
598.985,260.014
600.435,262.603
601.885,277.618
603.336,281.479
604.786,283.894
606.236,287.234
607.687,282.806
609.137,280.474
610.587,283.773
612.038,289.316
613.488,289.547
614.938,287.153
616.389,290.028
617.839,283.803
619.289,291.297
620.74,280.269
622.19,278.031
623.64,281.861
625.091,272.578
626.541,271.019
627.991,281.147
629.442,292.789
630.892,294.516
632.342,286.777
633.793,277.843
635.243,276.544
636.693,292.766
638.144,291.495
639.594,284.665
641.044,282.631
642.495,288.879
643.945,295.988
645.395,274.391
646.846,290.865
648.296,298.487
649.746,297.684
651.197,296.322
652.647,293.045
654.097,294.087
655.547,299.296
656.998,299.566
658.448,294.688
659.898,290.305
661.349,291.899
662.799,288.51
664.249,296.674
665.7,299.051
667.15,293.999
668.6,295.203
670.051,308.582
671.501,301.018
672.951,298.669
674.402,301.636
675.852,304.505
677.302,298.763
678.753,289.66
680.203,299.409
681.653,303.071
683.104,306.5
684.554,299.174
686.004,298.87
687.455,303.239
688.905,295.896
690.355,301.387
691.806,310.88
693.256,301.844
694.706,304.936
696.157,310.263
697.607,304.753
699.057,315.539
700.508,304.006
701.958,299.375
703.408,299.629
704.859,300.84
706.309,297.336
707.759,289.032
709.21,311.045
710.66,309.801
712.11,306.127
713.561,302.342
715.011,302.333
716.461,306.914
717.912,306.731
719.362,299.377
720.812,315.298
722.263,317.923
723.713,318.216
725.163,317.389
726.613,300.545
728.064,304.221
729.514,298.241
730.964,301.695
732.415,313.94
733.865,314.719
735.315,300.703
736.766,313.637
738.216,311.531
739.666,306.23
741.117,309.155
742.567,315.458
744.017,318.173
745.468,313.098
746.918,299.135
748.368,300.401
749.819,307.265
751.269,327.473
752.719,330.375
754.17,313.362
755.62,323.561
757.07,335.429
758.521,329.085
759.971,317.44
761.421,306.464
762.872,309.976
764.322,324.955
765.772,310.077
767.223,304.533
768.673,321.722
770.123,320.1
771.574,307.914
773.024,306.731
774.474,322.544
775.925,314.361
777.375,328.371
778.825,317.656
780.276,318.241
781.726,320.106
783.176,319.341
784.627,327.726
786.077,318.994
787.527,332.24
788.978,327.776
790.428,323.451
791.878,322.128
793.328,322.36
794.779,326.309
796.229,327.898
797.68,316.813
799.13,317.298
800.58,324.548
802.03,332.237
803.481,330.884
804.931,312.109
806.381,318.207
807.832,328.701
809.282,333.2
810.732,331.57
812.183,328.158
813.633,323.765
815.083,313.251
816.534,323.073
817.984,314.79
819.434,329.323
820.885,334.577
822.335,331.588
823.785,338.589
825.236,352.201
826.686,339.974
828.136,346.326
829.587,360.482
831.037,354.051
832.487,342.031
833.938,341.212
835.388,328.962
836.838,356.902
838.289,346.415
839.739,337.891
841.189,334.503
842.64,337.8
844.09,342.555
845.54,336.137
846.991,350.522
848.441,340.675
849.891,356.253
851.342,352.355
852.792,334.402
854.242,330.946
855.693,346.354
857.143,327.685
858.593,350.861
860.044,361.261
861.494,366.493
862.944,359.723
864.394,348.005
865.845,352.203
867.295,341.524
868.745,352.071
870.196,347.022
871.646,346.763
873.096,344.351
874.547,336.989
875.997,337.026
877.447,357.518
878.898,360.993
880.348,340.733
881.798,338.651
883.249,336.419
884.699,337.783
886.149,352.139
887.6,347.91
889.05,344.427
890.5,347.773
891.951,354.206
893.401,355.067
894.851,363.652
896.302,375.891
897.752,358.9
899.202,350.593
900.653,342.016
902.103,364.097
903.553,362.604
905.004,353.058
906.454,353.926
907.904,358.117
909.355,358.137
910.805,350.616
912.255,370.422
913.706,380.661
915.156,373.261
916.606,371.338
918.057,383.29
919.507,373.566
920.957,358.776
922.408,380.574
923.858,375.472
925.308,362.064
926.759,363.564
928.209,375.756
929.659,375.075
931.109,363.931
932.56,372.279
934.01,361.384
935.46,369.954
936.911,374.171
938.361,379.333
939.811,388.556
941.262,375.286
942.712,376.633
944.162,359.075
945.613,380.534
947.063,371.245
948.513,356.204
949.964,357.77
951.414,372.268
952.864,401.956
954.315,391.981
955.765,372.747
957.215,382.342
958.666,382.116
960.116,375.451
961.566,369.986
963.017,361.745
964.467,372.994
965.917,374.346
967.368,383.856
968.818,377.584
970.268,372.958
971.719,377.847
973.169,382.522
974.619,373.854
976.07,363.804
977.52,385.428
978.97,386.119
980.421,385.541
981.871,388.124
983.321,378.913
984.772,362.398
986.222,374.15
987.672,383.091
989.123,391.754
990.573,387.374
992.023,383.257
993.474,383.145
994.924,383.858
996.374,379.506
997.825,370.906
999.275,389.082
1000.73,399.243
1002.18,404.039
1003.63,405.378
1005.08,394.645
1006.53,390.914
1007.98,405.817
1009.43,410.82
1010.88,418.425
1012.33,418.251
1013.78,411.308
1015.23,405.073
1016.68,412.374
1018.13,420.629
1019.58,420.362
1021.03,426.847
1022.48,420.082
1023.93,424.163
1025.38,434.354
1026.83,435.065
1028.28,432.596
1029.73,426.818
1031.18,427.532
1032.63,449.429
1034.08,448.447
1035.53,432.921
1036.98,460.361
1038.43,459.196
1039.88,465.385
1041.33,474.111
1042.78,480.082
1044.23,488.88
1045.69,459.167
1047.14,482.898
1048.59,473.894
1050.04,472.831
1051.49,479.852
1052.94,485.264
1054.39,496.635
1055.84,510.27
1057.29,486.699
1058.74,491.887
1060.19,498.148
1061.64,500.969
1063.09,510.141
1064.54,524.211
1065.99,531.347
1067.44,533.755
1068.89,547.908
1070.34,553.317
1071.79,544.018
1073.24,543.889
1074.69,551.909
1076.14,542.036
1077.59,543.918
1079.04,569.035
1080.49,585.007
1081.94,568.516
1083.39,562.492
1084.84,577.383
1086.29,556.953
1087.74,548.559
1089.2,543.29
1090.65,545.532
1092.1,556.167
1093.55,557.61
1095,557.165
1096.45,558.262
1097.9,551.424
1099.35,548.864
1100.8,544.721
1102.25,553.117
1103.7,560.399
1105.15,552.833
1106.6,551.859
1108.05,544.339
1109.5,542.689
1110.95,556.879
1112.4,551.38
1113.85,536.364
1115.3,533.952
1116.75,541.95
1118.2,538.832
1119.65,519.916
1121.1,515.621
1122.55,523.323
1124,518.405
1125.45,522.205
1126.9,518.095
1128.35,519.006
1129.8,523.9
1131.25,516.605
1132.7,511.153
1134.16,515.523
1135.61,503.676
1137.06,503.917
1138.51,505.224
1139.96,500.776
1141.41,512.553
1142.86,518.343
1144.31,497.542
1145.76,515.354
1147.21,516.203
1148.66,519.242
1150.11,502.441
1151.56,499.149
1153.01,489.108
1154.46,493.05
1155.91,508.19
1157.36,509.986
1158.81,506.201
1160.26,494.119
1161.71,492.735
1163.16,495.633
1164.61,492.838
1166.06,496
1167.51,499.274
1168.96,496.236
1170.41,497.45
1171.86,510.892
1173.31,495.469
1174.76,519.266
1176.21,498.984
1177.66,506.117
1179.12,503.29
1180.57,495.178
1182.02,487.052
1183.47,489.775
1184.92,506.468
1186.37,500.068
1187.82,508.113
1189.27,496.195
1190.72,514.356
1192.17,524.678
1193.62,529.359
1195.07,527.375
1196.52,524.683
1197.97,523.063
1199.42,514.746
1200.87,528.211
1202.32,527.376
1203.77,531.818
1205.22,520.338
1206.67,521.158
1208.12,514.714
1209.57,506.467
1211.02,512.057
1212.47,526.31
1213.92,532.906
1215.37,530.744
1216.82,530.744
1218.27,528.706
1219.72,525.361
1221.17,524.809
1222.63,528.844
1224.08,525.738
1225.53,530.577
1226.98,558.866
1228.43,546.301
1229.88,522.311
1231.33,542.945
1232.78,533.471
1234.23,558.189
1235.68,555.169
1237.13,553.653
1238.58,547.206
1240.03,530.276
1241.48,540.931
1242.93,554.194
1244.38,558.181
1245.83,544.497
1247.28,549.942
1248.73,559.255
1250.18,551.507
1251.63,569.97
1253.08,595.878
1254.53,586.273
1255.98,561.736
1257.43,573.944
1258.88,598.607
1260.33,586.578
1261.78,585.359
1263.23,592.126
1264.68,595.593
1266.13,597.66
1267.59,594.289
1269.04,595.364
1270.49,611.642
1271.94,625.536
1273.39,649.955
1274.84,632.561
1276.29,643.876
1277.74,670.319
1279.19,663.703
1280.64,658.174
1282.09,664.176
1283.54,666.15
1284.99,674.316
1286.44,709.533
1287.89,718.827
1289.34,726.153
1290.79,736.259
1292.24,750.943
1293.69,759.805
1295.14,783.391
1296.59,817.366
1298.04,832.346
1299.49,837.428
1300.94,859.119
1302.39,881.087
1303.84,927.012
1305.29,916.328
1306.74,919.667
1308.19,982.267
1309.64,1030.29
1311.09,1048.55
1312.55,1078.28
1314,1109.53
1315.45,1135.6
1316.9,1178.91
1318.35,1219.57
1319.8,1294.05
1321.25,1326.72
1322.7,1365.18
1324.15,1428.51
1325.6,1460.07
1327.05,1494.53
1328.5,1529.45
1329.95,1547.54
1331.4,1548.6
1332.85,1560.61
1334.3,1605.5
1335.75,1593.77
1337.2,1573.45
1338.65,1550.06
1340.1,1548.52
1341.55,1552.59
1343,1495.19
1344.45,1459.19
1345.9,1445.27
1347.35,1400.58
1348.8,1350.6
1350.25,1345.77
1351.7,1315.71
1353.15,1251.63
1354.6,1203.27
1356.06,1162.37
1357.51,1141.9
1358.96,1095.62
1360.41,1051.92
1361.86,1025
1363.31,980.286
1364.76,930.631
1366.21,931.404
1367.66,923.176
1369.11,884.749
1370.56,894.11
1372.01,859.446
1373.46,855.765
1374.91,841.059
1376.36,826.357
1377.81,816.646
1379.26,809.559
1380.71,793.639
1382.16,772.518
1383.61,769.391
1385.06,770.945
1386.51,782.269
1387.96,757.857
1389.41,782.519
1390.86,772.198
1392.31,752.932
1393.76,740.116
1395.21,740.997
1396.66,736.683
1398.11,734.363
1399.56,745.325
1401.02,745.92
1402.47,759.99
1403.92,767.263
1405.37,732.523
1406.82,744.507
1408.27,733.98
1409.72,738.194
1411.17,732.166
1412.62,732.87
1414.07,744.373
1415.52,745.893
1416.97,750.775
1418.42,774.014
1419.87,755.613
1421.32,774.651
1422.77,780.917
1424.22,762.081
1425.67,777.947
1427.12,773.907
1428.57,775.012
1430.02,768.166
1431.47,769.143
1432.92,778.218
1434.37,795.624
1435.82,803.93
1437.27,773.237
1438.72,795.748
1440.17,804.43
1441.62,788.131
1443.07,848.906
1444.53,836.748
1445.98,836.4
1447.43,841.809
1448.88,839.818
1450.33,839.277
1451.78,859.084
1453.23,877.18
1454.68,878.523
1456.13,898.518
1457.58,891.023
1459.03,914.846
1460.48,909.974
1461.93,922.573
1463.38,919.707
1464.83,925.937
1466.28,963.785
1467.73,989.89
1469.18,989.619
1470.63,984.413
1472.08,998.424
1473.53,1021.59
1474.98,1026.18
1476.43,1031.38
1477.88,1046.97
1479.33,1094.1
1480.78,1080.59
1482.23,1084.1
1483.68,1146.85
1485.13,1153.34
1486.58,1174.92
1488.03,1202.14
1489.49,1198.6
1490.94,1227.39
1492.39,1276.74
1493.84,1293.14
1495.29,1348.08
1496.74,1330.1
1498.19,1338.22
1499.64,1425.33
1501.09,1449.52
1502.54,1485.77
1503.99,1525.93
1505.44,1563.63
1506.89,1609.63
1508.34,1659.33
1509.79,1732.68
1511.24,1793.56
1512.69,1854.17
1514.14,1965.47
1515.59,2063.1
1517.04,2127.79
1518.49,2214.06
1519.94,2296.09
1521.39,2471.77
1522.84,2595.58
1524.29,2738.95
1525.74,2900.07
1527.19,3080.4
1528.64,3284.07
1530.09,3507.29
1531.54,3765.06
1532.99,4062.89
1534.45,4356.75
1535.9,4681.4
1537.35,5156.79
1538.8,5626.65
1540.25,6151.22
1541.7,6637.62
1543.15,7176.68
1544.6,7821.39
1546.05,8503.14
1547.5,9280.08
1548.95,10007
1550.4,10697.5
1551.85,11454.5
1553.3,12222.2
1554.75,12987.2
1556.2,13781.7
1557.65,14511.3
1559.1,14534.7
1560.55,14552.1
1562,14585.5
1563.45,14595.5
1564.9,14602.9
1566.35,14594.2
1567.8,14590.5
1569.25,14601.7
1570.7,14599.2
1572.15,14129.3
1573.6,13398.2
1575.05,12642.5
1576.5,11880.6
1577.96,11048.5
1579.41,10196.5
1580.86,9420.18
1582.31,8701.52
1583.76,7952.45
1585.21,7304.88
1586.66,6679.23
1588.11,6144.44
1589.56,5678.68
1591.01,5221.93
1592.46,4841.99
1593.91,4531.16
1595.36,4203.47
1596.81,3928.69
1598.26,3647.81
1599.71,3437.65
1601.16,3295.79
1602.61,3130.38
1604.06,2979.06
1605.51,2850.8
1606.96,2715.35
1608.41,2576.48
1609.86,2468.02
1611.31,2338.46
1612.76,2290.78
1614.21,2139.35
1615.66,2082.53
1617.11,1994.52
1618.56,1941.57
1620.01,1857.32
1621.46,1788.94
1622.92,1720.26
1624.37,1666.1
1625.82,1627.19
1627.27,1579.93
1628.72,1543.5
1630.17,1495.1
1631.62,1466.68
1633.07,1430.72
1634.52,1404.23
1635.97,1358.52
1637.42,1355.95
1638.87,1316.84
1640.32,1282.45
1641.77,1276.48
1643.22,1260.13
1644.67,1240.85
1646.12,1220.74
1647.57,1216.09
1649.02,1198.06
1650.47,1171.35
1651.92,1165.98
1653.37,1163.41
1654.82,1136.47
1656.27,1120.13
1657.72,1115.59
1659.17,1092.86
1660.62,1072.77
1662.07,1077.32
1663.52,1100.09
1664.97,1088.96
1666.42,1074.36
1667.88,1064.86
1669.33,1056.08
1670.78,1041.78
1672.23,1019.62
1673.68,1025.22
1675.13,1022.45
1676.58,1020.39
1678.03,1006.18
1679.48,993.659
1680.93,1002.01
1682.38,999.971
1683.83,991.886
1685.28,981.431
1686.73,988.407
1688.18,986.201
1689.63,982.98
1691.08,974.087
1692.53,957.375
1693.98,955.857
1695.43,973.259
1696.88,983.995
1698.33,976.438
1699.78,978.93
1701.23,964.283
1702.68,967.703
1704.13,955.66
1705.58,965.695
1707.03,965.427
1708.48,943.264
1709.93,965.197
1711.39,964.807
1712.84,963.914
1714.29,959.725
1715.74,973.941
1717.19,985.064
1718.64,964.896
1720.09,966.544
1721.54,970.1
1722.99,945.795
1724.44,950.331
1725.89,977.073
1727.34,986.003
1728.79,986.124
1730.24,962.183
1731.69,945.968
1733.14,986.213
1734.59,954.514
1736.04,946.807
1737.49,970.715
1738.94,950.764
1740.39,947.815
1741.84,966.145
1743.29,949.555
1744.74,943.238
1746.19,927.086
1747.64,918.341
1749.09,932.027
1750.54,918.438
1751.99,916.402
1753.44,930.602
1754.89,918.813
1756.35,916.829
1757.8,938.496
1759.25,933.12
1760.7,921.631
1762.15,925.725
1763.6,903.977
1765.05,905.485
1766.5,919.941
1767.95,913.907
1769.4,887.4
1770.85,884.36
1772.3,877.534
1773.75,892.398
1775.2,886.316
1776.65,884.9
1778.1,886.547
1779.55,891.688
1781,886.055
1782.45,889.322
1783.9,885.773
1785.35,897.388
1786.8,900.575
1788.25,896.77
1789.7,888.115
1791.15,885.211
1792.6,897.733
1794.05,894.995
1795.5,890.35
1796.95,886.826
1798.4,891.559
1799.85,901.122
1801.31,875.226
1802.76,875.189
1804.21,857.008
1805.66,882.712
1807.11,839.252
1808.56,857.522
1810.01,866.295
1811.46,867.4
1812.91,845.761
1814.36,873.168
1815.81,891.253
1817.26,898.8
1818.71,897.918
1820.16,886.806
1821.61,878.327
1823.06,867.824
1824.51,875.711
1825.96,878.133
1827.41,869.19
1828.86,883.912
1830.31,891.121
1831.76,883.863
1833.21,892.095
1834.66,880.758
1836.11,880.46
1837.56,869.586
1839.01,896.836
1840.46,917.103
1841.91,878.603
1843.36,889.879
1844.82,904.803
1846.27,891.344
1847.72,903.555
1849.17,911.643
1850.62,903.466
1852.07,906.063
1853.52,926.251
1854.97,926.936
1856.42,909.972
1857.87,902.591
1859.32,929.264
1860.77,941
1862.22,929.692
1863.67,917.276
1865.12,922.521
1866.57,926.455
1868.02,916.155
1869.47,900.408
1870.92,892.567
1872.37,905.353
1873.82,917.321
1875.27,907.894
1876.72,896.048
1878.17,905.555
1879.62,896.766
1881.07,889.336
1882.52,878.74
1883.97,881.084
1885.42,881.978
1886.87,889.882
1888.32,886.807
1889.78,875.267
1891.23,883.093
1892.68,879.126
1894.13,885.769
1895.58,879.158
1897.03,888.196
1898.48,886.917
1899.93,865.591
1901.38,868.341
1902.83,861.706
1904.28,855.85
1905.73,861.191
1907.18,874.576
1908.63,874.488
1910.08,865.022
1911.53,850.958
1912.98,838.515
1914.43,847.615
1915.88,854.533
1917.33,839.535
1918.78,839.889
1920.23,855.918
1921.68,857.398
1923.13,855.933
1924.58,853.217
1926.03,845.156
1927.48,847.826
1928.93,857.71
1930.38,853.255
1931.83,849.577
1933.29,825.826
1934.74,851.818
1936.19,857.997
1937.64,824.751
1939.09,838.965
1940.54,830.351
1941.99,849.585
1943.44,851.664
1944.89,852.583
1946.34,854.401
1947.79,834.966
1949.24,852.986
1950.69,838.979
1952.14,861.063
1953.59,865.895
1955.04,849.784
1956.49,860.922
1957.94,855.926
1959.39,844.559
1960.84,854.66
1962.29,851.492
1963.74,859.304
1965.19,865.076
1966.64,864.189
1968.09,879.74
1969.54,888.305
1970.99,890.273
1972.44,894.702
1973.89,877.401
1975.34,877.642
1976.79,886.852
1978.25,885.241
1979.7,874.183
1981.15,875.643
1982.6,882.448
1984.05,873.21
1985.5,880.937
1986.95,874.671
1988.4,863.381
1989.85,886.595
1991.3,879.42
1992.75,879.982
1994.2,883.455
1995.65,889.159
1997.1,891.998
1998.55,884.897
2000,876.853
2001.45,892.392
2002.9,882.023
2004.35,874.969
2005.8,880.175
2007.25,887.516
2008.7,892.447
2010.15,893.693
2011.6,898.543
2013.05,870.015
2014.5,863.856
2015.95,876.067
2017.4,865.022
2018.85,844.66
2020.3,875.475
2021.75,878.786
2023.21,849.859
2024.66,872.226
2026.11,861.904
2027.56,873.85
2029.01,878.2
2030.46,855.845
2031.91,857.997
2033.36,844.427
2034.81,854.229
2036.26,869.823
2037.71,860.21
2039.16,861.568
2040.61,871.712
2042.06,847.342
2043.51,831.029
2044.96,842.962
2046.41,818.62
2047.86,832.006
2049.31,843.179
2050.76,832.274
2052.21,830.549
2053.66,850.688
2055.11,855.489
2056.56,836.971
2058.01,829.593
2059.46,846.958
2060.91,848.953
2062.36,837.804
2063.81,828.863
2065.26,819.259
2066.72,822.461
2068.17,834.991
2069.62,811.646
2071.07,815.322
2072.52,839.365
2073.97,837.486
2075.42,830.243
2076.87,832.067
2078.32,828.39
2079.77,813.172
2081.22,824.823
2082.67,839.328
2084.12,835.482
2085.57,816.556
2087.02,817.814
2088.47,801.973
2089.92,800.927
2091.37,808.538
2092.82,822.527
2094.27,843.235
2095.72,831.57
2097.17,824.479
2098.62,827.386
2100.07,815.871
2101.52,805.928
2102.97,813.888
2104.42,805.85
2105.87,819.547
2107.32,825.165
2108.77,828.815
2110.22,830.488
2111.68,836.866
2113.13,826.553
2114.58,821.443
2116.03,835.449
2117.48,835.972
2118.93,822.681
2120.38,838.001
2121.83,837
2123.28,812.669
2124.73,827.563
2126.18,837.871
2127.63,831.913
2129.08,834.97
2130.53,841.149
2131.98,846.876
2133.43,846.303
2134.88,846.233
2136.33,841.035
2137.78,848.104
2139.23,847.812
2140.68,846.573
2142.13,838.298
2143.58,836.941
2145.03,864.728
2146.48,866.3
2147.93,856.034
2149.38,844.613
2150.83,846.412
2152.28,859.291
2153.73,859.914
2155.18,849.407
2156.64,854.418
2158.09,855.456
2159.54,852.487
2160.99,862.616
2162.44,864.043
2163.89,864.926
2165.34,857.155
2166.79,862.662
2168.24,889.659
2169.69,882.398
2171.14,870.746
2172.59,871.854
2174.04,873.631
2175.49,880.396
2176.94,882.698
2178.39,875.885
2179.84,877.194
2181.29,878.231
2182.74,883.674
2184.19,881.833
2185.64,875.276
2187.09,881.311
2188.54,888.932
2189.99,889.192
2191.44,883.748
2192.89,894.216
2194.34,893.824
2195.79,893.645
2197.24,901.679
2198.69,898.823
2200.15,885.732
2201.6,887.428
2203.05,887.953
2204.5,907.355
2205.95,902.53
2207.4,906.602
2208.85,898.61
2210.3,905.389
2211.75,914.61
2213.2,917.934
2214.65,909.869
2216.1,909.962
2217.55,916.965
2219,922.894
2220.45,898.37
2221.9,920.007
2223.35,931.717
2224.8,929.956
2226.25,914.603
2227.7,898.881
2229.15,926.557
2230.6,940.919
2232.05,940.304
2233.5,918.001
2234.95,924.796
2236.4,924.957
2237.85,929.043
2239.3,907.099
2240.75,913.292
2242.2,934.372
2243.65,947.497
2245.11,923.447
2246.56,945.415
2248.01,937.004
2249.46,934.235
2250.91,953.035
2252.36,943.396
2253.81,936.826
2255.26,947.395
2256.71,932.993
2258.16,942.759
2259.61,955.219
2261.06,948.89
2262.51,925.776
2263.96,952.497
2265.41,961.652
2266.86,948.077
2268.31,930.264
2269.76,945.01
2271.21,965.217
2272.66,954.695
2274.11,953.221
2275.56,939.238
2277.01,941.558
2278.46,969.306
2279.91,969.725
2281.36,988.338
2282.81,993.514
2284.26,961.087
2285.71,960.623
2287.16,975.477
2288.61,990.916
2290.07,976.673
2291.52,960.233
2292.97,982.655
2294.42,988.381
2295.87,992.709
2297.32,995.096
2298.77,970.545
2300.22,995.187
2301.67,1029.87
2303.12,1028.6
2304.57,1013.85
2306.02,995.776
2307.47,1002.19
2308.92,999.123
2310.37,1012.96
2311.82,1008.86
2313.27,1023.1
2314.72,1002.55
2316.17,1033.49
2317.62,1012.71
2319.07,1023.93
2320.52,1041.79
2321.97,1027.41
2323.42,1030.76
2324.87,1061.81
2326.32,1039.73
2327.77,1043.59
2329.22,1035.94
2330.67,1065.24
2332.12,1069.56
2333.57,1073.14
2335.03,1075.87
2336.48,1048.97
2337.93,1047.43
2339.38,1069.22
2340.83,1091.08
2342.28,1082.92
2343.73,1093.41
2345.18,1082.9
2346.63,1097.95
2348.08,1114.66
2349.53,1116.15
2350.98,1113.36
2352.43,1130.75
2353.88,1124.53
2355.33,1128.92
2356.78,1132.07
2358.23,1153.91
2359.68,1142.18
2361.13,1157.08
2362.58,1189.2
2364.03,1196.74
2365.48,1173.22
2366.93,1179.39
2368.38,1207.93
2369.83,1209.45
2371.28,1202.87
2372.73,1210.95
2374.18,1248.43
2375.63,1262.03
2377.08,1269.71
2378.54,1276.16
2379.99,1276.47
2381.44,1287.54
2382.89,1325.46
2384.34,1337.49
2385.79,1327.57
2387.24,1340.81
2388.69,1369.99
2390.14,1391.79
2391.59,1417.15
2393.04,1416.02
2394.49,1422.9
2395.94,1447.61
2397.39,1436.3
2398.84,1441.43
2400.29,1507.97
2401.74,1535.75
2403.19,1542.42
2404.64,1549.5
2406.09,1553.51
2407.54,1597.22
2408.99,1581.45
2410.44,1594.59
2411.89,1589.21
2413.34,1630.08
2414.79,1649.4
2416.24,1620.43
2417.69,1659.74
2419.14,1651.05
2420.59,1666.23
2422.04,1676.47
2423.5,1668.32
2424.95,1684.95
2426.4,1698.1
2427.85,1696.09
2429.3,1673.37
2430.75,1669.58
2432.2,1652.81
2433.65,1662.52
2435.1,1668.96
2436.55,1683.02
2438,1640.67
2439.45,1651.05
2440.9,1656.05
2442.35,1650.4
2443.8,1621.51
2445.25,1613.62
2446.7,1638.46
2448.15,1617.37
2449.6,1608.42
2451.05,1617.75
2452.5,1593.98
2453.95,1604.81
2455.4,1592.73
2456.85,1579.25
2458.3,1553.68
2459.75,1516.69
2461.2,1528.39
2462.65,1529.15
2464.1,1536.78
2465.55,1548.99
2467.01,1562.21
2468.46,1522.37
2469.91,1559.47
2471.36,1555.11
2472.81,1531.79
2474.26,1519.69
2475.71,1511.73
2477.16,1548.58
2478.61,1536.51
2480.06,1526.34
2481.51,1534.2
2482.96,1507.66
2484.41,1527.82
2485.86,1519.21
2487.31,1526.34
2488.76,1525.33
2490.21,1530.08
2491.66,1518.04
2493.11,1528.79
2494.56,1561.94
2496.01,1543.23
2497.46,1549.22
2498.91,1546.44
2500.36,1575.59
2501.81,1565.93
2503.26,1560.05
2504.71,1587.15
2506.16,1600.05
2507.61,1581.57
2509.06,1597.37
2510.51,1598.15
2511.97,1589.26
2513.42,1569.09
2514.87,1618.47
2516.32,1617.29
2517.77,1606.94
2519.22,1629.5
2520.67,1634.51
2522.12,1631.75
2523.57,1659.92
2525.02,1707
2526.47,1720.31
2527.92,1723.95
2529.37,1726.97
2530.82,1763.7
2532.27,1777.49
2533.72,1774.55
2535.17,1789.85
2536.62,1795.37
2538.07,1834.09
2539.52,1817.85
2540.97,1856.01
2542.42,1877.34
2543.87,1880.45
2545.32,1921.94
2546.77,1913.95
2548.22,1968.86
2549.67,2016.46
2551.12,2036.63
2552.57,2050.45
2554.02,2052.7
2555.48,2063.34
2556.93,2104.63
2558.38,2154.29
2559.83,2180.24
2561.28,2206.45
2562.73,2238.58
2564.18,2319.1
2565.63,2328.68
2567.08,2389.53
2568.53,2412.3
2569.98,2521.54
2571.43,2565.44
2572.88,2600.96
2574.33,2644.04
2575.78,2706.7
2577.23,2756.44
2578.68,2813.64
2580.13,2883.89
2581.58,2920.2
2583.03,2958.34
2584.48,3059.83
2585.93,3137.77
2587.38,3204.65
2588.83,3340.84
2590.28,3386.58
2591.73,3453.35
2593.18,3587.78
2594.63,3716.8
2596.08,3802.52
2597.53,3923.18
2598.98,4084.38
2600.44,4198.63
2601.89,4314.59
2603.34,4465.64
2604.79,4622.67
2606.24,4731.07
2607.69,4912.98
2609.14,5072.59
2610.59,5266.45
2612.04,5410.43
2613.49,5655.56
2614.94,5779
2616.39,5941.61
2617.84,6232.53
2619.29,6404.92
2620.74,6628.81
2622.19,6905.86
2623.64,7133.79
2625.09,7315.88
2626.54,7538.78
2627.99,7765.25
2629.44,8032.21
2630.89,8206.55
2632.34,8444.53
2633.79,8713.47
2635.24,8955.85
2636.69,9214.76
2638.14,9395.61
2639.59,9571.55
2641.04,9814.27
2642.49,10037
2643.94,10187
2645.4,10342
2646.85,10453
2648.3,10591.7
2649.75,10674.5
2651.2,10740.2
2652.65,10779.3
2654.1,10707.9
2655.55,10730.6
2657,10781.2
2658.45,10694.9
2659.9,10670
2661.35,10628.1
2662.8,10526.6
2664.25,10338.3
2665.7,10178.4
2667.15,10056.2
2668.6,9880.34
2670.05,9593.24
2671.5,9333.2
2672.95,9232.75
2674.4,8903.45
2675.85,8755.55
2677.3,8471.65
2678.75,8214.71
2680.2,7977.8
2681.65,7672.07
2683.1,7465.67
2684.55,7247.56
2686,7043.92
2687.45,6788.01
2688.91,6489.37
2690.36,6267.2
2691.81,5998.39
2693.26,5772.39
2694.71,5581.26
2696.16,5388.53
2697.61,5105.41
2699.06,5008.01
2700.51,4869.86
2701.96,4693.85
2703.41,4509.12
2704.86,4331.06
2706.31,4170.29
2707.76,4029.91
2709.21,3876.28
2710.66,3713.14
2712.11,3590.92
2713.56,3490.31
2715.01,3382.01
2716.46,3366.68
2717.91,3203.89
2719.36,3129.38
2720.81,3022.29
2722.26,2894.76
2723.71,2859.77
2725.16,2804.34
2726.61,2705.11
2728.06,2646.65
2729.51,2623.84
2730.96,2518.51
2732.41,2496.19
2733.87,2433.69
2735.32,2343.96
2736.77,2317.41
2738.22,2265.22
2739.67,2245.43
2741.12,2194.07
2742.57,2160.66
2744.02,2147.99
2745.47,2047.45
2746.92,2053.73
2748.37,2010.6
2749.82,2000.94
2751.27,1956.85
2752.72,1915.9
2754.17,1927.72
2755.62,1866.89
2757.07,1825.89
2758.52,1828.77
2759.97,1804.75
2761.42,1786.03
2762.87,1788.81
2764.32,1735.32
2765.77,1732.92
2767.22,1733.93
2768.67,1698.26
2770.12,1677.9
2771.57,1680.74
2773.02,1651.51
2774.47,1649.76
2775.92,1630.74
2777.38,1623.14
2778.83,1607.3
2780.28,1590.74
2781.73,1570.1
2783.18,1534.92
2784.63,1575.75
2786.08,1524.3
2787.53,1532.05
2788.98,1523.82
2790.43,1503.1
2791.88,1504.81
2793.33,1495.41
2794.78,1463.26
2796.23,1483.07
2797.68,1455.45
2799.13,1481.3
2800.58,1450.51
2802.03,1438.96
2803.48,1419.49
2804.93,1455.6
2806.38,1442.05
2807.83,1414.01
2809.28,1406.55
2810.73,1408.31
2812.18,1388.07
2813.63,1407.81
2815.08,1385.73
2816.53,1386.93
2817.98,1382.87
2819.43,1389.45
2820.88,1383.66
2822.33,1363.65
2823.79,1346.7
2825.24,1359.14
2826.69,1365.08
2828.14,1359.98
2829.59,1342.88
2831.04,1349.74
2832.49,1321.06
2833.94,1324.8
2835.39,1343.25
2836.84,1328.99
2838.29,1297.1
2839.74,1289
2841.19,1297.61
2842.64,1320.04
2844.09,1314.5
2845.54,1302.95
2846.99,1271.19
2848.44,1322.21
2849.89,1305.52
2851.34,1302.31
2852.79,1307.59
2854.24,1303.92
2855.69,1296.83
2857.14,1294.61
2858.59,1296.94
2860.04,1268.75
2861.49,1321.38
2862.94,1268.05
2864.39,1280.32
2865.84,1301.9
2867.3,1306.49
2868.75,1284.22
2870.2,1281.82
2871.65,1277.48
2873.1,1270.1
2874.55,1259.33
2876,1255.24
2877.45,1283.87
2878.9,1290.33
2880.35,1249.44
2881.8,1254.07
2883.25,1275.85
2884.7,1280.52
2886.15,1276.39
2887.6,1270.03
2889.05,1277.35
2890.5,1286.31
2891.95,1268.68
2893.4,1271.65
2894.85,1262.54
2896.3,1267.75
2897.75,1267.04
2899.2,1269.21
2900.65,1271.65
2902.1,1269.33
2903.55,1249.42
2905,1257.42
2906.45,1266.45
2907.9,1256.39
2909.35,1250.08
2910.8,1243.6
2912.26,1228.69
2913.71,1241.56
2915.16,1228.01
2916.61,1235.45
2918.06,1209.65
2919.51,1240.85
2920.96,1226.05
2922.41,1242.86
2923.86,1226.32
2925.31,1216.67
2926.76,1228.79
2928.21,1221.8
2929.66,1213.04
2931.11,1202.36
2932.56,1202.43
2934.01,1200.28
2935.46,1176.53
2936.91,1174.58
2938.36,1175.23
2939.81,1173.39
2941.26,1166.38
2942.71,1160.78
2944.16,1177.39
2945.61,1173.7
2947.06,1152.4
2948.51,1152.06
2949.96,1140.27
2951.41,1150.57
2952.86,1157.27
2954.31,1151.57
2955.77,1126.83
2957.22,1125.32
2958.67,1111.85
2960.12,1134.13
2961.57,1103.68
2963.02,1122.42
2964.47,1116.61
2965.92,1120.98
2967.37,1112.89
2968.82,1112.64
2970.27,1108.02
2971.72,1107.87
2973.17,1094.8
2974.62,1092.84
2976.07,1083.77
2977.52,1078.75
2978.97,1081.19
2980.42,1089.39
2981.87,1079.58
2983.32,1080.9
2984.77,1075.35
2986.22,1080.12
2987.67,1078.09
2989.12,1094.31
2990.57,1080.04
2992.02,1083.48
2993.47,1084.12
2994.92,1085.37
2996.37,1072.45
2997.82,1085.52
2999.27,1094.51
3000.73,1068.36
3002.18,1078.44
3003.63,1051.39
3005.08,1079.72
3006.53,1082.65
3007.98,1078.09
3009.43,1079.77
3010.88,1069.38
3012.33,1058.26
3013.78,1044.83
3015.23,1057.12
3016.68,1067.56
3018.13,1078.7
3019.58,1043.69
3021.03,1043.05
3022.48,1049.53
3023.93,1061.36
3025.38,1068.57
3026.83,1074.78
3028.28,1072.6
3029.73,1079.87
3031.18,1067.56
3032.63,1054.68
3034.08,1080.75
3035.53,1054.68
3036.98,1063.77
3038.43,1037.64
3039.88,1054.22
3041.33,1098.35
3042.78,1093.45
3044.23,1069.54
3045.69,1069.45
3047.14,1061.86
3048.59,1056.51
3050.04,1066.2
3051.49,1039.26
3052.94,1064.9
3054.39,1069.08
3055.84,1049.82
3057.29,1072
3058.74,1077.84
3060.19,1106.82
3061.64,1084.58
3063.09,1100.3
3064.54,1090.23
3065.99,1082.64
3067.44,1091.32
3068.89,1103.4
3070.34,1101.95
3071.79,1083.95
3073.24,1105.89
3074.69,1116.2
3076.14,1125.08
3077.59,1124.53
3079.04,1139.43
3080.49,1151.21
3081.94,1149.95
3083.39,1111.03
3084.84,1143.16
3086.29,1171.23
3087.74,1143.69
3089.2,1164.66
3090.65,1179.84
3092.1,1206.23
3093.55,1191.68
3095,1196.5
3096.45,1196.83
3097.9,1206.01
3099.35,1200.37
3100.8,1207.28
3102.25,1237.57
3103.7,1222.37
3105.15,1268.06
3106.6,1276.9
3108.05,1276.24
3109.5,1272.04
3110.95,1291.92
3112.4,1306.2
3113.85,1318.64
3115.3,1277.36
3116.75,1314.52
3118.2,1361.79
3119.65,1351.56
3121.1,1373.24
3122.55,1395.75
3124,1388.16
3125.45,1387.85
3126.9,1412.96
3128.35,1415.74
3129.8,1399.03
3131.25,1427.14
3132.7,1429.26
3134.16,1419.51
3135.61,1430.68
3137.06,1413.62
3138.51,1423.5
3139.96,1467.31
3141.41,1472.51
3142.86,1473.93
3144.31,1476.8
3145.76,1459.41
3147.21,1473.68
3148.66,1517.36
3150.11,1504.14
3151.56,1487.29
3153.01,1489.59
3154.46,1500.73
3155.91,1480.79
3157.36,1516.49
3158.81,1507.35
3160.26,1525.03
3161.71,1518.16
3163.16,1508.31
3164.61,1525.34
3166.06,1513.28
3167.51,1527.49
3168.96,1533.94
3170.41,1569.99
3171.86,1593.56
3173.31,1572.12
3174.76,1579
3176.21,1585.25
3177.67,1585.09
3179.12,1618.18
3180.57,1605.66
3182.02,1608.95
3183.47,1634.31
3184.92,1640.15
3186.37,1653
3187.82,1650.29
3189.27,1633.01
3190.72,1644.18
3192.17,1644.41
3193.62,1642.75
3195.07,1633.99
3196.52,1627.59
3197.97,1630.38
3199.42,1625.95
3200.87,1595.01
3202.32,1622.13
3203.77,1581.99
3205.22,1556.23
3206.67,1536.39
3208.12,1600.47
3209.57,1549.67
3211.02,1515.41
3212.47,1499.5
3213.92,1507.2
3215.37,1493.75
3216.82,1470.82
3218.27,1477.74
3219.72,1449.68
3221.17,1432.91
3222.63,1418.39
3224.08,1414.61
3225.53,1390.34
3226.98,1351.75
3228.43,1347.87
3229.88,1328.78
3231.33,1308.02
3232.78,1275.26
3234.23,1267.76
3235.68,1242.19
3237.13,1195.89
3238.58,1234.94
3240.03,1235.71
3241.48,1208.47
3242.93,1186.69
3244.38,1175.36
3245.83,1146.84
3247.28,1136.37
3248.73,1133.64
3250.18,1148.57
3251.63,1129.89
3253.08,1108.87
3254.53,1105.71
3255.98,1079.24
3257.43,1070.88
3258.88,1084.56
3260.33,1065.18
3261.78,1088.37
3263.23,1077.95
3264.68,1048.42
3266.13,1072.02
3267.59,1094.43
3269.04,1063.99
3270.49,1051.17
3271.94,1071.01
3273.39,1042.69
3274.84,1029.53
3276.29,1070.74
3277.74,1025.99
3279.19,1032
3280.64,1054.2
3282.09,1051.62
3283.54,1044.37
3284.99,1023.92
3286.44,1031.71
3287.89,1038.52
3289.34,1011.63
3290.79,1029.48
3292.24,1035.06
3293.69,1032.74
3295.14,1030.85
3296.59,1028.8
3298.04,1016.99
3299.49,1031.21
3300.94,1028.01
3302.39,1051.35
3303.84,1023.36
3305.29,1019.6
3306.74,1032.11
3308.19,1025.02
3309.64,1027.14
3311.09,1037.92
3312.55,1032.79
3314,1052.67
3315.45,1036.65
3316.9,1028.12
3318.35,1021.08
3319.8,1014.42
3321.25,1031.48
3322.7,1017.57
3324.15,1017.74
3325.6,1041.01
3327.05,1041.12
3328.5,1015.64
3329.95,1025.01
3331.4,1047.79
3332.85,1024.35
3334.3,1023.44
3335.75,1015.65
3337.2,1021.63
3338.65,1009.06
3340.1,1031.46
3341.55,1014.32
3343,1015.84
3344.45,1012.63
3345.9,1018.87
3347.35,970.818
3348.8,1021.57
3350.25,1027.5
3351.7,1038.04
3353.15,1037.63
3354.6,1026.57
3356.06,1019.73
3357.51,1038.56
3358.96,995.127
3360.41,1004.93
3361.86,1010.95
3363.31,1025.64
3364.76,998.127
3366.21,1014.86
3367.66,1040.63
3369.11,1036.08
3370.56,1030.07
3372.01,1032.87
3373.46,1004.45
3374.91,1040.5
3376.36,1044.1
3377.81,1030.4
3379.26,1011.23
3380.71,1044.79
3382.16,1053.24
3383.61,1037.43
3385.06,1029.19
3386.51,1018.37
3387.96,1032.05
3389.41,1056.48
3390.86,1053.98
3392.31,1019.27
3393.76,1030.01
3395.21,1039.73
3396.66,1006.46
3398.11,1039.3
3399.56,1035.16
3401.02,1036.25
3402.47,1035.2
3403.92,1022.71
3405.37,1039.09
3406.82,1014.33
3408.27,1051
3409.72,1032.22
3411.17,1036.44
3412.62,1017.16
3414.07,1046.83
3415.52,1016.21
3416.97,1042.92
3418.42,1041.45
3419.87,1032.57
3421.32,1027.42
3422.77,1026.53
3424.22,1038.71
3425.67,1059.58
3427.12,1071.09
3428.57,1039.78
3430.02,1044.78
3431.47,1038.18
3432.92,1019.01
3434.37,1034.52
3435.82,1048.87
3437.27,1050.68
3438.72,1056.37
3440.17,1033.44
3441.62,1039.26
3443.07,1043.98
3444.52,1055.32
3445.98,1042.13
3447.43,1012.41
3448.88,1023.18
3450.33,1030.26
3451.78,1039.1
3453.23,1058.22
3454.68,1036.45
3456.13,1042.47
3457.58,1068.72
3459.03,1042.27
3460.48,1036.2
3461.93,1038.56
3463.38,1029.62
3464.83,1050.55
3466.28,1049.92
3467.73,1025.25
3469.18,1058.57
3470.63,1048.53
3472.08,1043.97
3473.53,1038.11
3474.98,1047.16
3476.43,1016.7
3477.88,1065.38
3479.33,1052.61
3480.78,1049.4
3482.23,1060.73
3483.68,1054.7
3485.13,1044.35
3486.58,1051.88
3488.03,1037.74
3489.49,1037.51
3490.94,1039.34
3492.39,1040.99
3493.84,1056.64
3495.29,1038.46
3496.74,1051.96
3498.19,1037.27
3499.64,1074.21
3501.09,1037.95
3502.54,1072.68
3503.99,1059.49
3505.44,1041.5
3506.89,1066.49
3508.34,1063.31
3509.79,1080.46
3511.24,1074.69
3512.69,1073.13
3514.14,1059.48
3515.59,1069.86
3517.04,1103.38
3518.49,1077.09
3519.94,1059.35
3521.39,1038.55
3522.84,1086.28
3524.29,1062.91
3525.74,1050.5
3527.19,1077.15
3528.64,1065.65
3530.09,1072.68
3531.54,1048.6
3532.99,1051.62
3534.45,1063.55
3535.9,1088.78
3537.35,1061.32
3538.8,1061.72
3540.25,1043.21
3541.7,1047.09
3543.15,1052.98
3544.6,1061.14
3546.05,1091.3
3547.5,1079.54
3548.95,1088.36
3550.4,1082.52
3551.85,1082.53
3553.3,1048.21
3554.75,1056.29
3556.2,1057.67
3557.65,1077.68
3559.1,1067.51
3560.55,1061.9
3562,1048.63
3563.45,1085.47
3564.9,1082.56
3566.35,1062.48
3567.8,1087.6
3569.25,1068.52
3570.7,1080.73
3572.15,1083.4
3573.6,1087.81
3575.05,1081.48
3576.5,1050.93
3577.96,1047.71
3579.41,1074.31
3580.86,1065.74
3582.31,1080.28
3583.76,1088.93
3585.21,1086.39
3586.66,1077.44
3588.11,1094.08
3589.56,1071.98
3591.01,1090.22
3592.46,1102.74
3593.91,1073.55
3595.36,1077.27
3596.81,1093.41
3598.26,1087.61
3599.71,1068.08
3601.16,1083.11
3602.61,1095.49
3604.06,1081.91
3605.51,1079.58
3606.96,1077.7
3608.41,1094.33
3609.86,1084.89
3611.31,1097.88
3612.76,1073.44
3614.21,1072.11
3615.66,1115.52
3617.11,1081.83
3618.56,1094.25
3620.01,1085.26
3621.46,1097.99
3622.92,1096.47
3624.37,1097.21
3625.82,1097.5
3627.27,1101.43
3628.72,1068.87
3630.17,1085.22
3631.62,1100.39
3633.07,1076.83
3634.52,1097.98
3635.97,1100.35
3637.42,1097.77
3638.87,1106.8
3640.32,1076.74
3641.77,1120.54
3643.22,1122.71
3644.67,1105.41
3646.12,1106.09
3647.57,1109.47
3649.02,1104.05
3650.47,1116.97
3651.92,1107.88
3653.37,1118.56
3654.82,1112.63
3656.27,1106.99
3657.72,1102.32
3659.17,1118.69
3660.62,1127.49
3662.07,1116.95
3663.52,1113.97
3664.97,1119.14
3666.43,1112.29
3667.88,1132.71
3669.33,1099.22
3670.78,1104.49
3672.23,1117.16
3673.68,1128.07
3675.13,1128.22
3676.58,1132.61
3678.03,1115.4
3679.48,1132.8
3680.93,1140.82
3682.38,1116.15
3683.83,1114.82
3685.28,1112.85
3686.73,1138.94
3688.18,1129.71
3689.63,1132.31
3691.08,1121.82
3692.53,1139.41
3693.98,1126.93
3695.43,1138.14
3696.88,1126.47
3698.33,1113.65
3699.78,1113.76
3701.23,1127.59
3702.68,1132.26
3704.13,1152.69
3705.58,1132.04
3707.03,1152.47
3708.48,1130.71
3709.93,1125.52
3711.39,1138.4
3712.84,1109.55
3714.29,1146.24
3715.74,1135.3
3717.19,1137.95
3718.64,1145.38
3720.09,1137.11
3721.54,1136.59
3722.99,1136.56
3724.44,1142.54
3725.89,1129.77
3727.34,1116.18
3728.79,1120.12
3730.24,1115.45
3731.69,1149.43
3733.14,1145.24
3734.59,1148.65
3736.04,1134.13
3737.49,1138.06
3738.94,1151.98
3740.39,1172
3741.84,1133.09
3743.29,1166.82
3744.74,1177.12
3746.19,1144.76
3747.64,1158.49
3749.09,1169.36
3750.54,1139.77
3751.99,1145.14
3753.44,1152.4
3754.89,1155.09
3756.35,1166.61
3757.8,1160.94
3759.25,1160.22
3760.7,1161.17
3762.15,1157.13
3763.6,1143.77
3765.05,1164.77
3766.5,1164.07
3767.95,1170.8
3769.4,1166.75
3770.85,1162.82
3772.3,1152.32
3773.75,1154.31
3775.2,1162.93
3776.65,1159.16
3778.1,1176.89
3779.55,1160.24
3781,1178.69
3782.45,1192.82
3783.9,1171.65
3785.35,1153.99
3786.8,1198.13
3788.25,1153.58
3789.7,1176.25
3791.15,1157.56
3792.6,1193.25
3794.05,1169.48
3795.5,1154.27
3796.95,1163.66
3798.4,1151.15
3799.85,1177.72
3801.31,1178.36
3802.76,1154.63
3804.21,1206.48
3805.66,1201.87
3807.11,1202.79
3808.56,1191.3
3810.01,1201.57
3811.46,1209.92
3812.91,1207.32
3814.36,1189.43
3815.81,1190.35
3817.26,1195.83
3818.71,1194.96
3820.16,1207.13
3821.61,1210.08
3823.06,1187.69
3824.51,1180.35
3825.96,1203.69
3827.41,1204.74
3828.86,1202.7
3830.31,1214.55
3831.76,1203.04
3833.21,1210.44
3834.66,1228.54
3836.11,1225.74
3837.56,1218.21
3839.01,1209.95
3840.46,1210.44
3841.91,1199.83
3843.36,1197.77
3844.82,1163.94
3846.27,1205.98
3847.72,1221.57
3849.17,1218.8
3850.62,1239.64
3852.07,1224.85
3853.52,1218.21
3854.97,1220
3856.42,1218.45
3857.87,1218.22
3859.32,1230.58
3860.77,1224.99
3862.22,1222.86
3863.67,1237.26
3865.12,1234.74
3866.57,1223.01
3868.02,1223.37
3869.47,1250.25
3870.92,1222.52
3872.37,1216.26
3873.82,1235.62
3875.27,1260.53
3876.72,1273.87
3878.17,1268.11
3879.62,1235.33
3881.07,1242.87
3882.52,1241.94
3883.97,1245.33
3885.42,1259.27
3886.87,1258.22
3888.32,1268.83
3889.78,1250.32
3891.23,1261.31
3892.68,1255.35
3894.13,1252.56
3895.58,1262.74
3897.03,1278.5
3898.48,1281.15
3899.93,1290.76
3901.38,1284.15
3902.83,1258.39
3904.28,1286.79
3905.73,1289.87
3907.18,1291.25
3908.63,1268.37
3910.08,1284.14
3911.53,1279.35
3912.98,1300.25
3914.43,1289.41
3915.88,1291.48
3917.33,1277.49
3918.78,1267.85
3920.23,1293.34
3921.68,1301.49
3923.13,1318.95
3924.58,1296.31
3926.03,1307.38
3927.48,1302.08
3928.93,1347.58
3930.38,1300.89
3931.83,1307.24
3933.28,1312.92
3934.74,1319.4
3936.19,1342.41
3937.64,1327.56
3939.09,1307.09
3940.54,1343.27
3941.99,1328.61
3943.44,1319.05
3944.89,1325.17
3946.34,1338.75
3947.79,1353.1
3949.24,1343.23
3950.69,1347.67
3952.14,1355.64
3953.59,1362.9
3955.04,1367.32
3956.49,1327.61
3957.94,1372.95
3959.39,1342.03
3960.84,1338.62
3962.29,1349.41
3963.74,1342.61
3965.19,1331.67
3966.64,1382.65
3968.09,1350.99
3969.54,1376.54
3970.99,1344.59
3972.44,1371.13
3973.89,1366.48
3975.34,1396.81
3976.79,1389.67
3978.25,1398.71
3979.7,1395.29
3981.15,1380.92
3982.6,1389.06
3984.05,1401.93
3985.5,1408.16
3986.95,1426.69
3988.4,1402.94
3989.85,1409.13
3991.3,1403.52
3992.75,1412.59
3994.2,1429.64
3995.65,1399.6
3997.1,1469.81
3998.55,1409.42
4000,1412.45
