0.12,8.67094
1.45033,8.67094
2.90065,8.67094
4.35098,8.67094
5.80131,8.67094
7.25163,8.67094
8.70196,36.2754
10.1523,15.9127
11.6026,12.5387
13.0529,13.9211
14.5033,15.566
15.9536,14.1074
17.4039,5.65756
18.8542,0.483861
20.3046,0.381416
21.7549,3.36759
23.2052,6.96359
24.6555,6.54078
26.1059,4.66709
27.5562,1.32427
29.0065,0.308497
30.4569,6.38773
31.9072,3.00247
33.3575,2.79533
34.8078,2.4381
36.2582,1.33161
37.7085,2.60184
39.1588,0.356123
40.6091,2.75016
42.0595,7.6757
43.5098,12.0465
44.9601,13.7415
46.4104,12.9946
47.8608,20.1
49.3111,35.139
50.7614,53.0225
52.2117,131.901
53.6621,256.359
55.1124,443.507
56.5627,696.305
58.0131,997.153
59.4634,1291.89
60.9137,1556.13
62.364,1741.29
63.8144,1824.66
65.2647,1977.53
66.715,2043.12
68.1653,2099.89
69.6157,2164.14
71.066,2225.15
72.5163,2251.91
73.9666,2244.03
75.417,2224.02
76.8673,2226.4
78.3176,2319.96
79.7679,2337.67
81.2183,2375.89
82.6686,2442.64
84.1189,2528.57
85.5693,2585.17
87.0196,2601.06
88.4699,2598.99
89.9202,2543.75
91.3706,2389.11
92.8209,2261.33
94.2712,2144.42
95.7215,2014.9
97.1719,1896.58
98.6222,1862.48
100.073,1796.05
101.523,1718.77
102.973,1648.37
104.423,1594.29
105.874,1550.78
107.324,1515
108.774,1497.76
110.225,1471.26
111.675,1420.47
113.125,1431.57
114.576,1453.85
116.026,1441.28
117.476,1396.2
118.927,1342.24
120.377,1357.21
121.827,1329.06
123.278,1313.29
124.728,1312.48
126.178,1292.39
127.629,1264.2
129.079,1235.04
130.529,1215.6
131.98,1203.97
133.43,1179.16
134.88,1149.08
136.331,1110.2
137.781,1092.56
139.231,1098.63
140.682,1049.83
142.132,1062.74
143.582,1042.44
145.033,1008.52
146.483,987.644
147.933,955.081
149.384,983.237
150.834,974.434
152.284,940.085
153.735,922.255
155.185,960.844
156.635,928.348
158.086,915.958
159.536,933.107
160.986,953.048
162.437,950.045
163.887,916.964
165.337,878.69
166.788,848.655
168.238,833.888
169.688,837.757
171.139,819.168
172.589,808.441
174.039,805.414
175.489,779.602
176.94,830.237
178.39,842.837
179.84,839.686
181.291,832.205
182.741,815.003
184.191,794.873
185.642,775.869
187.092,754.628
188.542,742.067
189.993,777.399
191.443,748.325
192.893,748.087
194.344,764.762
195.794,772.789
197.244,728.857
198.695,738.673
200.145,741.352
201.595,731.056
203.046,713.345
204.496,709.895
205.946,727.507
207.397,737.679
208.847,748.692
210.297,761.368
211.748,744.542
213.198,746.661
214.648,753.127
216.099,751.442
217.549,739.63
218.999,744.81
220.45,760.646
221.9,751.152
223.35,729.678
224.801,717.436
226.251,742.062
227.701,734.698
229.152,749.943
230.602,739.256
232.052,691.73
233.503,729.823
234.953,732.048
236.403,733.802
237.854,735.545
239.304,735.392
240.754,734.525
242.204,727.615
243.655,721.437
245.105,705.784
246.555,683.94
248.006,690.868
249.456,693.715
250.906,705.4
252.357,717.868
253.807,715.516
255.257,670.823
256.708,682.059
258.158,692.393
259.608,698.02
261.059,702.727
262.509,717.492
263.959,656.661
265.41,648.526
266.86,649.038
268.31,652.903
269.761,697.003
271.211,675.269
272.661,666.534
274.112,652.626
275.562,643.713
277.012,667.43
278.463,665.691
279.913,670.893
281.363,664.775
282.814,657.162
284.264,666.346
285.714,643.272
287.165,649.209
288.615,657.096
290.065,645.75
291.516,611.06
292.966,632.843
294.416,655.771
295.867,641.378
297.317,620.806
298.767,622.342
300.218,613.196
301.668,619.195
303.118,621.891
304.569,597.671
306.019,559.997
307.469,594.906
308.919,579.409
310.37,583.148
311.82,581.331
313.27,568.992
314.721,568.113
316.171,566.804
317.621,572.278
319.072,558.455
320.522,545.182
321.972,572.299
323.423,570.115
324.873,551.171
326.323,550.054
327.774,562.216
329.224,568.819
330.674,548.695
332.125,567.221
333.575,568.24
335.025,553.095
336.476,535.477
337.926,534.163
339.376,532.012
340.827,539.326
342.277,544.048
343.727,545.455
345.178,554.981
346.628,525.62
348.078,538.976
349.529,566.964
350.979,580.949
352.429,559.589
353.88,527.136
355.33,544.783
356.78,555.759
358.231,556.975
359.681,554.052
361.131,541.324
362.582,521.15
364.032,512.08
365.482,517.848
366.933,527.337
368.383,515.646
369.833,511.248
371.284,504.059
372.734,503.856
374.184,504.979
375.635,501.262
377.085,532.038
378.535,546.565
379.986,522.742
381.436,503.523
382.886,516.374
384.336,527.815
385.787,514.929
387.237,505.206
388.687,510.034
390.138,523.885
391.588,528.743
393.038,520.816
394.489,500.713
395.939,510.864
397.389,525.181
398.84,511.786
400.29,490.627
401.74,521.898
403.191,505.282
404.641,503.02
406.091,521.148
407.542,494.142
408.992,507.818
410.442,523.656
411.893,526.929
413.343,525.752
414.793,527.864
416.244,503.579
417.694,522.487
419.144,523.985
420.595,507.377
422.045,492.986
423.495,512.879
424.946,508.019
426.396,501.354
427.846,489.566
429.297,497.142
430.747,530.78
432.197,494.027
433.648,512.829
435.098,506.351
436.548,492.733
437.999,488.493
439.449,494.304
440.899,475.709
442.35,500.864
443.8,499.771
445.25,487.587
446.701,496.282
448.151,521.125
449.601,517.569
451.051,512.689
452.502,509.192
453.952,498.276
455.402,472.412
456.853,503.048
458.303,494.405
459.753,495.06
461.204,496.423
462.654,490.499
464.104,493.591
465.555,486.931
467.005,496.328
468.455,506.044
469.906,498.378
471.356,474.853
472.806,514.884
474.257,519.96
475.707,509.248
477.157,507.111
478.608,518.493
480.058,524.486
481.508,477.791
482.959,500.164
484.409,503.679
485.859,502.596
487.31,510.537
488.76,488.789
490.21,515.942
491.661,529.77
493.111,512.531
494.561,483.874
496.012,476.357
497.462,501.3
498.912,484.745
500.363,493.891
501.813,497.306
503.263,489.145
504.714,490.443
506.164,507.833
507.614,502.283
509.065,497.125
510.515,497.31
511.965,496.485
513.416,481.681
514.866,491.958
516.316,503.353
517.766,504.828
519.217,499.229
520.667,492.938
522.117,489.875
523.568,500.162
525.018,490.469
526.468,482.84
527.919,481.524
529.369,488.694
530.819,525.397
532.27,489.726
533.72,499.384
535.17,498.414
536.621,490.523
538.071,506.126
539.521,510.602
540.972,497.451
542.422,504.752
543.872,498.505
545.323,489.549
546.773,511.254
548.223,500.49
549.674,498.725
551.124,507.04
552.574,511.913
554.025,508.187
555.475,501.402
556.925,498.261
558.376,495.518
559.826,489.415
561.276,488.35
562.727,487.659
564.177,473.471
565.627,491.444
567.078,482.928
568.528,469.574
569.978,468.282
571.429,476.659
572.879,475.3
574.329,490.592
575.78,475.622
577.23,485.034
578.68,495.263
580.131,496.138
581.581,508.412
583.031,481.401
584.482,494.826
585.932,492.379
587.382,489.128
588.832,489.86
590.283,473.622
591.733,473.622
593.183,483.902
594.634,501.134
596.084,490.601
597.534,457.919
598.985,452.947
600.435,457.457
601.885,483.613
603.336,490.34
604.786,494.546
606.236,500.365
607.687,492.651
609.137,488.588
610.587,494.336
612.038,503.992
613.488,504.394
614.938,500.222
616.389,505.232
617.839,494.388
619.289,507.442
620.74,488.231
622.19,484.332
623.64,491.005
625.091,474.834
626.541,472.118
627.991,489.761
629.442,510.041
630.892,513.05
632.342,499.568
633.793,484.006
635.243,481.742
636.693,510.002
638.144,507.787
639.594,495.889
641.044,492.346
642.495,503.229
643.945,515.614
645.395,477.992
646.846,506.69
648.296,519.967
649.746,518.569
651.197,516.195
652.647,510.488
654.097,512.302
655.547,521.377
656.998,521.846
658.448,513.35
659.898,505.714
661.349,508.492
662.799,502.588
664.249,516.808
665.7,520.95
667.15,512.149
668.6,514.246
670.051,537.553
671.501,524.375
672.951,520.284
674.402,525.454
675.852,530.45
677.302,520.448
678.753,504.59
680.203,521.574
681.653,527.953
683.104,533.926
684.554,521.163
686.004,520.634
687.455,528.244
688.905,515.454
690.355,525.019
691.806,541.556
693.256,525.814
694.706,531.202
696.157,540.482
697.607,530.882
699.057,549.671
700.508,529.582
701.958,521.513
703.408,521.956
704.859,524.067
706.309,517.962
707.759,503.497
709.21,541.843
710.66,539.676
712.11,533.276
713.561,526.683
715.011,526.667
716.461,534.647
717.912,534.328
719.362,521.518
720.812,549.252
722.263,553.825
723.713,554.335
725.163,552.894
726.613,523.553
728.064,529.955
729.514,519.539
730.964,525.555
732.415,546.887
733.865,548.244
735.315,523.827
736.766,546.358
738.216,542.69
739.666,533.455
741.117,538.551
742.567,549.531
744.017,554.26
745.468,545.42
746.918,521.096
748.368,523.302
749.819,535.259
751.269,570.461
752.719,575.516
754.17,545.88
755.62,563.646
757.07,584.321
758.521,573.269
759.971,552.983
761.421,533.863
762.872,539.981
764.322,566.074
765.772,540.158
767.223,530.5
768.673,560.442
770.123,557.617
771.574,536.388
773.024,534.328
774.474,561.874
775.925,547.619
777.375,572.025
778.825,553.359
780.276,554.378
781.726,557.627
783.176,556.295
784.627,570.902
786.077,555.69
787.527,578.765
788.978,570.988
790.428,563.456
791.878,561.151
793.328,561.555
794.779,568.433
796.229,571.202
797.68,551.892
799.13,552.737
800.58,565.365
802.03,578.76
803.481,576.404
804.931,543.696
806.381,554.32
807.832,572.6
809.282,580.437
810.732,577.598
812.183,571.654
813.633,564.002
815.083,545.686
816.534,562.797
817.984,548.367
819.434,573.684
820.885,582.837
822.335,577.629
823.785,589.825
825.236,613.537
826.686,592.238
828.136,603.302
829.587,627.963
831.037,616.76
832.487,595.822
833.938,594.394
835.388,573.055
836.838,621.727
838.289,603.458
839.739,588.609
841.189,582.707
842.64,588.451
844.09,596.733
845.54,585.555
846.991,610.613
848.441,593.459
849.891,620.597
851.342,613.805
852.792,582.532
854.242,576.512
855.693,603.352
857.143,570.83
858.593,611.202
860.044,629.32
861.494,638.434
862.944,626.641
864.394,606.227
865.845,613.542
867.295,594.938
868.745,613.311
870.196,604.516
871.646,604.065
873.096,599.863
874.547,587.038
875.997,587.103
877.447,622.8
878.898,628.853
880.348,593.56
881.798,589.933
883.249,586.045
884.699,588.421
886.149,613.429
887.6,606.063
889.05,599.995
890.5,605.823
891.951,617.031
893.401,618.53
894.851,633.485
896.302,654.806
897.752,625.207
899.202,610.736
900.653,595.796
902.103,634.26
903.553,631.659
905.004,615.03
906.454,616.542
907.904,623.844
909.355,623.878
910.805,610.777
912.255,645.279
913.706,663.116
915.156,650.224
916.606,646.874
918.057,667.696
919.507,650.755
920.957,624.991
922.408,662.963
923.858,654.076
925.308,630.72
926.759,633.331
928.209,654.57
929.659,653.384
931.109,633.971
932.56,648.513
934.01,629.534
935.46,644.463
936.911,651.81
938.361,660.802
939.811,676.868
941.262,653.751
942.712,656.097
944.162,625.511
945.613,662.894
947.063,646.712
948.513,620.511
949.964,623.239
951.414,648.494
952.864,700.211
954.315,682.834
955.765,649.33
957.215,666.043
958.666,665.65
960.116,654.039
961.566,644.519
963.017,630.162
964.467,649.76
965.917,652.114
967.368,668.681
968.818,657.754
970.268,649.697
971.719,658.212
973.169,666.356
974.619,651.257
976.07,633.75
977.52,671.42
978.97,672.623
980.421,671.616
981.871,676.116
983.321,660.07
984.772,631.301
986.222,651.773
987.672,667.348
989.123,682.439
990.573,674.809
992.023,667.637
993.474,667.443
994.924,668.685
996.374,661.103
997.825,646.122
999.275,677.784
1000.73,695.484
1002.18,703.84
1003.63,706.173
1005.08,687.474
1006.53,680.977
1007.98,706.938
1009.43,715.652
1010.88,728.9
1012.33,728.598
1013.78,716.503
1015.23,705.642
1016.68,718.359
1018.13,732.739
1019.58,732.274
1021.03,743.572
1022.48,731.786
1023.93,738.896
1025.38,756.648
1026.83,757.888
1028.28,753.587
1029.73,743.52
1031.18,744.765
1032.63,782.909
1034.08,781.199
1035.53,754.153
1036.98,801.954
1038.43,799.923
1039.88,810.705
1041.33,825.906
1042.78,836.307
1044.23,851.634
1045.69,799.873
1047.14,841.213
1048.59,825.528
1050.04,823.677
1051.49,835.907
1052.94,845.335
1054.39,865.143
1055.84,888.895
1057.29,847.834
1058.74,856.872
1060.19,867.779
1061.64,872.693
1063.09,888.67
1064.54,913.18
1065.99,925.612
1067.44,929.807
1068.89,954.461
1070.34,963.884
1071.79,947.685
1073.24,947.46
1074.69,961.43
1076.14,944.232
1077.59,947.509
1079.04,991.264
1080.49,1019.09
1081.94,990.361
1083.39,979.867
1084.84,1005.81
1086.29,970.217
1087.74,955.595
1089.2,946.416
1090.65,950.322
1092.1,968.848
1093.55,971.362
1095,970.587
1096.45,972.498
1097.9,960.585
1099.35,956.126
1100.8,948.909
1102.25,963.536
1103.7,976.221
1105.15,963.041
1106.6,961.343
1108.05,948.244
1109.5,945.369
1110.95,970.088
1112.4,960.51
1113.85,934.352
1115.3,930.15
1116.75,944.081
1118.2,938.651
1119.65,905.699
1121.1,898.216
1122.55,911.633
1124,903.066
1125.45,909.687
1126.9,902.526
1128.35,904.113
1129.8,912.64
1131.25,899.931
1132.7,890.433
1134.16,898.045
1135.61,877.409
1137.06,877.828
1138.51,880.105
1139.96,872.357
1141.41,892.872
1142.86,902.958
1144.31,866.723
1145.76,897.752
1147.21,899.231
1148.66,904.524
1150.11,875.258
1151.56,869.522
1153.01,852.031
1154.46,858.898
1155.91,885.272
1157.36,888.4
1158.81,881.807
1160.26,860.76
1161.71,858.35
1163.16,863.398
1164.61,858.529
1166.06,864.037
1167.51,869.74
1168.96,864.448
1170.41,866.563
1171.86,889.979
1173.31,863.111
1174.76,904.567
1176.21,869.235
1177.66,881.661
1179.12,876.735
1180.57,862.605
1182.02,848.45
1183.47,853.193
1184.92,882.272
1186.37,871.123
1187.82,885.138
1189.27,864.377
1190.72,896.013
1192.17,913.994
1193.62,922.149
1195.07,918.692
1196.52,914.003
1197.97,911.181
1199.42,896.693
1200.87,920.149
1202.32,918.695
1203.77,926.432
1205.22,906.433
1206.67,907.861
1208.12,896.637
1209.57,882.27
1211.02,892.008
1212.47,916.837
1213.92,928.327
1215.37,924.562
1216.82,924.562
1218.27,921.01
1219.72,915.184
1221.17,914.223
1222.63,921.25
1224.08,915.841
1225.53,924.27
1226.98,973.55
1228.43,951.662
1229.88,909.87
1231.33,945.816
1232.78,929.312
1234.23,972.371
1235.68,967.109
1237.13,964.469
1238.58,953.238
1240.03,923.745
1241.48,942.308
1242.93,965.411
1244.38,972.356
1245.83,948.518
1247.28,958.004
1248.73,974.227
1250.18,960.73
1251.63,992.893
1253.08,1038.03
1254.53,1021.29
1255.98,978.549
1257.43,999.816
1258.88,1042.78
1260.33,1021.82
1261.78,1019.7
1263.23,1031.49
1264.68,1037.53
1266.13,1041.13
1267.59,1035.26
1269.04,1037.13
1270.49,1065.49
1271.94,1089.69
1273.39,1132.23
1274.84,1101.93
1276.29,1121.64
1277.74,1167.7
1279.19,1156.18
1280.64,1146.55
1282.09,1157
1283.54,1160.44
1284.99,1174.66
1286.44,1236.01
1287.89,1252.2
1289.34,1264.96
1290.79,1282.57
1292.24,1308.15
1293.69,1323.59
1295.14,1364.67
1296.59,1423.86
1298.04,1449.95
1299.49,1458.81
1300.94,1496.59
1302.39,1534.86
1303.84,1614.86
1305.29,1596.25
1306.74,1602.07
1308.19,1711.12
1309.64,1794.77
1311.09,1826.59
1312.55,1878.38
1314,1932.81
1315.45,1978.22
1316.9,2053.68
1318.35,2124.5
1319.8,2254.25
1321.25,2311.17
1322.7,2378.15
1324.15,2488.48
1325.6,2543.45
1327.05,2603.48
1328.5,2664.31
1329.95,2695.83
1331.4,2697.67
1332.85,2718.6
1334.3,2796.8
1335.75,2776.36
1337.2,2740.96
1338.65,2700.22
1340.1,2697.54
1341.55,2704.62
1343,2604.63
1344.45,2541.92
1345.9,2517.68
1347.35,2439.83
1348.8,2352.75
1350.25,2344.35
1351.7,2291.98
1353.15,2180.35
1354.6,2096.11
1356.06,2024.85
1357.51,1989.19
1358.96,1908.58
1360.41,1832.45
1361.86,1785.56
1363.31,1707.67
1364.76,1621.17
1366.21,1622.52
1367.66,1608.18
1369.11,1541.24
1370.56,1557.55
1372.01,1497.16
1373.46,1490.75
1374.91,1465.13
1376.36,1439.52
1377.81,1422.6
1379.26,1410.26
1380.71,1382.53
1382.16,1345.73
1383.61,1340.29
1385.06,1342.99
1386.51,1362.72
1387.96,1320.19
1389.41,1363.16
1390.86,1345.18
1392.31,1311.61
1393.76,1289.29
1395.21,1290.82
1396.66,1283.31
1398.11,1279.27
1399.56,1298.36
1401.02,1299.4
1402.47,1323.91
1403.92,1336.58
1405.37,1276.06
1406.82,1296.94
1408.27,1278.6
1409.72,1285.94
1411.17,1275.44
1412.62,1276.67
1414.07,1296.7
1415.52,1299.35
1416.97,1307.86
1418.42,1348.34
1419.87,1316.28
1421.32,1349.45
1422.77,1360.37
1424.22,1327.55
1425.67,1355.19
1427.12,1348.15
1428.57,1350.08
1430.02,1338.15
1431.47,1339.85
1432.92,1355.66
1434.37,1385.98
1435.82,1400.45
1437.27,1346.99
1438.72,1386.2
1440.17,1401.32
1441.62,1372.93
1443.07,1478.8
1444.53,1457.62
1445.98,1457.02
1447.43,1466.44
1448.88,1462.97
1450.33,1462.03
1451.78,1496.53
1453.23,1528.06
1454.68,1530.4
1456.13,1565.23
1457.58,1552.17
1459.03,1593.67
1460.48,1585.18
1461.93,1607.13
1463.38,1602.14
1464.83,1612.99
1466.28,1678.92
1467.73,1724.4
1469.18,1723.93
1470.63,1714.86
1472.08,1739.26
1473.53,1779.62
1474.98,1787.61
1476.43,1796.68
1477.88,1823.84
1479.33,1905.94
1480.78,1882.39
1482.23,1888.51
1483.68,1997.82
1485.13,2009.12
1486.58,2046.72
1488.03,2094.14
1489.49,2087.98
1490.94,2138.13
1492.39,2224.09
1493.84,2252.67
1495.29,2348.37
1496.74,2317.04
1498.19,2331.19
1499.64,2482.95
1501.09,2525.07
1502.54,2588.23
1503.99,2658.18
1505.44,2723.85
1506.89,2803.99
1508.34,2890.57
1509.79,3018.35
1511.24,3124.39
1512.69,3229.98
1514.14,3423.86
1515.59,3593.93
1517.04,3706.63
1518.49,3856.91
1519.94,3999.81
1521.39,4305.84
1522.84,4521.52
1524.29,4771.28
1525.74,5051.95
1527.19,5366.09
1528.64,5720.88
1530.09,6109.73
1531.54,6558.77
1532.99,7077.59
1534.45,7589.51
1535.9,8155.04
1537.35,8983.17
1538.8,9801.67
1540.25,10715.5
1541.7,11562.8
1543.15,12501.8
1544.6,13624.9
1546.05,14812.6
1547.5,16166
1548.95,17432.3
1550.4,18635.2
1551.85,19953.9
1553.3,21291.2
1554.75,22623.9
1556.2,24007.9
1557.65,25278.8
1559.1,25319.6
1560.55,25349.8
1562,25408.2
1563.45,25425.4
1564.9,25438.4
1566.35,25423.3
1567.8,25416.8
1569.25,25436.3
1570.7,25431.9
1572.15,24613.4
1573.6,23339.8
1575.05,22023.4
1576.5,20696.1
1577.96,19246.7
1579.41,17762.5
1580.86,16410
1582.31,15158.1
1583.76,13853.2
1585.21,12725.2
1586.66,11635.3
1588.11,10703.7
1589.56,9892.31
1591.01,9096.65
1592.46,8434.79
1593.91,7893.32
1595.36,7322.48
1596.81,6843.81
1598.26,6354.52
1599.71,5988.41
1601.16,5741.29
1602.61,5453.14
1604.06,5189.56
1605.51,4966.13
1606.96,4730.17
1608.41,4488.25
1609.86,4299.32
1611.31,4073.62
1612.76,3990.56
1614.21,3726.76
1615.66,3627.78
1617.11,3474.47
1618.56,3382.23
1620.01,3235.47
1621.46,3116.36
1622.92,2996.7
1624.37,2902.37
1625.82,2834.58
1627.27,2752.26
1628.72,2688.79
1630.17,2604.48
1631.62,2554.97
1633.07,2492.32
1634.52,2446.18
1635.97,2366.55
1637.42,2362.08
1638.87,2293.95
1640.32,2234.05
1641.77,2223.64
1643.22,2195.16
1644.67,2161.57
1646.12,2126.54
1647.57,2118.43
1649.02,2087.03
1650.47,2040.49
1651.92,2031.15
1653.37,2026.67
1654.82,1979.74
1656.27,1951.27
1657.72,1943.36
1659.17,1903.77
1660.62,1868.78
1662.07,1876.7
1663.52,1916.36
1664.97,1896.98
1666.42,1871.55
1667.88,1855
1669.33,1839.7
1670.78,1814.79
1672.23,1776.19
1673.68,1785.95
1675.13,1781.12
1676.58,1777.53
1678.03,1752.77
1679.48,1730.96
1680.93,1745.51
1682.38,1741.96
1683.83,1727.87
1685.28,1709.66
1686.73,1721.81
1688.18,1717.97
1689.63,1712.36
1691.08,1696.87
1692.53,1667.76
1693.98,1665.11
1695.43,1695.43
1696.88,1714.13
1698.33,1700.96
1699.78,1705.3
1701.23,1679.79
1702.68,1685.75
1704.13,1664.77
1705.58,1682.25
1707.03,1681.78
1708.48,1643.18
1709.93,1681.38
1711.39,1680.7
1712.84,1679.15
1714.29,1671.85
1715.74,1696.61
1717.19,1715.99
1718.64,1680.86
1720.09,1683.73
1721.54,1689.92
1722.99,1647.58
1724.44,1655.49
1725.89,1702.07
1727.34,1717.63
1728.79,1717.84
1730.24,1676.13
1731.69,1647.88
1733.14,1717.99
1734.59,1662.77
1736.04,1649.35
1737.49,1691
1738.94,1656.24
1740.39,1651.1
1741.84,1683.03
1743.29,1654.13
1744.74,1643.13
1746.19,1614.99
1747.64,1599.76
1749.09,1623.6
1750.54,1599.93
1751.99,1596.38
1753.44,1621.12
1754.89,1600.58
1756.35,1597.12
1757.8,1634.87
1759.25,1625.5
1760.7,1605.49
1762.15,1612.62
1763.6,1574.74
1765.05,1577.36
1766.5,1602.55
1767.95,1592.04
1769.4,1545.86
1770.85,1540.56
1772.3,1528.67
1773.75,1554.57
1775.2,1543.97
1776.65,1541.5
1778.1,1544.37
1779.55,1553.33
1781,1543.52
1782.45,1549.21
1783.9,1543.02
1785.35,1563.26
1786.8,1568.81
1788.25,1562.18
1789.7,1547.11
1791.15,1542.05
1792.6,1563.86
1794.05,1559.09
1795.5,1551
1796.95,1544.86
1798.4,1553.1
1799.85,1569.76
1801.31,1524.65
1802.76,1524.59
1804.21,1492.92
1805.66,1537.69
1807.11,1461.98
1808.56,1493.81
1810.01,1509.09
1811.46,1511.02
1812.91,1473.32
1814.36,1521.07
1815.81,1552.57
1817.26,1565.72
1818.71,1564.18
1820.16,1544.82
1821.61,1530.05
1823.06,1511.76
1824.51,1525.5
1825.96,1529.72
1827.41,1514.14
1828.86,1539.78
1830.31,1552.34
1831.76,1539.7
1833.21,1554.04
1834.66,1534.29
1836.11,1533.77
1837.56,1514.83
1839.01,1562.3
1840.46,1597.6
1841.91,1530.53
1843.36,1550.18
1844.82,1576.17
1846.27,1552.73
1847.72,1574
1849.17,1588.09
1850.62,1573.85
1852.07,1578.37
1853.52,1613.54
1854.97,1614.73
1856.42,1585.18
1857.87,1572.32
1859.32,1618.79
1860.77,1639.23
1862.22,1619.53
1863.67,1597.9
1865.12,1607.04
1866.57,1613.89
1868.02,1595.95
1869.47,1568.52
1870.92,1554.86
1872.37,1577.13
1873.82,1597.98
1875.27,1581.56
1876.72,1560.92
1878.17,1577.49
1879.62,1562.17
1881.07,1549.23
1882.52,1530.77
1883.97,1534.86
1885.42,1536.41
1886.87,1550.18
1888.32,1544.83
1889.78,1524.72
1891.23,1538.36
1892.68,1531.45
1894.13,1543.02
1895.58,1531.5
1897.03,1547.25
1898.48,1545.02
1899.93,1507.87
1901.38,1512.66
1902.83,1501.1
1904.28,1490.9
1905.73,1500.2
1907.18,1523.52
1908.63,1523.37
1910.08,1506.88
1911.53,1482.38
1912.98,1460.7
1914.43,1476.55
1915.88,1488.6
1917.33,1462.48
1918.78,1463.1
1920.23,1491.02
1921.68,1493.6
1923.13,1491.04
1924.58,1486.31
1926.03,1472.27
1927.48,1476.92
1928.93,1494.14
1930.38,1486.38
1931.83,1479.97
1933.29,1438.6
1934.74,1483.87
1936.19,1494.64
1937.64,1436.72
1939.09,1461.49
1940.54,1446.48
1941.99,1479.99
1943.44,1483.61
1944.89,1485.21
1946.34,1488.37
1947.79,1454.52
1949.24,1485.91
1950.69,1461.51
1952.14,1499.98
1953.59,1508.4
1955.04,1480.33
1956.49,1499.73
1957.94,1491.03
1959.39,1471.23
1960.84,1488.83
1962.29,1483.31
1963.74,1496.92
1965.19,1506.97
1966.64,1505.43
1968.09,1532.52
1969.54,1547.44
1970.99,1550.86
1972.44,1558.58
1973.89,1528.44
1975.34,1528.86
1976.79,1544.9
1978.25,1542.1
1979.7,1522.84
1981.15,1525.38
1982.6,1537.23
1984.05,1521.14
1985.5,1534.6
1986.95,1523.68
1988.4,1504.02
1989.85,1544.46
1991.3,1531.96
1992.75,1532.94
1994.2,1538.99
1995.65,1548.92
1997.1,1553.87
1998.55,1541.5
2000,1527.49
2001.45,1554.56
2002.9,1536.49
2004.35,1524.2
2005.8,1533.27
2007.25,1546.06
2008.7,1554.65
2010.15,1556.82
2011.6,1565.27
2013.05,1515.57
2014.5,1504.85
2015.95,1526.12
2017.4,1506.88
2018.85,1471.41
2020.3,1525.09
2021.75,1530.85
2023.21,1480.46
2024.66,1519.43
2026.11,1501.44
2027.56,1522.25
2029.01,1529.83
2030.46,1490.89
2031.91,1494.64
2033.36,1471
2034.81,1488.08
2036.26,1515.24
2037.71,1498.49
2039.16,1500.86
2040.61,1518.53
2042.06,1476.08
2043.51,1447.66
2044.96,1468.45
2046.41,1426.04
2047.86,1449.36
2049.31,1468.83
2050.76,1449.83
2052.21,1446.82
2053.66,1481.91
2055.11,1490.27
2056.56,1458.01
2058.01,1445.16
2059.46,1475.41
2060.91,1478.88
2062.36,1459.46
2063.81,1443.89
2065.26,1427.16
2066.72,1432.73
2068.17,1454.56
2069.62,1413.89
2071.07,1420.3
2072.52,1462.18
2073.97,1458.91
2075.42,1446.29
2076.87,1449.47
2078.32,1443.06
2079.77,1416.55
2081.22,1436.85
2082.67,1462.12
2084.12,1455.42
2085.57,1422.45
2087.02,1424.64
2088.47,1397.05
2089.92,1395.22
2091.37,1408.48
2092.82,1432.85
2094.27,1468.92
2095.72,1448.6
2097.17,1436.25
2098.62,1441.31
2100.07,1421.25
2101.52,1403.93
2102.97,1417.8
2104.42,1403.8
2105.87,1427.66
2107.32,1437.44
2108.77,1443.8
2110.22,1446.72
2111.68,1457.83
2113.13,1439.86
2114.58,1430.96
2116.03,1455.36
2117.48,1456.27
2118.93,1433.12
2120.38,1459.81
2121.83,1458.06
2123.28,1415.68
2124.73,1441.62
2126.18,1459.58
2127.63,1449.2
2129.08,1454.53
2130.53,1465.29
2131.98,1475.27
2133.43,1474.27
2134.88,1474.15
2136.33,1465.09
2137.78,1477.4
2139.23,1476.9
2140.68,1474.74
2142.13,1460.32
2143.58,1457.96
2145.03,1506.36
2146.48,1509.1
2147.93,1491.22
2149.38,1471.32
2150.83,1474.46
2152.28,1496.89
2153.73,1497.98
2155.18,1479.67
2156.64,1488.4
2158.09,1490.21
2159.54,1485.04
2160.99,1502.69
2162.44,1505.17
2163.89,1506.71
2165.34,1493.17
2166.79,1502.76
2168.24,1549.79
2169.69,1537.15
2171.14,1516.85
2172.59,1518.78
2174.04,1521.87
2175.49,1533.66
2176.94,1537.67
2178.39,1525.8
2179.84,1528.08
2181.29,1529.89
2182.74,1539.37
2184.19,1536.16
2185.64,1524.74
2187.09,1535.25
2188.54,1548.53
2189.99,1548.98
2191.44,1539.5
2192.89,1557.73
2194.34,1557.05
2195.79,1556.74
2197.24,1570.73
2198.69,1565.76
2200.15,1542.95
2201.6,1545.91
2203.05,1546.82
2204.5,1580.62
2205.95,1572.21
2207.4,1579.31
2208.85,1565.39
2210.3,1577.2
2211.75,1593.26
2213.2,1599.05
2214.65,1585
2216.1,1585.16
2217.55,1597.36
2219,1607.69
2220.45,1564.97
2221.9,1602.66
2223.35,1623.06
2224.8,1619.99
2226.25,1593.25
2227.7,1565.86
2229.15,1614.07
2230.6,1639.09
2232.05,1638.02
2233.5,1599.17
2234.95,1611
2236.4,1611.28
2237.85,1618.4
2239.3,1580.18
2240.75,1590.96
2242.2,1627.68
2243.65,1650.55
2245.11,1608.65
2246.56,1646.92
2248.01,1632.27
2249.46,1627.45
2250.91,1660.2
2252.36,1643.4
2253.81,1631.96
2255.26,1650.37
2256.71,1625.28
2258.16,1642.3
2259.61,1664
2261.06,1652.98
2262.51,1612.71
2263.96,1659.26
2265.41,1675.21
2266.86,1651.56
2268.31,1620.53
2269.76,1646.22
2271.21,1681.42
2272.66,1663.09
2274.11,1660.52
2275.56,1636.16
2277.01,1640.2
2278.46,1688.54
2279.91,1689.27
2281.36,1721.69
2282.81,1730.71
2284.26,1674.22
2285.71,1673.41
2287.16,1699.29
2288.61,1726.18
2290.07,1701.37
2291.52,1672.74
2292.97,1711.79
2294.42,1721.77
2295.87,1729.31
2297.32,1733.47
2298.77,1690.7
2300.22,1733.62
2301.67,1794.05
2303.12,1791.84
2304.57,1766.14
2306.02,1734.65
2307.47,1745.83
2308.92,1740.48
2310.37,1764.58
2311.82,1757.45
2313.27,1782.25
2314.72,1746.46
2316.17,1800.35
2317.62,1764.16
2319.07,1783.7
2320.52,1814.8
2321.97,1789.77
2323.42,1795.6
2324.87,1849.68
2326.32,1811.21
2327.77,1817.95
2329.22,1804.62
2330.67,1855.66
2332.12,1863.18
2333.57,1869.42
2335.03,1874.18
2336.48,1827.32
2337.93,1824.62
2339.38,1862.58
2340.83,1900.66
2342.28,1886.45
2343.73,1904.72
2345.18,1886.42
2346.63,1912.64
2348.08,1941.74
2349.53,1944.34
2350.98,1939.48
2352.43,1969.78
2353.88,1958.94
2355.33,1966.58
2356.78,1972.08
2358.23,2010.12
2359.68,1989.69
2361.13,2015.64
2362.58,2071.6
2364.03,2084.73
2365.48,2043.76
2366.93,2054.51
2368.38,2104.23
2369.83,2106.88
2371.28,2095.4
2372.73,2109.49
2374.18,2174.77
2375.63,2198.47
2377.08,2211.84
2378.54,2223.07
2379.99,2223.61
2381.44,2242.9
2382.89,2308.96
2384.34,2329.92
2385.79,2312.64
2387.24,2335.71
2388.69,2386.54
2390.14,2424.51
2391.59,2468.69
2393.04,2466.72
2394.49,2478.71
2395.94,2521.74
2397.39,2502.04
2398.84,2510.98
2400.29,2626.9
2401.74,2675.29
2403.19,2686.91
2404.64,2699.24
2406.09,2706.22
2407.54,2782.37
2408.99,2754.89
2410.44,2777.79
2411.89,2768.41
2413.34,2839.61
2414.79,2873.27
2416.24,2822.81
2417.69,2891.29
2419.14,2876.14
2420.59,2902.58
2422.04,2920.43
2423.5,2906.23
2424.95,2935.2
2426.4,2958.1
2427.85,2954.6
2429.3,2915.03
2430.75,2908.42
2432.2,2879.21
2433.65,2896.12
2435.1,2907.34
2436.55,2931.83
2438,2858.06
2439.45,2876.14
2440.9,2884.85
2442.35,2875.02
2443.8,2824.69
2445.25,2810.95
2446.7,2854.22
2448.15,2817.47
2449.6,2801.88
2451.05,2818.14
2452.5,2776.73
2453.95,2795.59
2455.4,2774.55
2456.85,2751.07
2458.3,2706.52
2459.75,2642.09
2461.2,2662.48
2462.65,2663.8
2464.1,2677.08
2465.55,2698.36
2467.01,2721.39
2468.46,2651.98
2469.91,2716.61
2471.36,2709.01
2472.81,2668.4
2474.26,2647.31
2475.71,2633.45
2477.16,2697.65
2478.61,2676.61
2480.06,2658.89
2481.51,2672.59
2482.96,2626.36
2484.41,2661.49
2485.86,2646.47
2487.31,2658.89
2488.76,2657.14
2490.21,2665.42
2491.66,2644.44
2493.11,2663.17
2494.56,2720.91
2496.01,2688.31
2497.46,2698.75
2498.91,2693.91
2500.36,2744.7
2501.81,2727.87
2503.26,2717.63
2504.71,2764.83
2506.16,2787.29
2507.61,2755.11
2509.06,2782.63
2510.51,2783.99
2511.97,2768.5
2513.42,2733.38
2514.87,2819.39
2516.32,2817.34
2517.77,2799.3
2519.22,2838.6
2520.67,2847.33
2522.12,2842.53
2523.57,2891.59
2525.02,2973.61
2526.47,2996.79
2527.92,3003.14
2529.37,3008.39
2530.82,3072.37
2532.27,3096.4
2533.72,3091.28
2535.17,3117.93
2536.62,3127.55
2538.07,3195.01
2539.52,3166.71
2540.97,3233.18
2542.42,3270.34
2543.87,3275.76
2545.32,3348.04
2546.77,3334.12
2548.22,3429.78
2549.67,3512.69
2551.12,3547.83
2552.57,3571.9
2554.02,3575.83
2555.48,3594.36
2556.93,3666.28
2558.38,3752.79
2559.83,3798
2561.28,3843.65
2562.73,3899.62
2564.18,4039.9
2565.63,4056.58
2567.08,4162.58
2568.53,4202.24
2569.98,4392.55
2571.43,4469.03
2572.88,4530.89
2574.33,4605.94
2575.78,4715.09
2577.23,4801.74
2578.68,4901.39
2580.13,5023.76
2581.58,5087.01
2583.03,5153.46
2584.48,5330.25
2585.93,5466.02
2587.38,5582.54
2588.83,5819.77
2590.28,5899.46
2591.73,6015.76
2593.18,6249.95
2594.63,6474.7
2596.08,6624.03
2597.53,6834.22
2598.98,7115.02
2600.44,7314.06
2601.89,7516.06
2603.34,7779.19
2604.79,8052.74
2606.24,8241.56
2607.69,8558.46
2609.14,8836.5
2610.59,9174.2
2612.04,9425.02
2613.49,9852.05
2614.94,10067.1
2616.39,10350.3
2617.84,10857.1
2619.29,11157.4
2620.74,11547.5
2622.19,12030.1
2623.64,12427.1
2625.09,12744.3
2626.54,13132.6
2627.99,13527.1
2629.44,13992.2
2630.89,14295.9
2632.34,14710.4
2633.79,15178.9
2635.24,15601.2
2636.69,16052.2
2638.14,16367.2
2639.59,16673.7
2641.04,17096.6
2642.49,17484.6
2643.94,17745.9
2645.4,18015.8
2646.85,18209.1
2648.3,18450.9
2649.75,18595.2
2651.2,18709.5
2652.65,18777.7
2654.1,18653.2
2655.55,18692.8
2657,18780.9
2658.45,18630.5
2659.9,18587.2
2661.35,18514.2
2662.8,18337.4
2664.25,18009.4
2665.7,17730.8
2667.15,17518
2668.6,17211.6
2670.05,16711.5
2671.5,16258.5
2672.95,16083.5
2674.4,15509.9
2675.85,15252.2
2677.3,14757.7
2678.75,14310.1
2680.2,13897.4
2681.65,13364.8
2683.1,13005.3
2684.55,12625.3
2686,12270.6
2687.45,11824.8
2688.91,11304.5
2690.36,10917.5
2691.81,10449.3
2693.26,10055.6
2694.71,9722.61
2696.16,9386.87
2697.61,8893.68
2699.06,8724
2700.51,8483.35
2701.96,8176.73
2703.41,7854.93
2704.86,7544.75
2706.31,7264.68
2707.76,7020.14
2709.21,6752.52
2710.66,6468.32
2712.11,6255.42
2713.56,6080.16
2715.01,5891.49
2716.46,5864.79
2717.91,5581.2
2719.36,5451.41
2720.81,5264.86
2722.26,5042.71
2723.71,4981.75
2725.16,4885.18
2726.61,4712.33
2728.06,4610.5
2729.51,4570.75
2730.96,4387.26
2732.41,4348.38
2733.87,4239.5
2735.32,4083.19
2736.77,4036.94
2738.22,3946.04
2739.67,3911.57
2741.12,3822.09
2742.57,3763.89
2744.02,3741.82
2745.47,3566.67
2746.92,3577.62
2748.37,3502.49
2749.82,3485.66
2751.27,3408.85
2752.72,3337.52
2754.17,3358.1
2755.62,3252.15
2757.07,3180.71
2758.52,3185.74
2759.97,3143.9
2761.42,3111.28
2762.87,3116.12
2764.32,3022.95
2765.77,3018.76
2767.22,3020.53
2768.67,2958.38
2770.12,2922.91
2771.57,2927.86
2773.02,2876.94
2774.47,2873.9
2775.92,2840.76
2777.38,2827.52
2778.83,2799.93
2780.28,2771.09
2781.73,2735.13
2783.18,2673.84
2784.63,2744.98
2786.08,2655.35
2787.53,2668.85
2788.98,2654.51
2790.43,2618.41
2791.88,2621.39
2793.33,2605.02
2794.78,2549
2796.23,2583.52
2797.68,2535.42
2799.13,2580.44
2800.58,2526.8
2802.03,2506.69
2803.48,2472.77
2804.93,2535.68
2806.38,2512.06
2807.83,2463.22
2809.28,2450.22
2810.73,2453.29
2812.18,2418.03
2813.63,2452.42
2815.08,2413.95
2816.53,2416.04
2817.98,2408.98
2819.43,2420.43
2820.88,2410.34
2822.33,2375.5
2823.79,2345.97
2825.24,2367.63
2826.69,2377.98
2828.14,2369.1
2829.59,2339.31
2831.04,2351.26
2832.49,2301.29
2833.94,2307.82
2835.39,2339.96
2836.84,2315.12
2838.29,2259.56
2839.74,2245.45
2841.19,2260.45
2842.64,2299.52
2844.09,2289.87
2845.54,2269.76
2846.99,2214.43
2848.44,2303.3
2849.89,2274.23
2851.34,2268.63
2852.79,2277.83
2854.24,2271.44
2855.69,2259.08
2857.14,2255.22
2858.59,2259.28
2860.04,2210.18
2861.49,2301.86
2862.94,2208.95
2864.39,2230.33
2865.84,2267.92
2867.3,2275.91
2868.75,2237.12
2870.2,2232.95
2871.65,2225.39
2873.1,2212.53
2874.55,2193.76
2876,2186.63
2877.45,2236.51
2878.9,2247.77
2880.35,2176.54
2881.8,2184.6
2883.25,2222.53
2884.7,2230.68
2886.15,2223.48
2887.6,2212.4
2889.05,2225.15
2890.5,2240.77
2891.95,2210.05
2893.4,2215.23
2894.85,2199.36
2896.3,2208.43
2897.75,2207.2
2899.2,2210.98
2900.65,2215.23
2902.1,2211.19
2903.55,2176.5
2905,2190.43
2906.45,2206.16
2907.9,2188.64
2909.35,2177.64
2910.8,2166.37
2912.26,2140.38
2913.71,2162.8
2915.16,2139.21
2916.61,2152.16
2918.06,2107.22
2919.51,2161.57
2920.96,2135.78
2922.41,2165.07
2923.86,2136.26
2925.31,2119.45
2926.76,2140.57
2928.21,2128.39
2929.66,2113.13
2931.11,2094.52
2932.56,2094.64
2934.01,2090.9
2935.46,2049.52
2936.91,2046.14
2938.36,2047.27
2939.81,2044.05
2941.26,2031.84
2942.71,2022.09
2944.16,2051.03
2945.61,2044.59
2947.06,2007.49
2948.51,2006.9
2949.96,1986.37
2951.41,2004.31
2952.86,2015.98
2954.31,2006.04
2955.77,1962.95
2957.22,1960.31
2958.67,1936.85
2960.12,1975.66
2961.57,1922.63
2963.02,1955.26
2964.47,1945.14
2965.92,1952.75
2967.37,1938.67
2968.82,1938.24
2970.27,1930.18
2971.72,1929.92
2973.17,1907.16
2974.62,1903.74
2976.07,1887.94
2977.52,1879.2
2978.97,1883.45
2980.42,1897.73
2981.87,1880.64
2983.32,1882.94
2984.77,1873.27
2986.22,1881.58
2987.67,1878.04
2989.12,1906.3
2990.57,1881.43
2992.02,1887.44
2993.47,1888.54
2994.92,1890.72
2996.37,1868.21
2997.82,1890.99
2999.27,1906.65
3000.73,1861.09
3002.18,1878.65
3003.63,1831.54
3005.08,1880.89
3006.53,1885.98
3007.98,1878.05
3009.43,1880.97
3010.88,1862.88
3012.33,1843.5
3013.78,1820.1
3015.23,1841.52
3016.68,1859.7
3018.13,1879.11
3019.58,1818.12
3021.03,1817.01
3022.48,1828.29
3023.93,1848.9
3025.38,1861.46
3026.83,1872.27
3028.28,1868.48
3029.73,1881.15
3031.18,1859.7
3032.63,1837.26
3034.08,1882.67
3035.53,1837.27
3036.98,1853.1
3038.43,1807.58
3039.88,1836.46
3041.33,1913.34
3042.78,1904.8
3044.23,1863.14
3045.69,1862.99
3047.14,1849.78
3048.59,1840.45
3050.04,1857.34
3051.49,1810.4
3052.94,1855.07
3054.39,1862.35
3055.84,1828.8
3057.29,1867.43
3058.74,1877.61
3060.19,1928.09
3061.64,1889.35
3063.09,1916.72
3064.54,1899.2
3065.99,1885.97
3067.44,1901.09
3068.89,1922.14
3070.34,1919.6
3071.79,1888.25
3073.24,1926.48
3074.69,1944.44
3076.14,1959.9
3077.59,1958.94
3079.04,1984.89
3080.49,2005.42
3081.94,2003.22
3083.39,1935.42
3084.84,1991.39
3086.29,2040.3
3087.74,1992.31
3089.2,2028.86
3090.65,2055.3
3092.1,2101.27
3093.55,2075.92
3095,2084.31
3096.45,2084.89
3097.9,2100.88
3099.35,2091.05
3100.8,2103.09
3102.25,2155.86
3103.7,2129.38
3105.15,2208.97
3106.6,2224.37
3108.05,2223.23
3109.5,2215.9
3110.95,2250.53
3112.4,2275.42
3113.85,2297.08
3115.3,2225.17
3116.75,2289.91
3118.2,2372.26
3119.65,2354.44
3121.1,2392.2
3122.55,2431.4
3124,2418.18
3125.45,2417.64
3126.9,2461.39
3128.35,2466.23
3129.8,2437.13
3131.25,2486.1
3132.7,2489.79
3134.16,2472.79
3135.61,2492.26
3137.06,2462.53
3138.51,2479.75
3139.96,2556.07
3141.41,2565.12
3142.86,2567.6
3144.31,2572.59
3145.76,2542.31
3147.21,2567.17
3148.66,2643.25
3150.11,2620.23
3151.56,2590.87
3153.01,2594.89
3154.46,2614.28
3155.91,2579.55
3157.36,2641.74
3158.81,2625.82
3160.26,2656.63
3161.71,2644.66
3163.16,2627.48
3164.61,2657.16
3166.06,2636.15
3167.51,2660.9
3168.96,2672.13
3170.41,2734.93
3171.86,2776
3173.31,2738.65
3174.76,2750.64
3176.21,2761.52
3177.67,2761.24
3179.12,2818.88
3180.57,2797.08
3182.02,2802.8
3183.47,2846.98
3184.92,2857.15
3186.37,2879.53
3187.82,2874.83
3189.27,2844.71
3190.72,2864.18
3192.17,2864.59
3193.62,2861.69
3195.07,2846.42
3196.52,2835.27
3197.97,2840.13
3199.42,2832.42
3200.87,2778.52
3202.32,2825.77
3203.77,2755.84
3205.22,2710.98
3206.67,2676.41
3208.12,2788.03
3209.57,2699.55
3211.02,2639.86
3212.47,2612.15
3213.92,2625.56
3215.37,2602.12
3216.82,2562.18
3218.27,2574.24
3219.72,2525.35
3221.17,2496.14
3222.63,2470.85
3224.08,2464.26
3225.53,2421.98
3226.98,2354.76
3228.43,2348
3229.88,2314.75
3231.33,2278.59
3232.78,2221.52
3234.23,2208.45
3235.68,2163.91
3237.13,2083.26
3238.58,2151.27
3240.03,2152.62
3241.48,2105.17
3242.93,2067.23
3244.38,2047.5
3245.83,1997.8
3247.28,1979.57
3248.73,1974.81
3250.18,2000.81
3251.63,1968.28
3253.08,1931.66
3254.53,1926.16
3255.98,1880.04
3257.43,1865.48
3258.88,1889.32
3260.33,1855.55
3261.78,1895.95
3263.23,1877.8
3264.68,1826.36
3266.13,1867.47
3267.59,1906.51
3269.04,1853.48
3270.49,1831.14
3271.94,1865.7
3273.39,1816.37
3274.84,1793.46
3276.29,1865.24
3277.74,1787.29
3279.19,1797.75
3280.64,1836.43
3282.09,1831.94
3283.54,1819.31
3284.99,1783.67
3286.44,1797.25
3287.89,1809.11
3289.34,1762.27
3290.79,1793.36
3292.24,1803.08
3293.69,1799.04
3295.14,1795.75
3296.59,1792.19
3298.04,1771.61
3299.49,1796.37
3300.94,1790.8
3302.39,1831.46
3303.84,1782.71
3305.29,1776.15
3306.74,1797.95
3308.19,1785.59
3309.64,1789.29
3311.09,1808.07
3312.55,1799.13
3314,1833.75
3315.45,1805.85
3316.9,1790.99
3318.35,1778.74
3319.8,1767.13
3321.25,1796.85
3322.7,1772.62
3324.15,1772.91
3325.6,1813.45
3327.05,1813.63
3328.5,1769.25
3329.95,1785.59
3331.4,1825.27
3332.85,1784.42
3334.3,1782.85
3335.75,1769.27
3337.2,1779.69
3338.65,1757.8
3340.1,1796.81
3341.55,1766.95
3343,1769.61
3344.45,1764.01
3345.9,1774.88
3347.35,1691.17
3348.8,1779.59
3350.25,1789.92
3351.7,1808.28
3353.15,1807.56
3354.6,1788.29
3356.06,1776.39
3357.51,1809.18
3358.96,1733.52
3360.41,1750.61
3361.86,1761.08
3363.31,1786.67
3364.76,1738.75
3366.21,1767.89
3367.66,1812.79
3369.11,1804.87
3370.56,1794.39
3372.01,1799.27
3373.46,1749.77
3374.91,1812.56
3376.36,1818.84
3377.81,1794.97
3379.26,1761.57
3380.71,1820.03
3382.16,1834.76
3383.61,1807.2
3385.06,1792.86
3386.51,1774.01
3387.96,1797.85
3389.41,1840.4
3390.86,1836.05
3392.31,1775.58
3393.76,1794.29
3395.21,1811.23
3396.66,1753.27
3398.11,1810.47
3399.56,1803.26
3401.02,1805.17
3402.47,1803.34
3403.92,1781.57
3405.37,1810.1
3406.82,1766.98
3408.27,1830.85
3409.72,1798.13
3411.17,1805.5
3412.62,1771.91
3414.07,1823.59
3415.52,1770.25
3416.97,1816.78
3418.42,1814.22
3419.87,1798.74
3421.32,1789.78
3422.77,1788.22
3424.22,1809.44
3425.67,1845.8
3427.12,1865.85
3428.57,1811.3
3430.02,1820.02
3431.47,1808.52
3432.92,1775.12
3434.37,1802.14
3435.82,1827.15
3437.27,1830.3
3438.72,1840.21
3440.17,1800.26
3441.62,1810.4
3443.07,1818.62
3444.52,1838.38
3445.98,1815.39
3447.43,1763.63
3448.88,1782.4
3450.33,1794.73
3451.78,1810.13
3453.23,1843.42
3454.68,1805.51
3456.13,1816
3457.58,1861.73
3459.03,1815.65
3460.48,1805.07
3461.93,1809.17
3463.38,1793.6
3464.83,1830.07
3466.28,1828.97
3467.73,1786
3469.18,1844.03
3470.63,1826.56
3472.08,1818.6
3473.53,1808.39
3474.98,1824.16
3476.43,1771.1
3477.88,1855.9
3479.33,1833.65
3480.78,1828.06
3482.23,1847.8
3483.68,1837.29
3485.13,1819.26
3486.58,1832.38
3488.03,1807.75
3489.49,1807.36
3490.94,1810.53
3492.39,1813.42
3493.84,1840.68
3495.29,1809
3496.74,1832.53
3498.19,1806.93
3499.64,1871.28
3501.09,1808.13
3502.54,1868.61
3503.99,1845.65
3505.44,1814.3
3506.89,1857.84
3508.34,1852.29
3509.79,1882.18
3511.24,1872.11
3512.69,1869.4
3514.14,1845.62
3515.59,1863.7
3517.04,1922.1
3518.49,1876.31
3519.94,1845.4
3521.39,1809.17
3522.84,1892.31
3524.29,1851.6
3525.74,1829.99
3527.19,1876.41
3528.64,1856.37
3530.09,1868.62
3531.54,1826.67
3532.99,1831.94
3534.45,1852.71
3535.9,1896.66
3537.35,1848.82
3538.8,1849.53
3540.25,1817.27
3541.7,1824.05
3543.15,1834.31
3544.6,1848.52
3546.05,1901.05
3547.5,1880.56
3548.95,1895.93
3550.4,1885.76
3551.85,1885.77
3553.3,1826
3554.75,1840.07
3556.2,1842.47
3557.65,1877.33
3559.1,1859.62
3560.55,1849.84
3562,1826.73
3563.45,1890.9
3564.9,1885.82
3566.35,1850.84
3567.8,1894.61
3569.25,1861.37
3570.7,1882.65
3572.15,1887.3
3573.6,1894.98
3575.05,1883.95
3576.5,1830.72
3577.96,1825.13
3579.41,1871.46
3580.86,1856.53
3582.31,1881.86
3583.76,1896.92
3585.21,1892.5
3586.66,1876.92
3588.11,1905.89
3589.56,1867.4
3591.01,1899.17
3592.46,1920.98
3593.91,1870.13
3595.36,1876.62
3596.81,1904.73
3598.26,1894.63
3599.71,1860.61
3601.16,1886.79
3602.61,1908.36
3604.06,1884.69
3605.51,1880.64
3606.96,1877.37
3608.41,1906.33
3609.86,1889.88
3611.31,1912.52
3612.76,1869.93
3614.21,1867.62
3615.66,1943.24
3617.11,1884.57
3618.56,1906.19
3620.01,1890.54
3621.46,1912.71
3622.92,1910.06
3624.37,1911.35
3625.82,1911.85
3627.27,1918.7
3628.72,1861.99
3630.17,1890.46
3631.62,1916.88
3633.07,1875.84
3634.52,1912.7
3635.97,1916.82
3637.42,1912.32
3638.87,1928.06
3640.32,1875.68
3641.77,1951.99
3643.22,1955.77
3644.67,1925.64
3646.12,1926.82
3647.57,1932.7
3649.02,1923.27
3650.47,1945.78
3651.92,1929.93
3653.37,1948.55
3654.82,1938.21
3656.27,1928.39
3657.72,1920.25
3659.17,1948.76
3660.62,1964.09
3662.07,1945.74
3663.52,1940.55
3664.97,1949.55
3666.43,1937.62
3667.88,1973.19
3669.33,1914.84
3670.78,1924.03
3672.23,1946.11
3673.68,1965.11
3675.13,1965.38
3676.58,1973.03
3678.03,1943.04
3679.48,1973.35
3680.93,1987.31
3682.38,1944.34
3683.83,1942.03
3685.28,1938.6
3686.73,1984.04
3688.18,1967.96
3689.63,1972.49
3691.08,1954.22
3692.53,1984.85
3693.98,1963.13
3695.43,1982.65
3696.88,1962.32
3698.33,1940
3699.78,1940.18
3701.23,1964.27
3702.68,1972.41
3704.13,2007.99
3705.58,1972.03
3707.03,2007.62
3708.48,1969.71
3709.93,1960.67
3711.39,1983.1
3712.84,1932.85
3714.29,1996.76
3715.74,1977.7
3717.19,1982.32
3718.64,1995.27
3720.09,1980.85
3721.54,1979.94
3722.99,1979.9
3724.44,1990.32
3725.89,1968.07
3727.34,1944.4
3728.79,1951.26
3730.24,1943.13
3731.69,2002.31
3733.14,1995.02
3734.59,2000.96
3736.04,1975.67
3737.49,1982.52
3738.94,2006.76
3740.39,2041.64
3741.84,1973.86
3743.29,2032.61
3744.74,2050.56
3746.19,1994.19
3747.64,2018.11
3749.09,2037.04
3750.54,1985.49
3751.99,1994.85
3753.44,2007.5
3754.89,2012.18
3756.35,2032.24
3757.8,2022.38
3759.25,2021.12
3760.7,2022.77
3762.15,2015.74
3763.6,1992.45
3765.05,2029.05
3766.5,2027.82
3767.95,2039.54
3769.4,2032.49
3770.85,2025.65
3772.3,2007.35
3773.75,2010.82
3775.2,2025.84
3776.65,2019.28
3778.1,2050.15
3779.55,2021.15
3781,2053.29
3782.45,2077.9
3783.9,2041.03
3785.35,2010.26
3786.8,2087.16
3788.25,2009.55
3789.7,2049.05
3791.15,2016.48
3792.6,2078.65
3794.05,2037.25
3795.5,2010.74
3796.95,2027.11
3798.4,2005.32
3799.85,2051.6
3801.31,2052.71
3802.76,2011.38
3804.21,2101.71
3805.66,2093.67
3807.11,2095.27
3808.56,2075.26
3810.01,2093.15
3811.46,2107.69
3812.91,2103.16
3814.36,2071.99
3815.81,2073.61
3817.26,2083.15
3818.71,2081.64
3820.16,2102.83
3821.61,2107.96
3823.06,2068.96
3824.51,2056.18
3825.96,2096.84
3827.41,2098.67
3828.86,2095.11
3830.31,2115.75
3831.76,2095.7
3833.21,2108.61
3834.66,2140.12
3836.11,2135.25
3837.56,2122.13
3839.01,2107.74
3840.46,2108.61
3841.91,2090.11
3843.36,2086.53
3844.82,2027.6
3846.27,2100.83
3847.72,2127.98
3849.17,2123.16
3850.62,2159.47
3852.07,2133.7
3853.52,2122.13
3854.97,2125.25
3856.42,2122.55
3857.87,2122.15
3859.32,2143.68
3860.77,2133.94
3862.22,2130.23
3863.67,2155.32
3865.12,2150.93
3866.57,2130.49
3868.02,2131.12
3869.47,2177.95
3870.92,2129.63
3872.37,2118.73
3873.82,2152.45
3875.27,2195.86
3876.72,2219.1
3878.17,2209.05
3879.62,2151.95
3881.07,2165.09
3882.52,2163.47
3883.97,2169.37
3885.42,2193.65
3886.87,2191.84
3888.32,2210.31
3889.78,2178.08
3891.23,2197.22
3892.68,2186.83
3894.13,2181.97
3895.58,2199.7
3897.03,2227.16
3898.48,2231.78
3899.93,2248.52
3901.38,2237.01
3902.83,2192.12
3904.28,2241.61
3905.73,2246.97
3907.18,2249.36
3908.63,2209.51
3910.08,2236.99
3911.53,2228.65
3912.98,2265.05
3914.43,2246.17
3915.88,2249.77
3917.33,2225.41
3918.78,2208.6
3920.23,2253.01
3921.68,2267.21
3923.13,2297.62
3924.58,2258.18
3926.03,2277.47
3927.48,2268.24
3928.93,2347.5
3930.38,2266.17
3931.83,2277.23
3933.28,2287.12
3934.74,2298.4
3936.19,2338.49
3937.64,2312.61
3939.09,2276.97
3940.54,2339.98
3941.99,2314.45
3943.44,2297.79
3944.89,2308.47
3946.34,2332.12
3947.79,2357.11
3949.24,2339.92
3950.69,2347.65
3952.14,2361.54
3953.59,2374.18
3955.04,2381.89
3956.49,2312.7
3957.94,2391.7
3959.39,2337.82
3960.84,2331.88
3962.29,2350.68
3963.74,2338.84
3965.19,2319.79
3966.64,2408.59
3968.09,2353.44
3969.54,2397.94
3970.99,2342.29
3972.44,2388.52
3973.89,2380.42
3975.34,2433.26
3976.79,2420.82
3978.25,2436.57
3979.7,2430.6
3981.15,2405.57
3982.6,2419.76
3984.05,2442.18
3985.5,2453.03
3986.95,2485.3
3988.4,2443.93
3989.85,2454.71
3991.3,2444.95
3992.75,2460.74
3994.2,2490.44
3995.65,2438.12
3997.1,2560.43
3998.55,2455.23
4000,2460.5
