0.5,3.34885
1.45033,3.34885
2.90065,3.34885
4.35098,3.34885
5.80131,3.34885
7.25163,3.34885
8.70196,14.0101
10.1523,6.14575
11.6026,4.84266
13.0529,5.37654
14.5033,6.01183
15.9536,5.44849
17.4039,2.18504
18.8542,0.186875
20.3046,0.147309
21.7549,1.30061
23.2052,2.68945
24.6555,2.52615
26.1059,1.8025
27.5562,0.511452
29.0065,0.119146
30.4569,2.46704
31.9072,1.1596
33.3575,1.0796
34.8078,0.941632
36.2582,0.514289
37.7085,1.00487
39.1588,0.13754
40.6091,1.06216
42.0595,2.96448
43.5098,4.65255
44.9601,5.30717
46.4104,5.01873
47.8608,7.76295
49.3111,13.5712
50.7614,20.4781
52.2117,50.9423
53.6621,99.0097
55.1124,171.289
56.5627,268.924
58.0131,385.116
59.4634,498.95
60.9137,601.002
62.364,672.515
63.8144,704.711
65.2647,763.755
66.715,789.084
68.1653,811.009
69.6157,835.827
71.066,859.387
72.5163,869.724
73.9666,866.679
75.417,858.953
76.8673,859.871
78.3176,896.005
79.7679,902.846
81.2183,917.605
82.6686,943.384
84.1189,976.573
85.5693,998.432
87.0196,1004.57
88.4699,1003.77
89.9202,982.438
91.3706,922.71
92.8209,873.362
94.2712,828.21
95.7215,778.185
97.1719,732.488
98.6222,719.321
100.073,693.664
101.523,663.816
102.973,636.627
104.423,615.738
105.874,598.936
107.324,585.118
108.774,578.46
110.225,568.223
111.675,548.608
113.125,552.894
114.576,561.501
116.026,556.644
117.476,539.234
118.927,518.395
120.377,524.175
121.827,513.305
123.278,507.214
124.728,506.902
126.178,499.143
127.629,488.256
129.079,476.993
130.529,469.483
131.98,464.992
133.43,455.41
134.88,443.792
136.331,428.777
137.781,421.964
139.231,424.309
140.682,405.461
142.132,410.445
143.582,402.607
145.033,389.508
146.483,381.444
147.933,368.867
149.384,379.742
150.834,376.342
152.284,363.076
153.735,356.189
155.185,371.093
156.635,358.543
158.086,353.757
159.536,360.381
160.986,368.082
162.437,366.923
163.887,354.146
165.337,339.364
166.788,327.764
168.238,322.061
169.688,323.555
171.139,316.376
172.589,312.233
174.039,311.064
175.489,301.095
176.94,320.651
178.39,325.517
179.84,324.3
181.291,321.411
182.741,314.767
184.191,306.992
185.642,299.653
187.092,291.449
188.542,286.598
189.993,300.244
191.443,289.015
192.893,288.923
194.344,295.363
195.794,298.463
197.244,281.496
198.695,285.287
200.145,286.322
201.595,282.345
203.046,275.505
204.496,274.173
205.946,280.975
207.397,284.903
208.847,289.157
210.297,294.052
211.748,287.554
213.198,288.372
214.648,290.869
216.099,290.219
217.549,285.657
218.999,287.657
220.45,293.774
221.9,290.107
223.35,281.813
224.801,277.085
226.251,286.596
227.701,283.752
229.152,289.64
230.602,285.512
232.052,267.157
233.503,281.869
234.953,282.728
236.403,283.406
237.854,284.079
239.304,284.02
240.754,283.685
242.204,281.016
243.655,278.63
245.105,272.585
246.555,264.148
248.006,266.824
249.456,267.924
250.906,272.436
252.357,277.252
253.807,276.343
255.257,259.083
256.708,263.422
258.158,267.413
259.608,269.586
261.059,271.404
262.509,277.107
263.959,253.613
265.41,250.471
266.86,250.669
268.31,252.161
269.761,269.193
271.211,260.8
272.661,257.426
274.112,252.054
275.562,248.612
277.012,257.772
278.463,257.1
279.913,259.109
281.363,256.747
282.814,253.806
284.264,257.353
285.714,248.442
287.165,250.735
288.615,253.781
290.065,249.399
291.516,236.001
292.966,244.414
294.416,253.269
295.867,247.71
297.317,239.765
298.767,240.358
300.218,236.826
301.668,239.143
303.118,240.184
304.569,230.83
306.019,216.28
307.469,229.762
308.919,223.777
310.37,225.221
311.82,224.519
313.27,219.754
314.721,219.414
316.171,218.909
317.621,221.023
319.072,215.684
320.522,210.558
321.972,221.031
323.423,220.188
324.873,212.871
326.323,212.439
327.774,217.137
329.224,219.687
330.674,211.915
332.125,219.07
333.575,219.463
335.025,213.614
336.476,206.81
337.926,206.302
339.376,205.471
340.827,208.296
342.277,210.12
343.727,210.663
345.178,214.342
346.628,203.003
348.078,208.161
349.529,218.97
350.979,224.372
352.429,216.122
353.88,203.588
355.33,210.404
356.78,214.643
358.231,215.113
359.681,213.984
361.131,209.068
362.582,201.276
364.032,197.773
365.482,200.001
366.933,203.666
368.383,199.151
369.833,197.452
371.284,194.676
372.734,194.597
374.184,195.031
375.635,193.595
377.085,205.481
378.535,211.092
379.986,201.891
381.436,194.469
382.886,199.432
384.336,203.85
385.787,198.874
387.237,195.119
388.687,196.983
390.138,202.333
391.588,204.209
393.038,201.147
394.489,193.383
395.939,197.304
397.389,202.833
398.84,197.66
400.29,189.488
401.74,201.565
403.191,195.148
404.641,194.274
406.091,201.276
407.542,190.845
408.992,196.127
410.442,202.244
411.893,203.508
413.343,203.054
414.793,203.869
416.244,194.49
417.694,201.793
419.144,202.371
420.595,195.957
422.045,190.399
423.495,198.082
424.946,196.205
426.396,193.631
427.846,189.078
429.297,192.004
430.747,204.996
432.197,190.801
433.648,198.063
435.098,195.561
436.548,190.301
437.999,188.664
439.449,190.908
440.899,183.726
442.35,193.442
443.8,193.019
445.25,188.314
446.701,191.672
448.151,201.266
449.601,199.893
451.051,198.009
452.502,196.658
453.952,192.442
455.402,182.453
456.853,194.285
458.303,190.947
459.753,191.2
461.204,191.726
462.654,189.439
464.104,190.632
465.555,188.06
467.005,191.69
468.455,195.442
469.906,192.481
471.356,183.396
472.806,198.856
474.257,200.817
475.707,196.679
477.157,195.854
478.608,200.25
480.058,202.565
481.508,184.53
482.959,193.171
484.409,194.529
485.859,194.111
487.31,197.178
488.76,188.778
490.21,199.265
491.661,204.605
493.111,197.948
494.561,186.88
496.012,183.976
497.462,193.61
498.912,187.216
500.363,190.748
501.813,192.067
503.263,188.915
504.714,189.417
506.164,196.133
507.614,193.99
509.065,191.997
510.515,192.069
511.965,191.75
513.416,186.033
514.866,190.002
516.316,194.403
517.766,194.973
519.217,192.81
520.667,190.381
522.117,189.197
523.568,193.17
525.018,189.427
526.468,186.48
527.919,185.972
529.369,188.741
530.819,202.917
532.27,189.14
533.72,192.87
535.17,192.495
536.621,189.448
538.071,195.474
539.521,197.203
540.972,192.123
542.422,194.943
543.872,192.531
545.323,189.072
546.773,197.455
548.223,193.297
549.674,192.616
551.124,195.827
552.574,197.709
554.025,196.27
555.475,193.649
556.925,192.436
558.376,191.377
559.826,189.02
561.276,188.608
562.727,188.342
564.177,182.862
565.627,189.803
567.078,186.514
568.528,181.357
569.978,180.858
571.429,184.093
572.879,183.568
574.329,189.474
575.78,183.693
577.23,187.328
578.68,191.278
580.131,191.616
581.581,196.357
583.031,185.925
584.482,191.11
585.932,190.164
587.382,188.909
588.832,189.192
590.283,182.92
591.733,182.92
593.183,186.891
594.634,193.546
596.084,189.478
597.534,176.856
598.985,174.935
600.435,176.677
601.885,186.779
603.336,189.377
604.786,191.001
606.236,193.249
607.687,190.27
609.137,188.7
610.587,190.92
612.038,194.65
613.488,194.805
614.938,193.194
616.389,195.129
617.839,190.94
619.289,195.982
620.74,188.563
622.19,187.057
623.64,189.634
625.091,183.388
626.541,182.34
627.991,189.153
629.442,196.986
630.892,198.148
632.342,192.941
633.793,186.931
635.243,186.056
636.693,196.971
638.144,196.115
639.594,191.52
641.044,190.152
642.495,194.355
643.945,199.138
645.395,184.608
646.846,195.692
648.296,200.819
649.746,200.279
651.197,199.363
652.647,197.158
654.097,197.859
655.547,201.364
656.998,201.545
658.448,198.264
659.898,195.315
661.349,196.387
662.799,194.107
664.249,199.6
665.7,201.199
667.15,197.8
668.6,198.61
670.051,207.611
671.501,202.522
672.951,200.942
674.402,202.938
675.852,204.868
677.302,201.005
678.753,194.881
680.203,201.44
681.653,203.904
683.104,206.211
684.554,201.281
686.004,201.077
687.455,204.016
688.905,199.076
690.355,202.771
691.806,209.157
693.256,203.078
694.706,205.158
696.157,208.743
697.607,205.035
699.057,212.292
700.508,204.533
701.958,201.417
703.408,201.588
704.859,202.403
706.309,200.045
707.759,194.459
709.21,209.268
710.66,208.431
712.11,205.959
713.561,203.413
715.011,203.407
716.461,206.489
717.912,206.366
719.362,201.418
720.812,212.13
722.263,213.896
723.713,214.093
725.163,213.537
726.613,202.204
728.064,204.677
729.514,200.654
730.964,202.978
732.415,211.216
733.865,211.74
735.315,202.31
736.766,211.012
738.216,209.595
739.666,206.029
741.117,207.997
742.567,212.238
744.017,214.064
745.468,210.65
746.918,201.256
748.368,202.107
749.819,206.725
751.269,220.321
752.719,222.273
754.17,210.828
755.62,217.689
757.07,225.674
758.521,221.406
759.971,213.571
761.421,206.186
762.872,208.549
764.322,218.627
765.772,208.617
767.223,204.887
768.673,216.452
770.123,215.36
771.574,207.162
773.024,206.366
774.474,217.005
775.925,211.499
777.375,220.925
778.825,213.716
780.276,214.11
781.726,215.364
783.176,214.85
784.627,220.491
786.077,214.616
787.527,223.528
788.978,220.525
790.428,217.615
791.878,216.725
793.328,216.881
794.779,219.538
796.229,220.607
797.68,213.149
799.13,213.476
800.58,218.353
802.03,223.526
803.481,222.616
804.931,209.984
806.381,214.087
807.832,221.147
809.282,224.174
810.732,223.078
812.183,220.782
813.633,217.826
815.083,210.752
816.534,217.361
817.984,211.788
819.434,221.566
820.885,225.101
822.335,223.089
823.785,227.8
825.236,236.958
826.686,228.732
828.136,233.005
829.587,242.529
831.037,238.203
832.487,230.116
833.938,229.564
835.388,221.323
836.838,240.121
838.289,233.065
839.739,227.33
841.189,225.051
842.64,227.269
844.09,230.468
845.54,226.15
846.991,235.828
848.441,229.203
849.891,239.684
851.342,237.061
852.792,224.983
854.242,222.658
855.693,233.024
857.143,220.464
858.593,236.056
860.044,243.053
861.494,246.573
862.944,242.019
864.394,234.135
865.845,236.959
867.295,229.774
868.745,236.87
870.196,233.474
871.646,233.299
873.096,231.677
874.547,226.723
875.997,226.748
877.447,240.535
878.898,242.873
880.348,229.242
881.798,227.841
883.249,226.34
884.699,227.257
886.149,236.916
887.6,234.071
889.05,231.728
890.5,233.979
891.951,238.307
893.401,238.886
894.851,244.662
896.302,252.896
897.752,241.465
899.202,235.876
900.653,230.106
902.103,244.961
903.553,243.957
905.004,237.534
906.454,238.118
907.904,240.938
909.355,240.952
910.805,235.892
912.255,249.217
913.706,256.106
915.156,251.127
916.606,249.833
918.057,257.875
919.507,251.332
920.957,241.381
922.408,256.047
923.858,252.614
925.308,243.594
926.759,244.603
928.209,252.805
929.659,252.347
931.109,244.849
932.56,250.466
934.01,243.136
935.46,248.902
936.911,251.739
938.361,255.212
939.811,261.417
941.262,252.489
942.712,253.395
944.162,241.582
945.613,256.02
947.063,249.77
948.513,239.651
949.964,240.705
951.414,250.458
952.864,270.432
954.315,263.721
955.765,250.781
957.215,257.236
958.666,257.084
960.116,252.6
961.566,248.923
963.017,243.379
964.467,250.947
965.917,251.857
967.368,258.255
968.818,254.035
970.268,250.923
971.719,254.212
973.169,257.357
974.619,251.526
976.07,244.764
977.52,259.313
978.97,259.778
980.421,259.389
981.871,261.127
983.321,254.929
984.772,243.818
986.222,251.725
987.672,257.74
989.123,263.569
990.573,260.622
992.023,257.852
993.474,257.777
994.924,258.257
996.374,255.328
997.825,249.542
999.275,261.771
1000.73,268.607
1002.18,271.834
1003.63,272.735
1005.08,265.513
1006.53,263.004
1007.98,273.03
1009.43,276.396
1010.88,281.513
1012.33,281.396
1013.78,276.725
1015.23,272.53
1016.68,277.441
1018.13,282.995
1019.58,282.816
1021.03,287.179
1022.48,282.627
1023.93,285.373
1025.38,292.229
1026.83,292.708
1028.28,291.047
1029.73,287.159
1031.18,287.64
1032.63,302.372
1034.08,301.711
1035.53,291.266
1036.98,309.727
1038.43,308.943
1039.88,313.107
1041.33,318.978
1042.78,322.995
1044.23,328.914
1045.69,308.924
1047.14,324.89
1048.59,318.832
1050.04,318.117
1051.49,322.841
1052.94,326.482
1054.39,334.132
1055.84,343.305
1057.29,327.447
1058.74,330.938
1060.19,335.15
1061.64,337.048
1063.09,343.218
1064.54,352.684
1065.99,357.486
1067.44,359.106
1068.89,368.628
1070.34,372.267
1071.79,366.011
1073.24,365.924
1074.69,371.319
1076.14,364.677
1077.59,365.943
1079.04,382.842
1080.49,393.588
1081.94,382.493
1083.39,378.44
1084.84,388.458
1086.29,374.713
1087.74,369.066
1089.2,365.521
1090.65,367.029
1092.1,374.184
1093.55,375.155
1095,374.856
1096.45,375.594
1097.9,370.993
1099.35,369.271
1100.8,366.484
1102.25,372.133
1103.7,377.032
1105.15,371.942
1106.6,371.286
1108.05,366.227
1109.5,365.116
1110.95,374.663
1112.4,370.964
1113.85,360.861
1115.3,359.239
1116.75,364.619
1118.2,362.522
1119.65,349.795
1121.1,346.905
1122.55,352.087
1124,348.778
1125.45,351.335
1126.9,348.57
1128.35,349.183
1129.8,352.476
1131.25,347.568
1132.7,343.899
1134.16,346.839
1135.61,338.869
1137.06,339.031
1138.51,339.91
1139.96,336.918
1141.41,344.841
1142.86,348.736
1144.31,334.742
1145.76,346.726
1147.21,347.297
1148.66,349.341
1150.11,338.038
1151.56,335.823
1153.01,329.068
1154.46,331.72
1155.91,341.906
1157.36,343.114
1158.81,340.568
1160.26,332.439
1161.71,331.508
1163.16,333.458
1164.61,331.577
1166.06,333.705
1167.51,335.907
1168.96,333.863
1170.41,334.68
1171.86,343.724
1173.31,333.347
1174.76,349.358
1176.21,335.712
1177.66,340.511
1179.12,338.609
1180.57,333.152
1182.02,327.685
1183.47,329.517
1184.92,340.747
1186.37,336.441
1187.82,341.854
1189.27,333.836
1190.72,346.054
1192.17,352.999
1193.62,356.148
1195.07,354.813
1196.52,353.002
1197.97,351.913
1199.42,346.317
1200.87,355.376
1202.32,354.814
1203.77,357.803
1205.22,350.079
1206.67,350.63
1208.12,346.295
1209.57,340.746
1211.02,344.507
1212.47,354.097
1213.92,358.534
1215.37,357.08
1216.82,357.08
1218.27,355.709
1219.72,353.459
1221.17,353.087
1222.63,355.801
1224.08,353.712
1225.53,356.968
1226.98,376.001
1228.43,367.547
1229.88,351.406
1231.33,365.289
1232.78,358.915
1234.23,375.545
1235.68,373.513
1237.13,372.493
1238.58,368.156
1240.03,356.765
1241.48,363.934
1242.93,372.857
1244.38,375.539
1245.83,366.333
1247.28,369.996
1248.73,376.262
1250.18,371.049
1251.63,383.471
1253.08,400.902
1254.53,394.439
1255.98,377.931
1257.43,386.145
1258.88,402.737
1260.33,394.645
1261.78,393.825
1263.23,398.377
1264.68,400.71
1266.13,402.101
1267.59,399.832
1269.04,400.556
1270.49,411.508
1271.94,420.855
1273.39,437.284
1274.84,425.581
1276.29,433.194
1277.74,450.985
1279.19,446.534
1280.64,442.814
1282.09,446.852
1283.54,448.18
1284.99,453.674
1286.44,477.368
1287.89,483.621
1289.34,488.549
1290.79,495.349
1292.24,505.228
1293.69,511.19
1295.14,527.059
1296.59,549.917
1298.04,559.995
1299.49,563.414
1300.94,578.008
1302.39,592.787
1303.84,623.686
1305.29,616.497
1306.74,618.744
1308.19,660.861
1309.64,693.17
1311.09,705.456
1312.55,725.46
1314,746.48
1315.45,764.021
1316.9,793.164
1318.35,820.515
1319.8,870.625
1321.25,892.609
1322.7,918.481
1324.15,961.088
1325.6,982.321
1327.05,1005.51
1328.5,1029
1329.95,1041.17
1331.4,1041.88
1332.85,1049.97
1334.3,1080.17
1335.75,1072.28
1337.2,1058.6
1338.65,1042.87
1340.1,1041.83
1341.55,1044.57
1343,1005.95
1344.45,981.729
1345.9,972.368
1347.35,942.3
1348.8,908.669
1350.25,905.424
1351.7,885.2
1353.15,842.084
1354.6,809.55
1356.06,782.029
1357.51,768.258
1358.96,737.125
1360.41,707.72
1361.86,689.61
1363.31,659.528
1364.76,626.12
1366.21,626.641
1367.66,621.105
1369.11,595.252
1370.56,601.549
1372.01,578.228
1373.46,575.751
1374.91,565.857
1376.36,555.966
1377.81,549.432
1379.26,544.664
1380.71,533.953
1382.16,519.744
1383.61,517.64
1385.06,518.685
1386.51,526.304
1387.96,509.88
1389.41,526.472
1390.86,519.528
1392.31,506.566
1393.76,497.943
1395.21,498.537
1396.66,495.634
1398.11,494.073
1399.56,501.448
1401.02,501.849
1402.47,511.315
1403.92,516.208
1405.37,492.835
1406.82,500.898
1408.27,493.815
1409.72,496.65
1411.17,492.595
1412.62,493.069
1414.07,500.808
1415.52,501.83
1416.97,505.115
1418.42,520.75
1419.87,508.37
1421.32,521.179
1422.77,525.394
1424.22,512.721
1425.67,523.396
1427.12,520.678
1428.57,521.422
1430.02,516.815
1431.47,517.473
1432.92,523.578
1434.37,535.289
1435.82,540.877
1437.27,520.227
1438.72,535.373
1440.17,541.214
1441.62,530.248
1443.07,571.137
1444.53,562.957
1445.98,562.723
1447.43,566.362
1448.88,565.022
1450.33,564.658
1451.78,577.984
1453.23,590.159
1454.68,591.063
1456.13,604.515
1457.58,599.473
1459.03,615.5
1460.48,612.222
1461.93,620.699
1463.38,618.771
1464.83,622.962
1466.28,648.426
1467.73,665.99
1469.18,665.807
1470.63,662.305
1472.08,671.731
1473.53,687.319
1474.98,690.403
1476.43,693.906
1477.88,704.395
1479.33,736.104
1480.78,727.01
1482.23,729.374
1483.68,771.588
1485.13,775.955
1486.58,790.476
1488.03,808.789
1489.49,806.41
1490.94,825.78
1492.39,858.978
1493.84,870.016
1495.29,906.976
1496.74,894.878
1498.19,900.343
1499.64,958.953
1501.09,975.221
1502.54,999.616
1503.99,1026.63
1505.44,1051.99
1506.89,1082.95
1508.34,1116.38
1509.79,1165.73
1511.24,1206.69
1512.69,1247.47
1514.14,1322.35
1515.59,1388.03
1517.04,1431.56
1518.49,1489.6
1519.94,1544.79
1521.39,1662.98
1522.84,1746.28
1524.29,1842.74
1525.74,1951.14
1527.19,2072.47
1528.64,2209.49
1530.09,2359.68
1531.54,2533.1
1532.99,2733.47
1534.45,2931.19
1535.9,3149.61
1537.35,3469.44
1538.8,3785.56
1540.25,4138.49
1541.7,4465.73
1543.15,4828.41
1544.6,5262.16
1546.05,5720.84
1547.5,6243.56
1548.95,6732.65
1550.4,7197.21
1551.85,7706.49
1553.3,8222.99
1554.75,8737.7
1556.2,9272.24
1557.65,9763.06
1559.1,9778.83
1560.55,9790.51
1562,9813.03
1563.45,9819.71
1564.9,9824.71
1566.35,9818.87
1567.8,9816.37
1569.25,9823.88
1570.7,9822.21
1572.15,9506.09
1573.6,9014.19
1575.05,8505.77
1576.5,7993.17
1577.96,7433.36
1579.41,6860.14
1580.86,6337.82
1582.31,5854.31
1583.76,5350.34
1585.21,4914.66
1586.66,4493.73
1588.11,4133.93
1589.56,3820.57
1591.01,3513.27
1592.46,3257.65
1593.91,3048.52
1595.36,2828.06
1596.81,2643.19
1598.26,2454.22
1599.71,2312.82
1601.16,2217.38
1602.61,2106.09
1604.06,2004.29
1605.51,1918
1606.96,1826.87
1608.41,1733.43
1609.86,1660.47
1611.31,1573.3
1612.76,1541.22
1614.21,1439.33
1615.66,1401.11
1617.11,1341.9
1618.56,1306.27
1620.01,1249.59
1621.46,1203.59
1622.92,1157.37
1624.37,1120.94
1625.82,1094.76
1627.27,1062.96
1628.72,1038.45
1630.17,1005.89
1631.62,986.768
1633.07,962.573
1634.52,944.753
1635.97,914
1637.42,912.273
1638.87,885.96
1640.32,862.824
1641.77,858.803
1643.22,847.807
1644.67,834.834
1646.12,821.305
1647.57,818.172
1649.02,806.044
1650.47,788.071
1651.92,784.464
1653.37,782.73
1654.82,764.606
1656.27,753.613
1657.72,750.556
1659.17,735.268
1660.62,721.751
1662.07,724.81
1663.52,740.13
1664.97,732.645
1666.42,722.821
1667.88,716.431
1669.33,710.52
1670.78,700.899
1672.23,685.993
1673.68,689.761
1675.13,687.897
1676.58,686.511
1678.03,676.947
1679.48,668.525
1680.93,674.143
1682.38,672.772
1683.83,667.332
1685.28,660.298
1686.73,664.992
1688.18,663.508
1689.63,661.34
1691.08,655.357
1692.53,644.114
1693.98,643.092
1695.43,654.8
1696.88,662.023
1698.33,656.939
1699.78,658.615
1701.23,648.761
1702.68,651.063
1704.13,642.96
1705.58,649.711
1707.03,649.532
1708.48,634.62
1709.93,649.376
1711.39,649.114
1712.84,648.513
1714.29,645.695
1715.74,655.259
1717.19,662.743
1718.64,649.174
1720.09,650.282
1721.54,652.675
1722.99,636.323
1724.44,639.375
1725.89,657.366
1727.34,663.374
1728.79,663.456
1730.24,647.348
1731.69,636.439
1733.14,663.515
1734.59,642.189
1736.04,637.004
1737.49,653.089
1738.94,639.666
1740.39,637.682
1741.84,650.014
1743.29,638.852
1744.74,634.603
1746.19,623.736
1747.64,617.852
1749.09,627.06
1750.54,617.917
1751.99,616.547
1753.44,626.101
1754.89,618.169
1756.35,616.835
1757.8,631.412
1759.25,627.795
1760.7,620.066
1762.15,622.82
1763.6,608.188
1765.05,609.202
1766.5,618.929
1767.95,614.869
1769.4,597.035
1770.85,594.99
1772.3,590.397
1773.75,600.398
1775.2,596.306
1776.65,595.353
1778.1,596.461
1779.55,599.92
1781,596.131
1782.45,598.328
1783.9,595.94
1785.35,603.755
1786.8,605.899
1788.25,603.339
1789.7,597.516
1791.15,595.562
1792.6,603.987
1794.05,602.145
1795.5,599.02
1796.95,596.649
1798.4,599.833
1799.85,606.267
1801.31,588.845
1802.76,588.82
1804.21,576.588
1805.66,593.881
1807.11,564.642
1808.56,576.933
1810.01,582.836
1811.46,583.579
1812.91,569.021
1814.36,587.46
1815.81,599.627
1817.26,604.705
1818.71,604.111
1820.16,596.635
1821.61,590.931
1823.06,583.865
1824.51,589.171
1825.96,590.8
1827.41,584.783
1828.86,594.688
1830.31,599.539
1831.76,594.656
1833.21,600.194
1834.66,592.566
1836.11,592.366
1837.56,585.05
1839.01,603.384
1840.46,617.019
1841.91,591.116
1843.36,598.703
1844.82,608.743
1846.27,599.689
1847.72,607.904
1849.17,613.345
1850.62,607.844
1852.07,609.591
1853.52,623.174
1854.97,623.635
1856.42,612.222
1857.87,607.255
1859.32,625.201
1860.77,633.097
1862.22,625.489
1863.67,617.136
1865.12,620.664
1866.57,623.311
1868.02,616.382
1869.47,605.787
1870.92,600.511
1872.37,609.114
1873.82,617.166
1875.27,610.823
1876.72,602.853
1878.17,609.25
1879.62,603.336
1881.07,598.337
1882.52,591.209
1883.97,592.786
1885.42,593.387
1886.87,598.705
1888.32,596.636
1889.78,588.872
1891.23,594.137
1892.68,591.468
1894.13,595.938
1895.58,591.49
1897.03,597.571
1898.48,596.71
1899.93,582.362
1901.38,584.213
1902.83,579.748
1904.28,575.809
1905.73,579.402
1907.18,588.407
1908.63,588.348
1910.08,581.979
1911.53,572.517
1912.98,564.146
1914.43,570.268
1915.88,574.923
1917.33,564.832
1918.78,565.07
1920.23,575.854
1921.68,576.85
1923.13,575.865
1924.58,574.037
1926.03,568.614
1927.48,570.41
1928.93,577.06
1930.38,574.063
1931.83,571.588
1933.29,555.609
1934.74,573.096
1936.19,577.253
1937.64,554.885
1939.09,564.449
1940.54,558.653
1941.99,571.594
1943.44,572.992
1944.89,573.61
1946.34,574.833
1947.79,561.758
1949.24,573.881
1950.69,564.458
1952.14,579.316
1953.59,582.567
1955.04,571.727
1956.49,579.221
1957.94,575.86
1959.39,568.212
1960.84,575.008
1962.29,572.877
1963.74,578.132
1965.19,582.016
1966.64,581.419
1968.09,591.881
1969.54,597.644
1970.99,598.968
1972.44,601.948
1973.89,590.308
1975.34,590.47
1976.79,596.666
1978.25,595.582
1979.7,588.143
1981.15,589.125
1982.6,593.704
1984.05,587.488
1985.5,592.687
1986.95,588.471
1988.4,580.875
1989.85,596.493
1991.3,591.666
1992.75,592.044
1994.2,594.381
1995.65,598.219
1997.1,600.128
1998.55,595.351
2000,589.939
2001.45,600.394
2002.9,593.417
2004.35,588.672
2005.8,592.174
2007.25,597.113
2008.7,600.431
2010.15,601.269
2011.6,604.532
2013.05,585.339
2014.5,581.195
2015.95,589.41
2017.4,581.979
2018.85,568.28
2020.3,589.012
2021.75,591.24
2023.21,571.778
2024.66,586.826
2026.11,579.882
2027.56,587.919
2029.01,590.845
2030.46,575.805
2031.91,577.253
2033.36,568.123
2034.81,574.718
2036.26,585.21
2037.71,578.742
2039.16,579.656
2040.61,586.48
2042.06,570.085
2043.51,559.109
2044.96,567.138
2046.41,550.76
2047.86,559.767
2049.31,567.284
2050.76,559.947
2052.21,558.786
2053.66,572.336
2055.11,575.566
2056.56,563.107
2058.01,558.143
2059.46,569.826
2060.91,571.168
2062.36,563.667
2063.81,557.652
2065.26,551.19
2066.72,553.344
2068.17,561.775
2069.62,546.068
2071.07,548.542
2072.52,564.717
2073.97,563.454
2075.42,558.58
2076.87,559.808
2078.32,557.334
2079.77,547.095
2081.22,554.934
2082.67,564.692
2084.12,562.105
2085.57,549.372
2087.02,550.218
2088.47,539.561
2089.92,538.857
2091.37,543.978
2092.82,553.389
2094.27,567.321
2095.72,559.473
2097.17,554.703
2098.62,556.658
2100.07,548.911
2101.52,542.221
2102.97,547.577
2104.42,542.169
2105.87,551.385
2107.32,555.164
2108.77,557.619
2110.22,558.746
2111.68,563.036
2113.13,556.097
2114.58,552.66
2116.03,562.083
2117.48,562.435
2118.93,553.493
2120.38,563.8
2121.83,563.126
2123.28,546.757
2124.73,556.777
2126.18,563.712
2127.63,559.704
2129.08,561.761
2130.53,565.918
2131.98,569.771
2133.43,569.385
2134.88,569.339
2136.33,565.841
2137.78,570.597
2139.23,570.401
2140.68,569.567
2142.13,564
2143.58,563.086
2145.03,581.781
2146.48,582.839
2147.93,575.932
2149.38,568.248
2150.83,569.459
2152.28,578.124
2153.73,578.543
2155.18,571.474
2156.64,574.845
2158.09,575.543
2159.54,573.546
2160.99,580.361
2162.44,581.321
2163.89,581.915
2165.34,576.686
2166.79,580.391
2168.24,598.555
2169.69,593.67
2171.14,585.83
2172.59,586.576
2174.04,587.772
2175.49,592.323
2176.94,593.872
2178.39,589.288
2179.84,590.169
2181.29,590.866
2182.74,594.529
2184.19,593.29
2185.64,588.878
2187.09,592.939
2188.54,598.066
2189.99,598.24
2191.44,594.578
2192.89,601.621
2194.34,601.357
2195.79,601.236
2197.24,606.642
2198.69,604.72
2200.15,595.913
2201.6,597.054
2203.05,597.407
2204.5,610.46
2205.95,607.214
2207.4,609.954
2208.85,604.577
2210.3,609.138
2211.75,615.342
2213.2,617.578
2214.65,612.152
2216.1,612.215
2217.55,616.926
2219,620.915
2220.45,604.416
2221.9,618.973
2223.35,626.851
2224.8,625.666
2226.25,615.337
2227.7,604.76
2229.15,623.38
2230.6,633.042
2232.05,632.629
2233.5,617.623
2234.95,622.195
2236.4,622.303
2237.85,625.052
2239.3,610.289
2240.75,614.455
2242.2,628.637
2243.65,637.468
2245.11,621.287
2246.56,636.067
2248.01,630.409
2249.46,628.546
2250.91,641.194
2252.36,634.709
2253.81,630.288
2255.26,637.399
2256.71,627.71
2258.16,634.281
2259.61,642.664
2261.06,638.405
2262.51,622.854
2263.96,640.832
2265.41,646.991
2266.86,637.858
2268.31,625.873
2269.76,635.795
2271.21,649.39
2272.66,642.311
2274.11,641.319
2275.56,631.911
2277.01,633.472
2278.46,652.14
2279.91,652.422
2281.36,664.945
2282.81,668.428
2284.26,646.611
2285.71,646.299
2287.16,656.293
2288.61,666.68
2290.07,657.097
2291.52,646.037
2292.97,661.122
2294.42,664.974
2295.87,667.886
2297.32,669.492
2298.77,652.975
2300.22,669.553
2301.67,692.891
2303.12,692.036
2304.57,682.113
2306.02,669.949
2307.47,674.267
2308.92,672.201
2310.37,681.509
2311.82,678.753
2313.27,688.334
2314.72,674.509
2316.17,695.322
2317.62,681.345
2319.07,688.892
2320.52,700.904
2321.97,691.236
2323.42,693.487
2324.87,714.377
2326.32,699.519
2327.77,702.122
2329.22,696.971
2330.67,716.685
2332.12,719.59
2333.57,722
2335.03,723.838
2336.48,705.739
2337.93,704.699
2339.38,719.359
2340.83,734.066
2342.28,728.576
2343.73,735.634
2345.18,728.564
2346.63,738.693
2348.08,749.93
2349.53,750.935
2350.98,749.058
2352.43,760.76
2353.88,756.575
2355.33,759.525
2356.78,761.65
2358.23,776.341
2359.68,768.448
2361.13,778.47
2362.58,800.086
2364.03,805.156
2365.48,789.333
2366.93,793.485
2368.38,812.687
2369.83,813.71
2371.28,809.278
2372.73,814.719
2374.18,839.931
2375.63,849.083
2377.08,854.248
2378.54,858.586
2379.99,858.795
2381.44,866.245
2382.89,891.758
2384.34,899.851
2385.79,893.176
2387.24,902.087
2388.69,921.718
2390.14,936.385
2391.59,953.446
2393.04,952.687
2394.49,957.317
2395.94,973.936
2397.39,966.328
2398.84,969.782
2400.29,1014.55
2401.74,1033.24
2403.19,1037.73
2404.64,1042.49
2406.09,1045.19
2407.54,1074.59
2408.99,1063.98
2410.44,1072.83
2411.89,1069.21
2413.34,1096.7
2414.79,1109.7
2416.24,1090.21
2417.69,1116.66
2419.14,1110.81
2420.59,1121.02
2422.04,1127.91
2423.5,1122.43
2424.95,1133.62
2426.4,1142.47
2427.85,1141.11
2429.3,1125.83
2430.75,1123.28
2432.2,1112
2433.65,1118.53
2435.1,1122.86
2436.55,1132.32
2438,1103.83
2439.45,1110.81
2440.9,1114.17
2442.35,1110.38
2443.8,1090.94
2445.25,1085.63
2446.7,1102.34
2448.15,1088.15
2449.6,1082.13
2451.05,1088.41
2452.5,1072.42
2453.95,1079.7
2455.4,1071.57
2456.85,1062.51
2458.3,1045.3
2459.75,1020.42
2461.2,1028.29
2462.65,1028.8
2464.1,1033.93
2465.55,1042.15
2467.01,1051.04
2468.46,1024.24
2469.91,1049.2
2471.36,1046.26
2472.81,1030.58
2474.26,1022.43
2475.71,1017.08
2477.16,1041.87
2478.61,1033.75
2480.06,1026.91
2481.51,1032.2
2482.96,1014.34
2484.41,1027.91
2485.86,1022.11
2487.31,1026.91
2488.76,1026.23
2490.21,1029.43
2491.66,1021.32
2493.11,1028.56
2494.56,1050.86
2496.01,1038.27
2497.46,1042.3
2498.91,1040.43
2500.36,1060.04
2501.81,1053.55
2503.26,1049.59
2504.71,1067.82
2506.16,1076.5
2507.61,1064.07
2509.06,1074.69
2510.51,1075.22
2511.97,1069.24
2513.42,1055.67
2514.87,1088.89
2516.32,1088.1
2517.77,1081.14
2519.22,1096.31
2520.67,1099.68
2522.12,1097.83
2523.57,1116.78
2525.02,1148.46
2526.47,1157.41
2527.92,1159.86
2529.37,1161.89
2530.82,1186.6
2532.27,1195.88
2533.72,1193.9
2535.17,1204.19
2536.62,1207.91
2538.07,1233.96
2539.52,1223.03
2540.97,1248.7
2542.42,1263.05
2543.87,1265.15
2545.32,1293.06
2546.77,1287.69
2548.22,1324.63
2549.67,1356.65
2551.12,1370.23
2552.57,1379.52
2554.02,1381.04
2555.48,1388.2
2556.93,1415.97
2558.38,1449.39
2559.83,1466.85
2561.28,1484.48
2562.73,1506.09
2564.18,1560.27
2565.63,1566.71
2567.08,1607.65
2568.53,1622.97
2569.98,1696.47
2571.43,1726.01
2572.88,1749.9
2574.33,1778.89
2575.78,1821.04
2577.23,1854.51
2578.68,1892.99
2580.13,1940.26
2581.58,1964.68
2583.03,1990.35
2584.48,2058.63
2585.93,2111.06
2587.38,2156.06
2588.83,2247.69
2590.28,2278.46
2591.73,2323.38
2593.18,2413.83
2594.63,2500.63
2596.08,2558.3
2597.53,2639.48
2598.98,2747.93
2600.44,2824.81
2601.89,2902.82
2603.34,3004.45
2604.79,3110.09
2606.24,3183.02
2607.69,3305.41
2609.14,3412.79
2610.59,3543.22
2612.04,3640.09
2613.49,3805.02
2614.94,3888.06
2616.39,3997.46
2617.84,4193.19
2619.29,4309.17
2620.74,4459.81
2622.19,4646.21
2623.64,4799.55
2625.09,4922.06
2626.54,5072.02
2627.99,5224.39
2629.44,5404
2630.89,5521.3
2632.34,5681.41
2633.79,5862.35
2635.24,6025.42
2636.69,6199.61
2638.14,6321.29
2639.59,6439.66
2641.04,6602.96
2642.49,6752.82
2643.94,6853.76
2645.4,6957.99
2646.85,7032.65
2648.3,7126.01
2649.75,7181.74
2651.2,7225.9
2652.65,7252.23
2654.1,7204.17
2655.55,7219.45
2657,7253.48
2658.45,7195.4
2659.9,7178.67
2661.35,7150.47
2662.8,7082.2
2664.25,6955.52
2665.7,6847.93
2667.15,6765.74
2668.6,6647.41
2670.05,6454.25
2671.5,6279.3
2672.95,6211.71
2674.4,5990.16
2675.85,5890.66
2677.3,5699.65
2678.75,5526.79
2680.2,5367.39
2681.65,5161.7
2683.1,5022.83
2684.55,4876.1
2686,4739.09
2687.45,4566.92
2688.91,4365.99
2690.36,4216.52
2691.81,4035.67
2693.26,3883.62
2694.71,3755.02
2696.16,3625.36
2697.61,3434.88
2699.06,3369.34
2700.51,3276.4
2701.96,3157.98
2703.41,3033.7
2704.86,2913.9
2706.31,2805.73
2707.76,2711.29
2709.21,2607.93
2710.66,2498.17
2712.11,2415.94
2713.56,2348.25
2715.01,2275.39
2716.46,2265.07
2717.91,2155.55
2719.36,2105.42
2720.81,2033.37
2722.26,1947.57
2723.71,1924.03
2725.16,1886.74
2726.61,1819.97
2728.06,1780.65
2729.51,1765.29
2730.96,1694.43
2732.41,1679.41
2733.87,1637.36
2735.32,1576.99
2736.77,1559.13
2738.22,1524.02
2739.67,1510.71
2741.12,1476.15
2742.57,1453.68
2744.02,1445.15
2745.47,1377.5
2746.92,1381.73
2748.37,1352.72
2749.82,1346.22
2751.27,1316.55
2752.72,1289
2754.17,1296.95
2755.62,1256.03
2757.07,1228.44
2758.52,1230.38
2759.97,1214.22
2761.42,1201.63
2762.87,1203.49
2764.32,1167.51
2765.77,1165.89
2767.22,1166.58
2768.67,1142.57
2770.12,1128.87
2771.57,1130.78
2773.02,1111.12
2774.47,1109.94
2775.92,1097.15
2777.38,1092.03
2778.83,1081.38
2780.28,1070.24
2781.73,1056.35
2783.18,1032.68
2784.63,1060.15
2786.08,1025.54
2787.53,1030.75
2788.98,1025.21
2790.43,1011.27
2791.88,1012.42
2793.33,1006.1
2794.78,984.465
2796.23,997.797
2797.68,979.218
2799.13,996.604
2800.58,975.889
2802.03,968.121
2803.48,955.023
2804.93,979.318
2806.38,970.199
2807.83,951.335
2809.28,946.313
2810.73,947.498
2812.18,933.882
2813.63,947.164
2815.08,932.305
2816.53,933.114
2817.98,930.386
2819.43,934.808
2820.88,930.912
2822.33,917.454
2823.79,906.049
2825.24,914.418
2826.69,918.414
2828.14,914.985
2829.59,903.48
2831.04,908.094
2832.49,888.796
2833.94,891.316
2835.39,903.73
2836.84,894.136
2838.29,872.678
2839.74,867.23
2841.19,873.02
2842.64,888.112
2844.09,884.383
2845.54,876.615
2846.99,855.249
2848.44,889.572
2849.89,878.342
2851.34,876.182
2852.79,879.736
2854.24,877.266
2855.69,872.494
2857.14,871.001
2858.59,872.569
2860.04,853.605
2861.49,889.013
2862.94,853.13
2864.39,861.389
2865.84,875.906
2867.3,878.993
2868.75,864.009
2870.2,862.399
2871.65,859.479
2873.1,854.515
2874.55,847.265
2876,844.512
2877.45,863.776
2878.9,868.122
2880.35,840.615
2881.8,843.727
2883.25,858.378
2884.7,861.523
2886.15,858.745
2887.6,854.465
2889.05,859.387
2890.5,865.419
2891.95,853.555
2893.4,855.558
2894.85,849.426
2896.3,852.93
2897.75,852.454
2899.2,853.914
2900.65,855.558
2902.1,853.998
2903.55,840.599
2905,845.98
2906.45,852.054
2907.9,845.287
2909.35,841.041
2910.8,836.686
2912.26,826.649
2913.71,835.309
2915.16,826.195
2916.61,831.197
2918.06,813.84
2919.51,834.834
2920.96,824.873
2922.41,836.185
2923.86,825.056
2925.31,818.563
2926.76,826.721
2928.21,822.017
2929.66,816.125
2931.11,808.935
2932.56,808.984
2934.01,807.54
2935.46,791.558
2936.91,790.25
2938.36,790.687
2939.81,789.444
2941.26,784.727
2942.71,780.961
2944.16,792.138
2945.61,789.652
2947.06,775.325
2948.51,775.097
2949.96,767.167
2951.41,774.094
2952.86,778.602
2954.31,774.765
2955.77,758.124
2957.22,757.104
2958.67,748.044
2960.12,763.031
2961.57,742.548
2963.02,755.151
2964.47,751.244
2965.92,754.184
2967.37,748.744
2968.82,748.577
2970.27,745.468
2971.72,745.367
2973.17,736.575
2974.62,735.253
2976.07,729.152
2977.52,725.775
2978.97,727.418
2980.42,732.934
2981.87,726.333
2983.32,727.222
2984.77,723.485
2986.22,726.698
2987.67,725.329
2989.12,736.244
2990.57,726.639
2992.02,728.958
2993.47,729.385
2994.92,730.228
2996.37,721.532
2997.82,730.33
2999.27,736.38
3000.73,718.782
3002.18,725.564
3003.63,707.368
3005.08,726.428
3006.53,728.396
3007.98,725.331
3009.43,726.46
3010.88,719.472
3012.33,711.989
3013.78,702.952
3015.23,711.223
3016.68,718.245
3018.13,725.741
3019.58,702.187
3021.03,701.756
3022.48,706.115
3023.93,714.074
3025.38,718.924
3026.83,723.102
3028.28,721.636
3029.73,726.529
3031.18,718.247
3032.63,709.579
3034.08,727.117
3035.53,709.583
3036.98,715.696
3038.43,698.115
3039.88,709.272
3041.33,738.963
3042.78,735.664
3044.23,719.575
3045.69,719.514
3047.14,714.413
3048.59,710.809
3050.04,717.333
3051.49,699.204
3052.94,716.457
3054.39,719.269
3055.84,706.311
3057.29,721.231
3058.74,725.163
3060.19,744.657
3061.64,729.697
3063.09,740.269
3064.54,733.5
3065.99,728.391
3067.44,734.231
3068.89,742.359
3070.34,741.38
3071.79,729.271
3073.24,744.036
3074.69,750.972
3076.14,756.946
3077.59,756.573
3079.04,766.595
3080.49,774.526
3081.94,773.677
3083.39,747.489
3084.84,769.107
3086.29,787.995
3087.74,769.462
3089.2,783.576
3090.65,793.789
3092.1,811.544
3093.55,801.752
3095,804.992
3096.45,805.217
3097.9,811.392
3099.35,807.598
3100.8,812.247
3102.25,832.628
3103.7,822.399
3105.15,853.138
3106.6,859.087
3108.05,858.645
3109.5,855.816
3110.95,869.19
3112.4,878.801
3113.85,887.169
3115.3,859.395
3116.75,884.399
3118.2,916.203
3119.65,909.32
3121.1,923.904
3122.55,939.046
3124,933.94
3125.45,933.732
3126.9,950.626
3128.35,952.495
3129.8,941.257
3131.25,960.171
3132.7,961.597
3134.16,955.031
3135.61,962.548
3137.06,951.068
3138.51,957.718
3139.96,987.194
3141.41,990.689
3142.86,991.649
3144.31,993.576
3145.76,981.879
3147.21,991.482
3148.66,1020.87
3150.11,1011.97
3151.56,1000.63
3153.01,1002.19
3154.46,1009.68
3155.91,996.262
3157.36,1020.28
3158.81,1014.13
3160.26,1026.03
3161.71,1021.41
3163.16,1014.78
3164.61,1026.24
3166.06,1018.12
3167.51,1027.68
3168.96,1032.02
3170.41,1056.27
3171.86,1072.13
3173.31,1057.71
3174.76,1062.34
3176.21,1066.54
3177.67,1066.44
3179.12,1088.69
3180.57,1080.28
3182.02,1082.49
3183.47,1099.55
3184.92,1103.48
3186.37,1112.12
3187.82,1110.3
3189.27,1098.67
3190.72,1106.19
3192.17,1106.35
3193.62,1105.23
3195.07,1099.33
3196.52,1095.03
3197.97,1096.9
3199.42,1093.93
3200.87,1073.11
3202.32,1091.36
3203.77,1064.35
3205.22,1047.02
3206.67,1033.67
3208.12,1076.78
3209.57,1042.61
3211.02,1019.56
3212.47,1008.85
3213.92,1014.03
3215.37,1004.98
3216.82,989.555
3218.27,994.21
3219.72,975.33
3221.17,964.05
3222.63,954.28
3224.08,951.736
3225.53,935.409
3226.98,909.445
3228.43,906.834
3229.88,893.994
3231.33,880.028
3232.78,857.986
3234.23,852.938
3235.68,835.735
3237.13,804.586
3238.58,830.855
3240.03,831.375
3241.48,813.048
3242.93,798.396
3244.38,790.775
3245.83,771.582
3247.28,764.54
3248.73,762.704
3250.18,772.745
3251.63,760.18
3253.08,746.038
3254.53,743.913
3255.98,726.103
3257.43,720.48
3258.88,729.684
3260.33,716.642
3261.78,732.247
3263.23,725.237
3264.68,705.369
3266.13,721.247
3267.59,736.324
3269.04,715.842
3270.49,707.216
3271.94,720.563
3273.39,701.513
3274.84,692.661
3276.29,720.386
3277.74,690.28
3279.19,694.319
3280.64,709.26
3282.09,707.523
3283.54,702.646
3284.99,688.883
3286.44,694.125
3287.89,698.705
3289.34,680.615
3290.79,692.625
3292.24,696.378
3293.69,694.817
3295.14,693.545
3296.59,692.17
3298.04,684.225
3299.49,693.787
3300.94,691.634
3302.39,707.337
3303.84,688.509
3305.29,685.975
3306.74,694.397
3308.19,689.624
3309.64,691.052
3311.09,698.306
3312.55,694.852
3314,708.225
3315.45,697.447
3316.9,691.707
3318.35,686.976
3319.8,682.495
3321.25,693.971
3322.7,684.615
3324.15,684.726
3325.6,700.383
3327.05,700.454
3328.5,683.312
3329.95,689.621
3331.4,704.947
3332.85,689.171
3334.3,688.563
3335.75,683.322
3337.2,687.343
3338.65,678.89
3340.1,693.956
3341.55,682.424
3343,683.45
3344.45,681.287
3345.9,685.487
3347.35,653.158
3348.8,687.306
3350.25,691.295
3351.7,698.386
3353.15,698.107
3354.6,690.667
3356.06,686.068
3357.51,698.735
3358.96,669.513
3360.41,676.112
3361.86,680.155
3363.31,690.04
3364.76,671.531
3366.21,682.786
3367.66,700.129
3369.11,697.068
3370.56,693.022
3372.01,694.908
3373.46,675.789
3374.91,700.039
3376.36,702.465
3377.81,693.246
3379.26,680.346
3380.71,702.924
3382.16,708.613
3383.61,697.971
3385.06,692.43
3386.51,685.149
3387.96,694.358
3389.41,710.792
3390.86,709.111
3392.31,685.755
3393.76,692.983
3395.21,699.524
3396.66,677.139
3398.11,699.232
3399.56,696.447
3401.02,697.183
3402.47,696.477
3403.92,688.07
3405.37,699.09
3406.82,682.435
3408.27,707.104
3409.72,694.466
3411.17,697.311
3412.62,684.339
3414.07,704.298
3415.52,683.697
3416.97,701.669
3418.42,700.678
3419.87,694.701
3421.32,691.24
3422.77,690.64
3424.22,698.834
3425.67,712.878
3427.12,720.62
3428.57,699.552
3430.02,702.921
3431.47,698.48
3432.92,685.578
3434.37,696.016
3435.82,705.673
3437.27,706.89
3438.72,710.72
3440.17,695.287
3441.62,699.205
3443.07,702.38
3444.52,710.013
3445.98,701.133
3447.43,681.141
3448.88,688.389
3450.33,693.151
3451.78,699.101
3453.23,711.958
3454.68,697.316
3456.13,701.367
3457.58,719.028
3459.03,701.231
3460.48,697.145
3461.93,698.731
3463.38,692.718
3464.83,706.803
3466.28,706.378
3467.73,689.78
3469.18,712.194
3470.63,705.445
3472.08,702.374
3473.53,698.429
3474.98,704.521
3476.43,684.026
3477.88,716.778
3479.33,708.185
3480.78,706.024
3482.23,713.649
3483.68,709.59
3485.13,702.628
3486.58,707.693
3488.03,698.18
3489.49,698.029
3490.94,699.256
3492.39,700.37
3493.84,710.899
3495.29,698.664
3496.74,707.752
3498.19,697.866
3499.64,722.718
3501.09,698.327
3502.54,721.688
3503.99,712.818
3505.44,700.711
3506.89,717.526
3508.34,715.384
3509.79,726.927
3511.24,723.039
3512.69,721.99
3514.14,712.808
3515.59,719.791
3517.04,742.345
3518.49,724.659
3519.94,712.724
3521.39,698.73
3522.84,730.842
3524.29,715.118
3525.74,706.77
3527.19,724.7
3528.64,716.959
3530.09,721.692
3531.54,705.491
3532.99,707.524
3534.45,715.546
3535.9,732.519
3537.35,714.045
3538.8,714.319
3540.25,701.86
3541.7,704.475
3543.15,708.438
3544.6,713.929
3546.05,734.217
3547.5,726.302
3548.95,732.239
3550.4,728.31
3551.85,728.314
3553.3,705.229
3554.75,710.662
3556.2,711.591
3557.65,725.054
3559.1,718.213
3560.55,714.437
3562,705.511
3563.45,730.295
3564.9,728.335
3566.35,714.825
3567.8,731.728
3569.25,718.892
3570.7,727.108
3572.15,728.905
3573.6,731.87
3575.05,727.613
3576.5,707.054
3577.96,704.893
3579.41,722.789
3580.86,717.02
3582.31,726.803
3583.76,732.62
3585.21,730.912
3586.66,724.896
3588.11,736.084
3589.56,721.219
3591.01,733.488
3592.46,741.914
3593.91,722.273
3595.36,724.781
3596.81,735.638
3598.26,731.737
3599.71,718.596
3601.16,728.707
3602.61,737.037
3604.06,727.898
3605.51,726.331
3606.96,725.07
3608.41,736.255
3609.86,729.903
3611.31,738.645
3612.76,722.198
3614.21,721.306
3615.66,750.509
3617.11,727.849
3618.56,736.202
3620.01,730.156
3621.46,738.718
3622.92,737.694
3624.37,738.192
3625.82,738.386
3627.27,741.031
3628.72,719.13
3630.17,730.124
3631.62,740.33
3633.07,724.481
3634.52,738.715
3635.97,740.305
3637.42,738.567
3638.87,744.647
3640.32,724.419
3641.77,753.888
3643.22,755.348
3644.67,743.711
3646.12,744.169
3647.57,746.44
3649.02,742.797
3650.47,751.49
3651.92,745.371
3653.37,752.56
3654.82,748.567
3656.27,744.775
3657.72,741.632
3659.17,752.642
3660.62,758.564
3662.07,751.474
3663.52,749.471
3664.97,752.949
3666.43,748.338
3667.88,762.079
3669.33,739.542
3670.78,743.09
3672.23,751.616
3673.68,758.957
3675.13,759.06
3676.58,762.013
3678.03,750.433
3679.48,762.139
3680.93,767.532
3682.38,750.933
3683.83,750.041
3685.28,748.716
3686.73,766.268
3688.18,760.059
3689.63,761.808
3691.08,754.752
3692.53,766.582
3693.98,758.192
3695.43,765.73
3696.88,757.877
3698.33,749.257
3699.78,749.33
3701.23,758.632
3702.68,761.777
3704.13,775.517
3705.58,761.629
3707.03,775.374
3708.48,760.732
3709.93,757.243
3711.39,765.904
3712.84,746.496
3714.29,771.179
3715.74,763.818
3717.19,765.603
3718.64,770.603
3720.09,765.035
3721.54,764.686
3722.99,764.668
3724.44,768.692
3725.89,760.1
3727.34,750.957
3728.79,753.609
3730.24,750.467
3731.69,773.324
3733.14,770.507
3734.59,772.803
3736.04,763.033
3737.49,765.679
3738.94,775.041
3740.39,788.514
3741.84,762.336
3743.29,785.026
3744.74,791.958
3746.19,770.187
3747.64,779.424
3749.09,786.739
3750.54,766.826
3751.99,770.443
3753.44,775.326
3754.89,777.137
3756.35,784.883
3757.8,781.073
3759.25,780.588
3760.7,781.227
3762.15,778.51
3763.6,769.516
3765.05,783.65
3766.5,783.175
3767.95,787.703
3769.4,784.979
3770.85,782.337
3772.3,775.27
3773.75,776.611
3775.2,782.412
3776.65,779.876
3778.1,791.799
3779.55,780.599
3781,793.013
3782.45,802.516
3783.9,788.278
3785.35,776.393
3786.8,806.094
3788.25,776.118
3789.7,791.374
3791.15,778.795
3792.6,802.807
3794.05,786.818
3795.5,776.581
3796.95,782.9
3798.4,774.487
3799.85,792.359
3801.31,792.789
3802.76,776.826
3804.21,811.712
3805.66,808.607
3807.11,809.227
3808.56,801.499
3810.01,808.407
3811.46,814.025
3812.91,812.273
3814.36,800.235
3815.81,800.86
3817.26,804.547
3818.71,803.962
3820.16,812.147
3821.61,814.129
3823.06,799.066
3824.51,794.127
3825.96,809.831
3827.41,810.54
3828.86,809.165
3830.31,817.137
3831.76,809.393
3833.21,814.377
3834.66,826.548
3836.11,824.666
3837.56,819.6
3839.01,814.044
3840.46,814.377
3841.91,807.233
3843.36,805.851
3844.82,783.09
3846.27,811.375
3847.72,821.859
3849.17,819.999
3850.62,834.021
3852.07,824.067
3853.52,819.599
3854.97,820.806
3856.42,819.762
3857.87,819.609
3859.32,827.922
3860.77,824.163
3862.22,822.728
3863.67,832.419
3865.12,830.721
3866.57,822.827
3868.02,823.073
3869.47,841.158
3870.92,822.498
3872.37,818.287
3873.82,831.311
3875.27,848.074
3876.72,857.051
3878.17,853.172
3879.62,831.116
3881.07,836.194
3882.52,835.568
3883.97,837.846
3885.42,847.223
3886.87,846.522
3888.32,853.656
3889.78,841.208
3891.23,848.6
3892.68,844.587
3894.13,842.709
3895.58,849.559
3897.03,860.163
3898.48,861.948
3899.93,868.414
3901.38,863.967
3902.83,846.631
3904.28,865.744
3905.73,867.814
3907.18,868.74
3908.63,853.347
3910.08,863.959
3911.53,860.739
3912.98,874.797
3914.43,867.505
3915.88,868.898
3917.33,859.487
3918.78,852.996
3920.23,870.15
3921.68,875.631
3923.13,887.378
3924.58,872.144
3926.03,879.594
3927.48,876.031
3928.93,906.642
3930.38,875.231
3931.83,879.502
3933.28,883.323
3934.74,887.678
3936.19,903.163
3937.64,893.168
3939.09,879.402
3940.54,903.738
3941.99,893.877
3943.44,887.445
3944.89,891.566
3946.34,900.702
3947.79,910.355
3949.24,903.713
3950.69,906.7
3952.14,912.065
3953.59,916.945
3955.04,919.924
3956.49,893.201
3957.94,923.712
3959.39,902.904
3960.84,900.61
3962.29,907.868
3963.74,903.296
3965.19,895.938
3966.64,930.236
3968.09,908.936
3969.54,926.123
3970.99,904.631
3972.44,922.485
3973.89,919.357
3975.34,939.764
3976.79,934.958
3978.25,941.04
3979.7,938.737
3981.15,929.068
3982.6,934.549
3984.05,943.209
3985.5,947.397
3986.95,959.862
3988.4,943.885
3989.85,948.048
3991.3,944.277
3992.75,950.376
3994.2,961.847
3995.65,941.641
3997.1,988.879
3998.55,948.248
4000,950.284
