0.3,4.01397
1.45033,4.01397
2.90065,4.01397
4.35098,4.01397
5.80131,4.01397
7.25163,4.01397
8.70196,16.7927
10.1523,7.36636
11.6026,5.80446
13.0529,6.44437
14.5033,7.20584
15.9536,6.53062
17.4039,2.61901
18.8542,0.22399
20.3046,0.176566
21.7549,1.55893
23.2052,3.2236
24.6555,3.02787
26.1059,2.1605
27.5562,0.613032
29.0065,0.14281
30.4569,2.95702
31.9072,1.38991
33.3575,1.29402
34.8078,1.12865
36.2582,0.616432
37.7085,1.20445
39.1588,0.164857
40.6091,1.27311
42.0595,3.55325
43.5098,5.57659
44.9601,6.36123
46.4104,6.0155
47.8608,9.30475
49.3111,16.2666
50.7614,24.5453
52.2117,61.0599
53.6621,118.674
55.1124,205.309
56.5627,322.335
58.0131,461.604
59.4634,598.046
60.9137,720.367
62.364,806.083
63.8144,844.674
65.2647,915.444
66.715,945.804
68.1653,972.084
69.6157,1001.83
71.066,1030.07
72.5163,1042.46
73.9666,1038.81
75.417,1029.55
76.8673,1030.65
78.3176,1073.96
79.7679,1082.16
81.2183,1099.85
82.6686,1130.75
84.1189,1170.53
85.5693,1196.73
87.0196,1204.09
88.4699,1203.13
89.9202,1177.56
91.3706,1105.97
92.8209,1046.82
94.2712,992.701
95.7215,932.74
97.1719,877.967
98.6222,862.185
100.073,831.432
101.523,795.656
102.973,763.067
104.423,738.03
105.874,717.891
107.324,701.328
108.774,693.348
110.225,681.078
111.675,657.567
113.125,662.704
114.576,673.021
116.026,667.199
117.476,646.331
118.927,621.353
120.377,628.282
121.827,615.252
123.278,607.952
124.728,607.578
126.178,598.278
127.629,585.228
129.079,571.729
130.529,562.727
131.98,557.344
133.43,545.859
134.88,531.934
136.331,513.936
137.781,505.77
139.231,508.581
140.682,485.989
142.132,491.964
143.582,482.569
145.033,466.868
146.483,457.202
147.933,442.128
149.384,455.162
150.834,451.087
152.284,435.186
153.735,426.932
155.185,444.796
156.635,429.753
158.086,424.017
159.536,431.956
160.986,441.187
162.437,439.797
163.887,424.483
165.337,406.765
166.788,392.861
168.238,386.025
169.688,387.816
171.139,379.211
172.589,374.245
174.039,372.844
175.489,360.895
176.94,384.335
178.39,390.168
179.84,388.709
181.291,385.246
182.741,377.283
184.191,367.964
185.642,359.167
187.092,349.334
188.542,343.519
189.993,359.875
191.443,346.416
192.893,346.306
194.344,354.025
195.794,357.741
197.244,337.404
198.695,341.948
200.145,343.188
201.595,338.422
203.046,330.223
204.496,328.626
205.946,336.779
207.397,341.488
208.847,346.586
210.297,352.454
211.748,344.665
213.198,345.646
214.648,348.639
216.099,347.859
217.549,342.391
218.999,344.789
220.45,352.12
221.9,347.725
223.35,337.784
224.801,332.117
226.251,343.517
227.701,340.108
229.152,347.165
230.602,342.218
232.052,320.217
233.503,337.851
234.953,338.881
236.403,339.693
237.854,340.5
239.304,340.429
240.754,340.028
242.204,336.829
243.655,333.969
245.105,326.723
246.555,316.611
248.006,319.818
249.456,321.136
250.906,326.545
252.357,332.317
253.807,331.228
255.257,310.539
256.708,315.74
258.158,320.524
259.608,323.129
261.059,325.308
262.509,332.143
263.959,303.983
265.41,300.217
266.86,300.454
268.31,302.243
269.761,322.658
271.211,312.597
272.661,308.553
274.112,302.115
275.562,297.989
277.012,308.968
278.463,308.163
279.913,310.571
281.363,307.739
282.814,304.215
284.264,308.466
285.714,297.785
287.165,300.533
288.615,304.184
290.065,298.932
291.516,282.873
292.966,292.957
294.416,303.571
295.867,296.908
297.317,287.385
298.767,288.096
300.218,283.862
301.668,286.639
303.118,287.887
304.569,276.675
306.019,259.235
307.469,275.395
308.919,268.221
310.37,269.952
311.82,269.111
313.27,263.399
314.721,262.992
316.171,262.386
317.621,264.92
319.072,258.521
320.522,252.377
321.972,264.93
323.423,263.919
324.873,255.149
326.323,254.632
327.774,260.262
329.224,263.319
330.674,254.003
332.125,262.579
333.575,263.051
335.025,256.04
336.476,247.884
337.926,247.276
339.376,246.28
340.827,249.666
342.277,251.852
343.727,252.503
345.178,256.913
346.628,243.321
348.078,249.504
349.529,262.46
350.979,268.934
352.429,259.046
353.88,244.023
355.33,252.192
356.78,257.273
358.231,257.836
359.681,256.483
361.131,250.591
362.582,241.252
364.032,237.053
365.482,239.723
366.933,244.116
368.383,238.704
369.833,236.668
371.284,233.34
372.734,233.246
374.184,233.766
375.635,232.045
377.085,246.292
378.535,253.017
379.986,241.989
381.436,233.092
382.886,239.041
384.336,244.337
385.787,238.372
387.237,233.871
388.687,236.106
390.138,242.518
391.588,244.767
393.038,241.097
394.489,231.791
395.939,236.49
397.389,243.118
398.84,236.917
400.29,227.122
401.74,241.598
403.191,233.906
404.641,232.859
406.091,241.251
407.542,228.749
408.992,235.08
410.442,242.412
411.893,243.927
413.343,243.382
414.793,244.36
416.244,233.118
417.694,241.871
419.144,242.564
420.595,234.876
422.045,228.214
423.495,237.423
424.946,235.173
426.396,232.088
427.846,226.631
429.297,230.138
430.747,245.71
432.197,228.696
433.648,237.4
435.098,234.401
436.548,228.097
437.999,226.134
439.449,228.824
440.899,220.216
442.35,231.861
443.8,231.355
445.25,225.715
446.701,229.74
448.151,241.24
449.601,239.594
451.051,237.335
452.502,235.716
453.952,230.663
455.402,218.69
456.853,232.872
458.303,228.871
459.753,229.174
461.204,229.805
462.654,227.063
464.104,228.494
465.555,225.411
467.005,229.761
468.455,234.259
469.906,230.71
471.356,219.82
472.806,238.351
474.257,240.701
475.707,235.742
477.157,234.753
478.608,240.022
480.058,242.796
481.508,221.18
482.959,231.537
484.409,233.164
485.859,232.663
487.31,236.339
488.76,226.271
490.21,238.841
491.661,245.242
493.111,237.262
494.561,223.996
496.012,220.516
497.462,232.063
498.912,224.399
500.363,228.633
501.813,230.214
503.263,226.436
504.714,227.037
506.164,235.087
507.614,232.518
509.065,230.13
510.515,230.216
511.965,229.834
513.416,222.981
514.866,227.738
516.316,233.013
517.766,233.696
519.217,231.104
520.667,228.192
522.117,226.774
523.568,231.536
525.018,227.049
526.468,223.517
527.919,222.908
529.369,226.227
530.819,243.218
532.27,226.705
533.72,231.176
535.17,230.727
536.621,227.074
538.071,234.297
539.521,236.369
540.972,230.281
542.422,233.661
543.872,230.769
545.323,226.623
546.773,236.671
548.223,231.688
549.674,230.871
551.124,234.72
552.574,236.976
554.025,235.251
555.475,232.11
556.925,230.656
558.376,229.386
559.826,226.561
561.276,226.068
562.727,225.748
564.177,219.18
565.627,227.5
567.078,223.558
568.528,217.376
569.978,216.778
571.429,220.656
572.879,220.027
574.329,227.106
575.78,220.176
577.23,224.533
578.68,229.268
580.131,229.673
581.581,235.355
583.031,222.851
584.482,229.066
585.932,227.933
587.382,226.428
588.832,226.767
590.283,219.25
591.733,219.25
593.183,224.009
594.634,231.986
596.084,227.11
597.534,211.981
598.985,209.679
600.435,211.767
601.885,223.875
603.336,226.989
604.786,228.936
606.236,231.63
607.687,228.059
609.137,226.178
610.587,228.839
612.038,233.309
613.488,233.495
614.938,231.564
616.389,233.883
617.839,228.863
619.289,234.906
620.74,226.013
622.19,224.208
623.64,227.297
625.091,219.811
626.541,218.554
627.991,226.721
629.442,236.109
630.892,237.502
632.342,231.261
633.793,224.057
635.243,223.009
636.693,236.091
638.144,235.066
639.594,229.558
641.044,227.918
642.495,232.956
643.945,238.689
645.395,221.273
646.846,234.558
648.296,240.704
649.746,240.057
651.197,238.958
652.647,236.316
654.097,237.156
655.547,241.357
656.998,241.574
658.448,237.641
659.898,234.106
661.349,235.392
662.799,232.659
664.249,239.242
665.7,241.159
667.15,237.085
668.6,238.056
670.051,248.845
671.501,242.745
672.951,240.851
674.402,243.244
675.852,245.557
677.302,240.927
678.753,233.586
680.203,241.448
681.653,244.401
683.104,247.166
684.554,241.258
686.004,241.013
687.455,244.536
688.905,238.615
690.355,243.043
691.806,250.698
693.256,243.411
694.706,245.905
696.157,250.201
697.607,245.757
699.057,254.455
700.508,245.155
701.958,241.42
703.408,241.625
704.859,242.602
706.309,239.776
707.759,233.08
709.21,250.831
710.66,249.828
712.11,246.865
713.561,243.813
715.011,243.806
716.461,247.5
717.912,247.352
719.362,241.422
720.812,254.261
722.263,256.378
723.713,256.614
725.163,255.947
726.613,242.364
728.064,245.328
729.514,240.506
730.964,243.291
732.415,253.166
733.865,253.794
735.315,242.491
736.766,252.921
738.216,251.223
739.666,246.948
741.117,249.307
742.567,254.39
744.017,256.579
745.468,252.487
746.918,241.227
748.368,242.248
749.819,247.783
751.269,264.079
752.719,266.419
754.17,252.7
755.62,260.924
757.07,270.495
758.521,265.379
759.971,255.988
761.421,247.137
762.872,249.969
764.322,262.048
765.772,250.051
767.223,245.58
768.673,259.441
770.123,258.133
771.574,248.306
773.024,247.352
774.474,260.104
775.925,253.505
777.375,264.803
778.825,256.162
780.276,256.634
781.726,258.138
783.176,257.521
784.627,264.283
786.077,257.241
787.527,267.923
788.978,264.323
790.428,260.836
791.878,259.769
793.328,259.956
794.779,263.14
796.229,264.422
797.68,255.483
799.13,255.874
800.58,261.72
802.03,267.921
803.481,266.83
804.931,251.689
806.381,256.607
807.832,265.069
809.282,268.697
810.732,267.383
812.183,264.631
813.633,261.089
815.083,252.61
816.534,260.531
817.984,253.851
819.434,265.571
820.885,269.808
822.335,267.397
823.785,273.043
825.236,284.02
826.686,274.16
828.136,279.282
829.587,290.698
831.037,285.512
832.487,275.819
833.938,275.158
835.388,265.28
836.838,287.811
838.289,279.354
839.739,272.48
841.189,269.748
842.64,272.407
844.09,276.241
845.54,271.066
846.991,282.666
848.441,274.725
849.891,287.288
851.342,284.144
852.792,269.667
854.242,266.88
855.693,279.305
857.143,264.25
858.593,282.939
860.044,291.326
861.494,295.545
862.944,290.086
864.394,280.636
865.845,284.022
867.295,275.41
868.745,283.915
870.196,279.844
871.646,279.635
873.096,277.69
874.547,271.753
875.997,271.783
877.447,288.308
878.898,291.11
880.348,274.772
881.798,273.093
883.249,271.293
884.699,272.393
886.149,283.97
887.6,280.56
889.05,277.751
890.5,280.449
891.951,285.637
893.401,286.331
894.851,293.254
896.302,303.124
897.752,289.422
899.202,282.723
900.653,275.807
902.103,293.613
903.553,292.409
905.004,284.711
906.454,285.411
907.904,288.791
909.355,288.807
910.805,282.742
912.255,298.714
913.706,306.971
915.156,301.003
916.606,299.452
918.057,309.091
919.507,301.249
920.957,289.322
922.408,306.9
923.858,302.786
925.308,291.974
926.759,293.183
928.209,303.015
929.659,302.466
931.109,293.479
932.56,300.211
934.01,291.425
935.46,298.336
936.911,301.737
938.361,305.9
939.811,313.337
941.262,302.636
942.712,303.722
944.162,289.563
945.613,306.868
947.063,299.377
948.513,287.248
949.964,288.511
951.414,300.202
952.864,324.143
954.315,316.099
955.765,300.589
957.215,308.326
958.666,308.144
960.116,302.769
961.566,298.362
963.017,291.716
964.467,300.788
965.917,301.878
967.368,309.547
968.818,304.489
970.268,300.759
971.719,304.701
973.169,308.471
974.619,301.481
976.07,293.377
977.52,310.815
978.97,311.372
980.421,310.906
981.871,312.989
983.321,305.561
984.772,292.243
986.222,301.72
987.672,308.93
989.123,315.916
990.573,312.384
992.023,309.064
993.474,308.974
994.924,309.549
996.374,306.039
997.825,299.104
999.275,313.761
1000.73,321.955
1002.18,325.823
1003.63,326.903
1005.08,318.247
1006.53,315.239
1007.98,327.257
1009.43,331.291
1010.88,337.424
1012.33,337.284
1013.78,331.685
1015.23,326.657
1016.68,332.544
1018.13,339.201
1019.58,338.986
1021.03,344.216
1022.48,338.76
1023.93,342.051
1025.38,350.269
1026.83,350.843
1028.28,348.852
1029.73,344.192
1031.18,344.768
1032.63,362.426
1034.08,361.634
1035.53,349.114
1036.98,371.242
1038.43,370.302
1039.88,375.293
1041.33,382.33
1042.78,387.145
1044.23,394.24
1045.69,370.279
1047.14,389.416
1048.59,382.155
1050.04,381.298
1051.49,386.96
1052.94,391.324
1054.39,400.494
1055.84,411.489
1057.29,392.481
1058.74,396.665
1060.19,401.714
1061.64,403.989
1063.09,411.385
1064.54,422.731
1065.99,428.486
1067.44,430.428
1068.89,441.841
1070.34,446.203
1071.79,438.704
1073.24,438.6
1074.69,445.067
1076.14,437.106
1077.59,438.623
1079.04,458.878
1080.49,471.758
1081.94,458.46
1083.39,453.602
1084.84,465.61
1086.29,449.135
1087.74,442.366
1089.2,438.117
1090.65,439.925
1092.1,448.501
1093.55,449.665
1095,449.306
1096.45,450.191
1097.9,444.676
1099.35,442.612
1100.8,439.271
1102.25,446.042
1103.7,451.914
1105.15,445.813
1106.6,445.027
1108.05,438.963
1109.5,437.632
1110.95,449.075
1112.4,444.641
1113.85,432.532
1115.3,430.587
1116.75,437.036
1118.2,434.522
1119.65,419.268
1121.1,415.804
1122.55,422.015
1124,418.049
1125.45,421.114
1126.9,417.799
1128.35,418.534
1129.8,422.481
1131.25,416.598
1132.7,412.201
1134.16,415.725
1135.61,406.172
1137.06,406.366
1138.51,407.42
1139.96,403.833
1141.41,413.33
1142.86,417.999
1144.31,401.225
1145.76,415.589
1147.21,416.274
1148.66,418.724
1150.11,405.176
1151.56,402.521
1153.01,394.424
1154.46,397.603
1155.91,409.812
1157.36,411.26
1158.81,408.208
1160.26,398.465
1161.71,397.349
1163.16,399.686
1164.61,397.432
1166.06,399.982
1167.51,402.622
1168.96,400.172
1170.41,401.151
1171.86,411.991
1173.31,399.553
1174.76,418.744
1176.21,402.388
1177.66,408.14
1179.12,405.86
1180.57,399.319
1182.02,392.766
1183.47,394.962
1184.92,408.423
1186.37,403.262
1187.82,409.75
1189.27,400.139
1190.72,414.784
1192.17,423.108
1193.62,426.883
1195.07,425.283
1196.52,423.112
1197.97,421.806
1199.42,415.099
1200.87,425.957
1202.32,425.284
1203.77,428.866
1205.22,419.608
1206.67,420.269
1208.12,415.073
1209.57,408.422
1211.02,412.93
1212.47,424.424
1213.92,429.743
1215.37,428
1216.82,428
1218.27,426.356
1219.72,423.659
1221.17,423.214
1222.63,426.467
1224.08,423.963
1225.53,427.865
1226.98,450.678
1228.43,440.545
1229.88,421.199
1231.33,437.839
1232.78,430.199
1234.23,450.132
1235.68,447.696
1237.13,446.474
1238.58,441.275
1240.03,427.622
1241.48,436.215
1242.93,446.91
1244.38,450.125
1245.83,439.09
1247.28,443.481
1248.73,450.991
1250.18,444.743
1251.63,459.632
1253.08,480.525
1254.53,472.779
1255.98,452.992
1257.43,462.837
1258.88,482.725
1260.33,473.025
1261.78,472.042
1263.23,477.499
1264.68,480.295
1266.13,481.962
1267.59,479.243
1269.04,480.11
1270.49,493.237
1271.94,504.441
1273.39,524.133
1274.84,510.106
1276.29,519.231
1277.74,540.555
1279.19,535.22
1280.64,530.761
1282.09,535.601
1283.54,537.193
1284.99,543.778
1286.44,572.178
1287.89,579.673
1289.34,585.58
1290.79,593.73
1292.24,605.571
1293.69,612.718
1295.14,631.738
1296.59,659.136
1298.04,671.216
1299.49,675.314
1300.94,692.806
1302.39,710.521
1303.84,747.556
1305.29,738.94
1306.74,741.633
1308.19,792.114
1309.64,830.84
1311.09,845.567
1312.55,869.543
1314,894.738
1315.45,915.763
1316.9,950.694
1318.35,983.478
1319.8,1043.54
1321.25,1069.89
1322.7,1100.9
1324.15,1151.97
1325.6,1177.42
1327.05,1205.21
1328.5,1233.37
1329.95,1247.96
1331.4,1248.81
1332.85,1258.5
1334.3,1294.7
1335.75,1285.24
1337.2,1268.85
1338.65,1249.99
1340.1,1248.75
1341.55,1252.03
1343,1205.74
1344.45,1176.71
1345.9,1165.49
1347.35,1129.45
1348.8,1089.14
1350.25,1085.25
1351.7,1061.01
1353.15,1009.33
1354.6,970.335
1356.06,937.348
1357.51,920.842
1358.96,883.526
1360.41,848.28
1361.86,826.574
1363.31,790.517
1364.76,750.474
1366.21,751.098
1367.66,744.463
1369.11,713.475
1370.56,721.023
1372.01,693.07
1373.46,690.101
1374.91,678.242
1376.36,666.386
1377.81,658.555
1379.26,652.84
1380.71,640.002
1382.16,622.97
1383.61,620.448
1385.06,621.701
1386.51,630.833
1387.96,611.147
1389.41,631.035
1390.86,622.712
1392.31,607.175
1393.76,596.84
1395.21,597.551
1396.66,594.072
1398.11,592.201
1399.56,601.041
1401.02,601.521
1402.47,612.867
1403.92,618.732
1405.37,590.717
1406.82,600.381
1408.27,591.892
1409.72,595.29
1411.17,590.429
1412.62,590.997
1414.07,600.273
1415.52,601.499
1416.97,605.436
1418.42,624.176
1419.87,609.337
1421.32,624.69
1422.77,629.743
1424.22,614.553
1425.67,627.348
1427.12,624.09
1428.57,624.981
1430.02,619.46
1431.47,620.248
1432.92,627.566
1434.37,641.603
1435.82,648.301
1437.27,623.549
1438.72,641.703
1440.17,648.704
1441.62,635.56
1443.07,684.57
1444.53,674.766
1445.98,674.485
1447.43,678.847
1448.88,677.241
1450.33,676.805
1451.78,692.778
1453.23,707.371
1454.68,708.454
1456.13,724.578
1457.58,718.534
1459.03,737.745
1460.48,733.816
1461.93,743.976
1463.38,741.665
1464.83,746.689
1466.28,777.21
1467.73,798.262
1469.18,798.043
1470.63,793.845
1472.08,805.144
1473.53,823.827
1474.98,827.524
1476.43,831.723
1477.88,844.295
1479.33,882.302
1480.78,871.402
1482.23,874.235
1483.68,924.833
1485.13,930.067
1486.58,947.472
1488.03,969.422
1489.49,966.571
1490.94,989.788
1492.39,1029.58
1493.84,1042.81
1495.29,1087.11
1496.74,1072.61
1498.19,1079.16
1499.64,1149.41
1501.09,1168.91
1502.54,1198.15
1503.99,1230.53
1505.44,1260.93
1506.89,1298.03
1508.34,1338.11
1509.79,1397.26
1511.24,1446.35
1512.69,1495.23
1514.14,1584.98
1515.59,1663.71
1517.04,1715.88
1518.49,1785.45
1519.94,1851.6
1521.39,1993.27
1522.84,2093.11
1524.29,2208.73
1525.74,2338.66
1527.19,2484.08
1528.64,2648.32
1530.09,2828.33
1531.54,3036.2
1532.99,3276.37
1534.45,3513.35
1535.9,3775.15
1537.35,4158.51
1538.8,4537.41
1540.25,4960.43
1541.7,5352.67
1543.15,5787.38
1544.6,6307.28
1546.05,6857.06
1547.5,7483.59
1548.95,8069.82
1550.4,8626.65
1551.85,9237.08
1553.3,9856.16
1554.75,10473.1
1556.2,11113.8
1557.65,11702.1
1559.1,11721
1560.55,11735
1562,11762
1563.45,11770
1564.9,11776
1566.35,11769
1567.8,11766
1569.25,11775
1570.7,11773
1572.15,11394.1
1573.6,10804.5
1575.05,10195.1
1576.5,9580.69
1577.96,8909.7
1579.41,8222.63
1580.86,7596.57
1582.31,7017.03
1583.76,6412.97
1585.21,5890.76
1586.66,5386.23
1588.11,4954.97
1589.56,4579.37
1591.01,4211.04
1592.46,3904.65
1593.91,3653.99
1595.36,3389.74
1596.81,3168.15
1598.26,2941.65
1599.71,2772.17
1601.16,2657.77
1602.61,2524.38
1604.06,2402.36
1605.51,2298.93
1606.96,2189.7
1608.41,2077.71
1609.86,1990.25
1611.31,1885.77
1612.76,1847.32
1614.21,1725.2
1615.66,1679.38
1617.11,1608.41
1618.56,1565.71
1620.01,1497.77
1621.46,1442.63
1622.92,1387.24
1624.37,1343.57
1625.82,1312.19
1627.27,1274.08
1628.72,1244.7
1630.17,1205.67
1631.62,1182.75
1633.07,1153.75
1634.52,1132.39
1635.97,1095.53
1637.42,1093.46
1638.87,1061.92
1640.32,1034.19
1641.77,1029.37
1643.22,1016.19
1644.67,1000.64
1646.12,984.424
1647.57,980.669
1649.02,966.133
1650.47,944.59
1651.92,940.266
1653.37,938.188
1654.82,916.464
1656.27,903.288
1657.72,899.624
1659.17,881.299
1660.62,865.098
1662.07,868.765
1663.52,887.127
1664.97,878.155
1666.42,866.38
1667.88,858.721
1669.33,851.636
1670.78,840.105
1672.23,822.238
1673.68,826.754
1675.13,824.52
1676.58,822.859
1678.03,811.396
1679.48,801.301
1680.93,808.034
1682.38,806.391
1683.83,799.871
1685.28,791.44
1686.73,797.066
1688.18,795.287
1689.63,792.689
1691.08,785.518
1692.53,772.041
1693.98,770.817
1695.43,784.85
1696.88,793.508
1698.33,787.414
1699.78,789.423
1701.23,777.612
1702.68,780.37
1704.13,770.658
1705.58,778.75
1707.03,778.535
1708.48,760.662
1709.93,778.349
1711.39,778.034
1712.84,777.314
1714.29,773.936
1715.74,785.4
1717.19,794.37
1718.64,778.106
1720.09,779.435
1721.54,782.303
1722.99,762.703
1724.44,766.361
1725.89,787.926
1727.34,795.127
1728.79,795.225
1730.24,775.918
1731.69,762.842
1733.14,795.296
1734.59,769.734
1736.04,763.519
1737.49,782.799
1738.94,766.71
1740.39,764.332
1741.84,779.113
1743.29,765.735
1744.74,760.641
1746.19,747.616
1747.64,740.564
1749.09,751.6
1750.54,740.642
1751.99,739
1753.44,750.451
1754.89,740.944
1756.35,739.344
1757.8,756.817
1759.25,752.481
1760.7,743.217
1762.15,746.518
1763.6,728.98
1765.05,730.196
1766.5,741.854
1767.95,736.988
1769.4,715.612
1770.85,713.161
1772.3,707.656
1773.75,719.643
1775.2,714.738
1776.65,713.596
1778.1,714.924
1779.55,719.07
1781,714.528
1782.45,717.162
1783.9,714.3
1785.35,723.667
1786.8,726.237
1788.25,723.168
1789.7,716.189
1791.15,713.847
1792.6,723.945
1794.05,721.737
1795.5,717.991
1796.95,715.149
1798.4,718.966
1799.85,726.678
1801.31,705.795
1802.76,705.765
1804.21,691.104
1805.66,711.832
1807.11,676.785
1808.56,691.518
1810.01,698.593
1811.46,699.484
1812.91,682.034
1814.36,704.135
1815.81,718.719
1817.26,724.805
1818.71,724.094
1820.16,715.133
1821.61,708.296
1823.06,699.826
1824.51,706.186
1825.96,708.139
1827.41,700.927
1828.86,712.799
1830.31,718.613
1831.76,712.76
1833.21,719.398
1834.66,710.256
1836.11,710.016
1837.56,701.247
1839.01,723.222
1840.46,739.565
1841.91,708.518
1843.36,717.611
1844.82,729.646
1846.27,718.793
1847.72,728.64
1849.17,735.162
1850.62,728.568
1852.07,730.662
1853.52,746.942
1854.97,747.495
1856.42,733.815
1857.87,727.862
1859.32,749.372
1860.77,758.836
1862.22,749.717
1863.67,739.705
1865.12,743.934
1866.57,747.107
1868.02,738.801
1869.47,726.102
1870.92,719.779
1872.37,730.09
1873.82,739.741
1875.27,732.139
1876.72,722.586
1878.17,730.253
1879.62,723.165
1881.07,717.173
1882.52,708.629
1883.97,710.519
1885.42,711.24
1886.87,717.614
1888.32,715.134
1889.78,705.828
1891.23,712.139
1892.68,708.94
1894.13,714.297
1895.58,708.966
1897.03,716.254
1898.48,715.223
1899.93,698.025
1901.38,700.243
1902.83,694.892
1904.28,690.17
1905.73,694.477
1907.18,705.271
1908.63,705.2
1910.08,697.566
1911.53,686.225
1912.98,676.191
1914.43,683.529
1915.88,689.108
1917.33,677.013
1918.78,677.299
1920.23,690.225
1921.68,691.418
1923.13,690.237
1924.58,688.047
1926.03,681.546
1927.48,683.699
1928.93,691.67
1930.38,688.077
1931.83,685.111
1933.29,665.958
1934.74,686.918
1936.19,691.901
1937.64,665.091
1939.09,676.554
1940.54,669.607
1941.99,685.118
1943.44,686.794
1944.89,687.535
1946.34,689.001
1947.79,673.329
1949.24,687.86
1950.69,676.565
1952.14,694.374
1953.59,698.27
1955.04,685.278
1956.49,694.26
1957.94,690.231
1959.39,681.065
1960.84,689.21
1962.29,686.656
1963.74,692.955
1965.19,697.61
1966.64,696.895
1968.09,709.435
1969.54,716.342
1970.99,717.929
1972.44,721.501
1973.89,707.549
1975.34,707.743
1976.79,715.17
1978.25,713.871
1979.7,704.954
1981.15,706.131
1982.6,711.619
1984.05,704.169
1985.5,710.4
1986.95,705.347
1988.4,696.243
1989.85,714.963
1991.3,709.177
1992.75,709.63
1994.2,712.431
1995.65,717.031
1997.1,719.32
1998.55,713.594
2000,707.107
2001.45,719.638
2002.9,711.276
2004.35,705.588
2005.8,709.786
2007.25,715.706
2008.7,719.682
2010.15,720.687
2011.6,724.598
2013.05,701.593
2014.5,696.626
2015.95,706.473
2017.4,697.566
2018.85,681.146
2020.3,705.996
2021.75,708.666
2023.21,685.339
2024.66,703.376
2026.11,695.052
2027.56,704.685
2029.01,708.193
2030.46,690.166
2031.91,691.901
2033.36,680.958
2034.81,688.863
2036.26,701.438
2037.71,693.686
2039.16,694.781
2040.61,702.961
2042.06,683.309
2043.51,670.154
2044.96,679.777
2046.41,660.147
2047.86,670.942
2049.31,679.952
2050.76,671.158
2052.21,669.767
2053.66,686.007
2055.11,689.879
2056.56,674.946
2058.01,668.996
2059.46,682.999
2060.91,684.608
2062.36,675.617
2063.81,668.407
2065.26,660.662
2066.72,663.244
2068.17,673.349
2069.62,654.523
2071.07,657.488
2072.52,676.876
2073.97,675.361
2075.42,669.52
2076.87,670.991
2078.32,668.026
2079.77,655.754
2081.22,665.149
2082.67,676.846
2084.12,673.745
2085.57,658.483
2087.02,659.497
2088.47,646.723
2089.92,645.879
2091.37,652.017
2092.82,663.298
2094.27,679.997
2095.72,670.59
2097.17,664.872
2098.62,667.216
2100.07,657.93
2101.52,649.912
2102.97,656.331
2104.42,649.849
2105.87,660.895
2107.32,665.425
2108.77,668.368
2110.22,669.718
2111.68,674.861
2113.13,666.544
2114.58,662.424
2116.03,673.718
2117.48,674.14
2118.93,663.422
2120.38,675.776
2121.83,674.969
2123.28,655.348
2124.73,667.359
2126.18,675.671
2127.63,670.867
2129.08,673.332
2130.53,678.315
2131.98,682.933
2133.43,682.471
2134.88,682.415
2136.33,678.223
2137.78,683.923
2139.23,683.688
2140.68,682.689
2142.13,676.016
2143.58,674.921
2145.03,697.329
2146.48,698.597
2147.93,690.318
2149.38,681.108
2150.83,682.559
2152.28,692.945
2153.73,693.447
2155.18,684.974
2156.64,689.015
2158.09,689.852
2159.54,687.458
2160.99,695.626
2162.44,696.777
2163.89,697.489
2165.34,691.222
2166.79,695.663
2168.24,717.434
2169.69,711.579
2171.14,702.182
2172.59,703.076
2174.04,704.509
2175.49,709.964
2176.94,711.821
2178.39,706.326
2179.84,707.382
2181.29,708.218
2182.74,712.608
2184.19,711.123
2185.64,705.835
2187.09,710.702
2188.54,716.848
2189.99,717.057
2191.44,712.667
2192.89,721.109
2194.34,720.793
2195.79,720.648
2197.24,727.127
2198.69,724.824
2200.15,714.267
2201.6,715.635
2203.05,716.058
2204.5,731.704
2205.95,727.813
2207.4,731.097
2208.85,724.652
2210.3,730.119
2211.75,737.555
2213.2,740.235
2214.65,733.732
2216.1,733.807
2217.55,739.454
2219,744.235
2220.45,724.459
2221.9,741.907
2223.35,751.35
2224.8,749.93
2226.25,737.549
2227.7,724.871
2229.15,747.189
2230.6,758.771
2232.05,758.275
2233.5,740.289
2234.95,745.769
2236.4,745.899
2237.85,749.194
2239.3,731.498
2240.75,736.492
2242.2,753.491
2243.65,764.075
2245.11,744.681
2246.56,762.396
2248.01,755.614
2249.46,753.381
2250.91,768.541
2252.36,760.768
2253.81,755.47
2255.26,763.993
2256.71,752.379
2258.16,760.255
2259.61,770.303
2261.06,765.199
2262.51,746.559
2263.96,768.108
2265.41,775.49
2266.86,764.543
2268.31,750.178
2269.76,762.07
2271.21,778.365
2272.66,769.88
2274.11,768.691
2275.56,757.415
2277.01,759.286
2278.46,781.662
2279.91,782
2281.36,797.01
2282.81,801.184
2284.26,775.035
2285.71,774.66
2287.16,786.639
2288.61,799.089
2290.07,787.603
2291.52,774.346
2292.97,792.427
2294.42,797.045
2295.87,800.535
2297.32,802.46
2298.77,782.662
2300.22,802.533
2301.67,830.506
2303.12,829.481
2304.57,817.587
2306.02,803.008
2307.47,808.183
2308.92,805.707
2310.37,816.863
2311.82,813.56
2313.27,825.044
2314.72,808.473
2316.17,833.42
2317.62,816.667
2319.07,825.713
2320.52,840.111
2321.97,828.522
2323.42,831.221
2324.87,856.259
2326.32,838.45
2327.77,841.57
2329.22,835.396
2330.67,859.026
2332.12,862.508
2333.57,865.397
2335.03,867.599
2336.48,845.906
2337.93,844.659
2339.38,862.231
2340.83,879.859
2342.28,873.279
2343.73,881.738
2345.18,873.264
2346.63,885.405
2348.08,898.874
2349.53,900.078
2350.98,897.829
2352.43,911.855
2353.88,906.838
2355.33,910.374
2356.78,912.921
2358.23,930.53
2359.68,921.07
2361.13,933.082
2362.58,958.991
2364.03,965.068
2365.48,946.102
2366.93,951.079
2368.38,974.095
2369.83,975.321
2371.28,970.009
2372.73,976.53
2374.18,1006.75
2375.63,1017.72
2377.08,1023.91
2378.54,1029.11
2379.99,1029.36
2381.44,1038.29
2382.89,1068.87
2384.34,1078.57
2385.79,1070.57
2387.24,1081.25
2388.69,1104.78
2390.14,1122.36
2391.59,1142.81
2393.04,1141.9
2394.49,1147.45
2395.94,1167.37
2397.39,1158.25
2398.84,1162.39
2400.29,1216.05
2401.74,1238.45
2403.19,1243.83
2404.64,1249.54
2406.09,1252.77
2407.54,1288.02
2408.99,1275.3
2410.44,1285.9
2411.89,1281.56
2413.34,1314.52
2414.79,1330.1
2416.24,1306.74
2417.69,1338.44
2419.14,1331.43
2420.59,1343.67
2422.04,1351.93
2423.5,1345.36
2424.95,1358.77
2426.4,1369.37
2427.85,1367.75
2429.3,1349.43
2430.75,1346.37
2432.2,1332.85
2433.65,1340.68
2435.1,1345.87
2436.55,1357.21
2438,1323.06
2439.45,1331.43
2440.9,1335.46
2442.35,1330.91
2443.8,1307.61
2445.25,1301.25
2446.7,1321.28
2448.15,1304.27
2449.6,1297.05
2451.05,1304.58
2452.5,1285.41
2453.95,1294.14
2455.4,1284.4
2456.85,1273.53
2458.3,1252.91
2459.75,1223.08
2461.2,1232.52
2462.65,1233.13
2464.1,1239.28
2465.55,1249.13
2467.01,1259.79
2468.46,1227.66
2469.91,1257.58
2471.36,1254.06
2472.81,1235.26
2474.26,1225.5
2475.71,1219.08
2477.16,1248.8
2478.61,1239.06
2480.06,1230.86
2481.51,1237.2
2482.96,1215.8
2484.41,1232.06
2485.86,1225.11
2487.31,1230.86
2488.76,1230.05
2490.21,1233.88
2491.66,1224.17
2493.11,1232.84
2494.56,1259.57
2496.01,1244.48
2497.46,1249.31
2498.91,1247.07
2500.36,1270.58
2501.81,1262.79
2503.26,1258.05
2504.71,1279.9
2506.16,1290.3
2507.61,1275.4
2509.06,1288.14
2510.51,1288.77
2511.97,1281.6
2513.42,1265.34
2514.87,1305.16
2516.32,1304.21
2517.77,1295.86
2519.22,1314.05
2520.67,1318.09
2522.12,1315.87
2523.57,1338.58
2525.02,1376.55
2526.47,1387.28
2527.92,1390.22
2529.37,1392.65
2530.82,1422.27
2532.27,1433.39
2533.72,1431.02
2535.17,1443.36
2536.62,1447.81
2538.07,1479.04
2539.52,1465.94
2540.97,1496.71
2542.42,1513.91
2543.87,1516.42
2545.32,1549.88
2546.77,1543.44
2548.22,1587.72
2549.67,1626.1
2551.12,1642.37
2552.57,1653.51
2554.02,1655.33
2555.48,1663.91
2556.93,1697.2
2558.38,1737.25
2559.83,1758.18
2561.28,1779.31
2562.73,1805.22
2564.18,1870.16
2565.63,1877.88
2567.08,1926.95
2568.53,1945.31
2569.98,2033.41
2571.43,2068.81
2572.88,2097.45
2574.33,2132.19
2575.78,2182.72
2577.23,2222.83
2578.68,2268.96
2580.13,2325.61
2581.58,2354.89
2583.03,2385.65
2584.48,2467.49
2585.93,2530.34
2587.38,2584.28
2588.83,2694.1
2590.28,2730.99
2591.73,2784.83
2593.18,2893.24
2594.63,2997.28
2596.08,3066.41
2597.53,3163.71
2598.98,3293.7
2600.44,3385.84
2601.89,3479.35
2603.34,3601.16
2604.79,3727.79
2606.24,3815.2
2607.69,3961.9
2609.14,4090.61
2610.59,4246.94
2612.04,4363.05
2613.49,4560.73
2614.94,4660.27
2616.39,4791.4
2617.84,5026
2619.29,5165.02
2620.74,5345.57
2622.19,5568.99
2623.64,5752.79
2625.09,5899.63
2626.54,6079.38
2627.99,6262.01
2629.44,6477.29
2630.89,6617.88
2632.34,6809.79
2633.79,7026.67
2635.24,7222.13
2636.69,7430.92
2638.14,7576.76
2639.59,7718.64
2641.04,7914.37
2642.49,8094
2643.94,8214.98
2645.4,8339.92
2646.85,8429.41
2648.3,8541.31
2649.75,8608.11
2651.2,8661.04
2652.65,8692.59
2654.1,8634.99
2655.55,8653.3
2657,8694.1
2658.45,8624.48
2659.9,8604.43
2661.35,8570.63
2662.8,8488.8
2664.25,8336.96
2665.7,8208
2667.15,8109.48
2668.6,7967.65
2670.05,7736.13
2671.5,7526.43
2672.95,7445.42
2674.4,7179.87
2675.85,7060.6
2677.3,6831.66
2678.75,6624.46
2680.2,6433.41
2681.65,6186.87
2683.1,6020.42
2684.55,5844.54
2686,5680.32
2687.45,5473.95
2688.91,5233.12
2690.36,5053.96
2691.81,4837.19
2693.26,4654.94
2694.71,4500.81
2696.16,4345.39
2697.61,4117.08
2699.06,4038.53
2700.51,3927.13
2701.96,3785.19
2703.41,3636.22
2704.86,3492.63
2706.31,3362.98
2707.76,3249.78
2709.21,3125.89
2710.66,2994.33
2712.11,2895.77
2713.56,2814.64
2715.01,2727.3
2716.46,2714.94
2717.91,2583.66
2719.36,2523.58
2720.81,2437.22
2722.26,2334.38
2723.71,2306.16
2725.16,2261.46
2726.61,2181.44
2728.06,2134.3
2729.51,2115.9
2730.96,2030.96
2732.41,2012.96
2733.87,1962.56
2735.32,1890.2
2736.77,1868.79
2738.22,1826.71
2739.67,1810.75
2741.12,1769.33
2742.57,1742.39
2744.02,1732.17
2745.47,1651.09
2746.92,1656.16
2748.37,1621.38
2749.82,1613.59
2751.27,1578.03
2752.72,1545.01
2754.17,1554.54
2755.62,1505.49
2757.07,1472.42
2758.52,1474.75
2759.97,1455.38
2761.42,1440.28
2762.87,1442.52
2764.32,1399.39
2765.77,1397.45
2767.22,1398.27
2768.67,1369.5
2770.12,1353.08
2771.57,1355.37
2773.02,1331.8
2774.47,1330.39
2775.92,1315.05
2777.38,1308.92
2778.83,1296.15
2780.28,1282.8
2781.73,1266.15
2783.18,1237.78
2784.63,1270.71
2786.08,1229.22
2787.53,1235.47
2788.98,1228.83
2790.43,1212.12
2791.88,1213.5
2793.33,1205.92
2794.78,1179.99
2796.23,1195.97
2797.68,1173.7
2799.13,1194.54
2800.58,1169.71
2802.03,1160.4
2803.48,1144.7
2804.93,1173.82
2806.38,1162.89
2807.83,1140.28
2809.28,1134.26
2810.73,1135.68
2812.18,1119.36
2813.63,1135.28
2815.08,1117.47
2816.53,1118.44
2817.98,1115.17
2819.43,1120.47
2820.88,1115.8
2822.33,1099.67
2823.79,1086
2825.24,1096.03
2826.69,1100.82
2828.14,1096.71
2829.59,1082.92
2831.04,1088.45
2832.49,1065.32
2833.94,1068.34
2835.39,1083.22
2836.84,1071.72
2838.29,1046
2839.74,1039.47
2841.19,1046.41
2842.64,1064.5
2844.09,1060.03
2845.54,1050.72
2846.99,1025.11
2848.44,1066.25
2849.89,1052.79
2851.34,1050.2
2852.79,1054.46
2854.24,1051.5
2855.69,1045.78
2857.14,1043.99
2858.59,1045.87
2860.04,1023.14
2861.49,1065.58
2862.94,1022.57
2864.39,1032.47
2865.84,1049.87
2867.3,1053.57
2868.75,1035.61
2870.2,1033.68
2871.65,1030.18
2873.1,1024.23
2874.55,1015.54
2876,1012.24
2877.45,1035.33
2878.9,1040.54
2880.35,1007.57
2881.8,1011.3
2883.25,1028.86
2884.7,1032.63
2886.15,1029.3
2887.6,1024.17
2889.05,1030.07
2890.5,1037.3
2891.95,1023.08
2893.4,1025.48
2894.85,1018.13
2896.3,1022.33
2897.75,1021.76
2899.2,1023.51
2900.65,1025.48
2902.1,1023.61
2903.55,1007.55
2905,1014
2906.45,1021.28
2907.9,1013.17
2909.35,1008.08
2910.8,1002.86
2912.26,990.83
2913.71,1001.21
2915.16,990.286
2916.61,996.281
2918.06,975.477
2919.51,1000.64
2920.96,988.701
2922.41,1002.26
2923.86,988.92
2925.31,981.138
2926.76,990.916
2928.21,985.278
2929.66,978.216
2931.11,969.598
2932.56,969.656
2934.01,967.925
2935.46,948.769
2936.91,947.202
2938.36,947.725
2939.81,946.236
2941.26,940.582
2942.71,936.068
2944.16,949.465
2945.61,946.485
2947.06,929.312
2948.51,929.039
2949.96,919.534
2951.41,927.837
2952.86,933.24
2954.31,928.641
2955.77,908.695
2957.22,907.472
2958.67,896.613
2960.12,914.577
2961.57,890.026
2963.02,905.132
2964.47,900.449
2965.92,903.972
2967.37,897.452
2968.82,897.252
2970.27,893.525
2971.72,893.404
2973.17,882.866
2974.62,881.281
2976.07,873.969
2977.52,869.921
2978.97,871.891
2980.42,878.502
2981.87,870.59
2983.32,871.655
2984.77,867.176
2986.22,871.027
2987.67,869.387
2989.12,882.47
2990.57,870.957
2992.02,873.736
2993.47,874.248
2994.92,875.258
2996.37,864.836
2997.82,875.381
2999.27,882.632
3000.73,861.539
3002.18,869.668
3003.63,847.858
3005.08,870.704
3006.53,873.063
3007.98,869.389
3009.43,870.742
3010.88,862.366
3012.33,853.397
3013.78,842.565
3015.23,852.479
3016.68,860.895
3018.13,869.88
3019.58,841.648
3021.03,841.132
3022.48,846.356
3023.93,855.896
3025.38,861.709
3026.83,866.717
3028.28,864.96
3029.73,870.825
3031.18,860.898
3032.63,850.509
3034.08,871.53
3035.53,850.513
3036.98,857.84
3038.43,836.767
3039.88,850.14
3041.33,885.728
3042.78,881.774
3044.23,862.49
3045.69,862.417
3047.14,856.302
3048.59,851.983
3050.04,859.803
3051.49,838.073
3052.94,858.753
3054.39,862.123
3055.84,846.592
3057.29,864.475
3058.74,869.188
3060.19,892.553
3061.64,874.622
3063.09,887.294
3064.54,879.181
3065.99,873.057
3067.44,880.056
3068.89,889.799
3070.34,888.626
3071.79,874.112
3073.24,891.809
3074.69,900.122
3076.14,907.283
3077.59,906.836
3079.04,918.849
3080.49,928.354
3081.94,927.337
3083.39,895.948
3084.84,921.859
3086.29,944.499
3087.74,922.285
3089.2,939.202
3090.65,951.444
3092.1,972.725
3093.55,960.988
3095,964.872
3096.45,965.141
3097.9,972.543
3099.35,967.995
3100.8,973.568
3102.25,997.996
3103.7,985.736
3105.15,1022.58
3106.6,1029.71
3108.05,1029.18
3109.5,1025.79
3110.95,1041.82
3112.4,1053.34
3113.85,1063.37
3115.3,1030.08
3116.75,1060.05
3118.2,1098.17
3119.65,1089.92
3121.1,1107.4
3122.55,1125.55
3124,1119.43
3125.45,1119.18
3126.9,1139.43
3128.35,1141.67
3129.8,1128.2
3131.25,1150.87
3132.7,1152.58
3134.16,1144.71
3135.61,1153.72
3137.06,1139.96
3138.51,1147.93
3139.96,1183.26
3141.41,1187.45
3142.86,1188.6
3144.31,1190.91
3145.76,1176.89
3147.21,1188.4
3148.66,1223.62
3150.11,1212.96
3151.56,1199.37
3153.01,1201.23
3154.46,1210.21
3155.91,1194.13
3157.36,1222.92
3158.81,1215.55
3160.26,1229.81
3161.71,1224.27
3163.16,1216.32
3164.61,1230.06
3166.06,1220.33
3167.51,1231.79
3168.96,1236.99
3170.41,1266.06
3171.86,1285.07
3173.31,1267.78
3174.76,1273.33
3176.21,1278.37
3177.67,1278.24
3179.12,1304.92
3180.57,1294.83
3182.02,1297.48
3183.47,1317.93
3184.92,1322.64
3186.37,1333
3187.82,1330.82
3189.27,1316.88
3190.72,1325.89
3192.17,1326.08
3193.62,1324.74
3195.07,1317.67
3196.52,1312.51
3197.97,1314.76
3199.42,1311.19
3200.87,1286.24
3202.32,1308.11
3203.77,1275.74
3205.22,1254.97
3206.67,1238.97
3208.12,1290.64
3209.57,1249.68
3211.02,1222.05
3212.47,1209.22
3213.92,1215.43
3215.37,1204.58
3216.82,1186.09
3218.27,1191.67
3219.72,1169.04
3221.17,1155.52
3222.63,1143.81
3224.08,1140.76
3225.53,1121.19
3226.98,1090.07
3228.43,1086.94
3229.88,1071.55
3231.33,1054.81
3232.78,1028.39
3234.23,1022.34
3235.68,1001.72
3237.13,964.385
3238.58,995.871
3240.03,996.495
3241.48,974.528
3242.93,956.965
3244.38,947.831
3245.83,924.826
3247.28,916.385
3248.73,914.185
3250.18,926.22
3251.63,911.159
3253.08,894.209
3254.53,891.662
3255.98,870.314
3257.43,863.574
3258.88,874.606
3260.33,858.974
3261.78,877.679
3263.23,869.276
3264.68,845.462
3266.13,864.494
3267.59,882.565
3269.04,858.015
3270.49,847.676
3271.94,863.674
3273.39,840.84
3274.84,830.23
3276.29,863.462
3277.74,827.377
3279.19,832.218
3280.64,850.126
3282.09,848.044
3283.54,842.198
3284.99,825.702
3286.44,831.985
3287.89,837.475
3289.34,815.792
3290.79,830.187
3292.24,834.685
3293.69,832.814
3295.14,831.29
3296.59,829.642
3298.04,820.119
3299.49,831.58
3300.94,829
3302.39,847.821
3303.84,825.254
3305.29,822.217
3306.74,832.311
3308.19,826.59
3309.64,828.302
3311.09,836.997
3312.55,832.857
3314,848.885
3315.45,835.967
3316.9,829.087
3318.35,823.416
3319.8,818.045
3321.25,831.8
3322.7,820.586
3324.15,820.72
3325.6,839.486
3327.05,839.571
3328.5,819.024
3329.95,826.587
3331.4,844.956
3332.85,826.047
3334.3,825.319
3335.75,819.036
3337.2,823.856
3338.65,813.724
3340.1,831.783
3341.55,817.96
3343,819.19
3344.45,816.597
3345.9,821.632
3347.35,782.882
3348.8,823.812
3350.25,828.593
3351.7,837.092
3353.15,836.758
3354.6,827.84
3356.06,822.328
3357.51,837.511
3358.96,802.485
3360.41,810.394
3361.86,815.241
3363.31,827.089
3364.76,804.904
3366.21,818.394
3367.66,839.182
3369.11,835.513
3370.56,830.663
3372.01,832.924
3373.46,810.007
3374.91,839.074
3376.36,841.981
3377.81,830.932
3379.26,815.469
3380.71,842.532
3382.16,849.351
3383.61,836.595
3385.06,829.954
3386.51,821.227
3387.96,832.264
3389.41,851.962
3390.86,849.947
3392.31,821.953
3393.76,830.616
3395.21,838.456
3396.66,811.626
3398.11,838.107
3399.56,834.768
3401.02,835.651
3402.47,834.804
3403.92,824.728
3405.37,837.936
3406.82,817.974
3408.27,847.542
3409.72,832.394
3411.17,835.804
3412.62,820.256
3414.07,844.179
3415.52,819.486
3416.97,841.028
3418.42,839.84
3419.87,832.676
3421.32,828.527
3422.77,827.808
3424.22,837.629
3425.67,854.463
3427.12,863.742
3428.57,838.49
3430.02,842.528
3431.47,837.205
3432.92,821.741
3434.37,834.252
3435.82,845.827
3437.27,847.285
3438.72,851.876
3440.17,833.378
3441.62,838.074
3443.07,841.88
3444.52,851.029
3445.98,840.385
3447.43,816.422
3448.88,825.11
3450.33,830.818
3451.78,837.949
3453.23,853.36
3454.68,835.81
3456.13,840.665
3457.58,861.834
3459.03,840.503
3460.48,835.605
3461.93,837.506
3463.38,830.299
3464.83,847.181
3466.28,846.672
3467.73,826.777
3469.18,853.643
3470.63,845.553
3472.08,841.872
3473.53,837.144
3474.98,844.446
3476.43,819.88
3477.88,859.137
3479.33,848.838
3480.78,846.248
3482.23,855.387
3483.68,850.522
3485.13,842.177
3486.58,848.248
3488.03,836.846
3489.49,836.665
3490.94,838.135
3492.39,839.47
3493.84,852.091
3495.29,837.426
3496.74,848.319
3498.19,836.469
3499.64,866.257
3501.09,837.022
3502.54,865.022
3503.99,854.391
3505.44,839.879
3506.89,860.034
3508.34,857.466
3509.79,871.302
3511.24,866.642
3512.69,865.385
3514.14,854.379
3515.59,862.749
3517.04,889.782
3518.49,868.584
3519.94,854.278
3521.39,837.505
3522.84,875.994
3524.29,857.148
3525.74,847.142
3527.19,868.633
3528.64,859.354
3530.09,865.027
3531.54,845.608
3532.99,848.045
3534.45,857.661
3535.9,878.005
3537.35,855.861
3538.8,856.19
3540.25,841.256
3541.7,844.391
3543.15,849.141
3544.6,855.722
3546.05,880.04
3547.5,870.553
3548.95,877.669
3550.4,872.96
3551.85,872.964
3553.3,845.294
3554.75,851.807
3556.2,852.92
3557.65,869.057
3559.1,860.857
3560.55,856.331
3562,845.633
3563.45,875.339
3564.9,872.989
3566.35,856.796
3567.8,877.057
3569.25,861.671
3570.7,871.519
3572.15,873.673
3573.6,877.227
3575.05,872.124
3576.5,847.482
3577.96,844.892
3579.41,866.342
3580.86,859.427
3582.31,871.153
3583.76,878.126
3585.21,876.078
3586.66,868.867
3588.11,882.278
3589.56,864.46
3591.01,879.166
3592.46,889.265
3593.91,865.724
3595.36,868.73
3596.81,881.743
3598.26,877.067
3599.71,861.316
3601.16,873.435
3602.61,883.42
3604.06,872.466
3605.51,870.588
3606.96,869.076
3608.41,882.482
3609.86,874.869
3611.31,885.347
3612.76,865.634
3614.21,864.564
3615.66,899.568
3617.11,872.407
3618.56,882.419
3620.01,875.172
3621.46,885.435
3622.92,884.207
3624.37,884.804
3625.82,885.037
3627.27,888.207
3628.72,861.956
3630.17,875.134
3631.62,887.367
3633.07,868.37
3634.52,885.431
3635.97,887.337
3637.42,885.254
3638.87,892.541
3640.32,868.296
3641.77,903.618
3643.22,905.368
3644.67,891.419
3646.12,891.968
3647.57,894.691
3649.02,890.324
3650.47,900.744
3651.92,893.409
3653.37,902.026
3654.82,897.24
3656.27,892.695
3657.72,888.928
3659.17,902.124
3660.62,909.222
3662.07,900.724
3663.52,898.324
3664.97,902.492
3666.43,896.965
3667.88,913.435
3669.33,886.423
3670.78,890.675
3672.23,900.895
3673.68,909.693
3675.13,909.817
3676.58,913.357
3678.03,899.476
3679.48,913.507
3680.93,919.972
3682.38,900.076
3683.83,899.007
3685.28,897.419
3686.73,918.457
3688.18,911.014
3689.63,913.111
3691.08,904.653
3692.53,918.833
3693.98,908.776
3695.43,917.812
3696.88,908.399
3698.33,898.067
3699.78,898.154
3701.23,909.304
3702.68,913.074
3704.13,929.542
3705.58,912.896
3707.03,929.371
3708.48,911.821
3709.93,907.639
3711.39,918.02
3712.84,894.758
3714.29,924.343
3715.74,915.52
3717.19,917.659
3718.64,923.653
3720.09,916.978
3721.54,916.56
3722.99,916.539
3724.44,921.362
3725.89,911.063
3727.34,900.104
3728.79,903.283
3730.24,899.517
3731.69,926.914
3733.14,923.537
3734.59,926.29
3736.04,914.579
3737.49,917.751
3738.94,928.972
3740.39,945.121
3741.84,913.743
3743.29,940.94
3744.74,949.249
3746.19,923.154
3747.64,934.226
3749.09,942.993
3750.54,919.125
3751.99,923.461
3753.44,929.314
3754.89,931.484
3756.35,940.769
3757.8,936.202
3759.25,935.62
3760.7,936.386
3762.15,933.13
3763.6,922.35
3765.05,939.291
3766.5,938.721
3767.95,944.149
3769.4,940.884
3770.85,937.717
3772.3,929.246
3773.75,930.854
3775.2,937.807
3776.65,934.767
3778.1,949.058
3779.55,935.634
3781,950.513
3782.45,961.904
3783.9,944.838
3785.35,930.592
3786.8,966.192
3788.25,930.263
3789.7,948.549
3791.15,933.471
3792.6,962.252
3794.05,943.088
3795.5,930.818
3796.95,938.392
3798.4,928.308
3799.85,949.73
3801.31,950.245
3802.76,931.111
3804.21,972.926
3805.66,969.204
3807.11,969.948
3808.56,960.685
3810.01,968.965
3811.46,975.698
3812.91,973.599
3814.36,959.17
3815.81,959.919
3817.26,964.338
3818.71,963.637
3820.16,973.448
3821.61,975.823
3823.06,957.769
3824.51,951.849
3825.96,970.672
3827.41,971.521
3828.86,969.873
3830.31,979.428
3831.76,970.147
3833.21,976.12
3834.66,990.709
3836.11,988.453
3837.56,982.381
3839.01,975.721
3840.46,976.12
3841.91,967.558
3843.36,965.901
3844.82,938.619
3846.27,972.522
3847.72,985.088
3849.17,982.859
3850.62,999.666
3852.07,987.735
3853.52,982.379
3854.97,983.826
3856.42,982.575
3857.87,982.392
3859.32,992.356
3860.77,987.85
3862.22,986.13
3863.67,997.746
3865.12,995.711
3866.57,986.249
3868.02,986.544
3869.47,1008.22
3870.92,985.854
3872.37,980.807
3873.82,996.418
3875.27,1016.51
3876.72,1027.27
3878.17,1022.62
3879.62,996.184
3881.07,1002.27
3882.52,1001.52
3883.97,1004.25
3885.42,1015.49
3886.87,1014.65
3888.32,1023.2
3889.78,1008.28
3891.23,1017.14
3892.68,1012.33
3894.13,1010.08
3895.58,1018.29
3897.03,1031
3898.48,1033.14
3899.93,1040.89
3901.38,1035.56
3902.83,1014.78
3904.28,1037.69
3905.73,1040.17
3907.18,1041.28
3908.63,1022.83
3910.08,1035.55
3911.53,1031.69
3912.98,1048.54
3914.43,1039.8
3915.88,1041.47
3917.33,1030.19
3918.78,1022.41
3920.23,1042.97
3921.68,1049.54
3923.13,1063.62
3924.58,1045.36
3926.03,1054.29
3927.48,1050.02
3928.93,1086.71
3930.38,1049.06
3931.83,1054.18
3933.28,1058.76
3934.74,1063.98
3936.19,1082.54
3937.64,1070.56
3939.09,1054.06
3940.54,1083.23
3941.99,1071.41
3943.44,1063.7
3944.89,1068.64
3946.34,1079.59
3947.79,1091.16
3949.24,1083.2
3950.69,1086.78
3952.14,1093.21
3953.59,1099.06
3955.04,1102.63
3956.49,1070.6
3957.94,1107.17
3959.39,1082.23
3960.84,1079.48
3962.29,1088.18
3963.74,1082.7
3965.19,1073.88
3966.64,1114.99
3968.09,1089.46
3969.54,1110.06
3970.99,1084.3
3972.44,1105.7
3973.89,1101.95
3975.34,1126.41
3976.79,1120.65
3978.25,1127.94
3979.7,1125.18
3981.15,1113.59
3982.6,1120.16
3984.05,1130.54
3985.5,1135.56
3986.95,1150.5
3988.4,1131.35
3989.85,1136.34
3991.3,1131.82
3992.75,1139.13
3994.2,1152.88
3995.65,1128.66
3997.1,1185.28
3998.55,1136.58
4000,1139.02
