0,5.68648
1.45033,5.68648
2.90065,5.68648
4.35098,5.68648
5.80131,5.68648
7.25163,5.68648
8.70196,23.7897
10.1523,10.4357
11.6026,8.22301
13.0529,9.12955
14.5033,10.2083
15.9536,9.25174
17.4039,3.71028
18.8542,0.31732
20.3046,0.250136
21.7549,2.20849
23.2052,4.56678
24.6555,4.2895
26.1059,3.06072
27.5562,0.868465
29.0065,0.202315
30.4569,4.18913
31.9072,1.96905
33.3575,1.8332
34.8078,1.59893
36.2582,0.873281
37.7085,1.70631
39.1588,0.233548
40.6091,1.80358
42.0595,5.03379
43.5098,7.90019
44.9601,9.01177
46.4104,8.52199
47.8608,13.1818
49.3111,23.0444
50.7614,34.7726
52.2117,86.5018
53.6621,168.122
55.1124,290.855
56.5627,456.643
58.0131,653.941
59.4634,847.235
60.9137,1020.52
62.364,1141.95
63.8144,1196.63
65.2647,1296.88
66.715,1339.89
68.1653,1377.12
69.6157,1419.26
71.066,1459.27
72.5163,1476.82
73.9666,1471.65
75.417,1458.53
76.8673,1460.09
78.3176,1521.45
79.7679,1533.06
81.2183,1558.13
82.6686,1601.9
84.1189,1658.26
85.5693,1695.37
87.0196,1705.8
88.4699,1704.44
89.9202,1668.22
91.3706,1566.8
92.8209,1483
94.2712,1406.33
95.7215,1321.39
97.1719,1243.79
98.6222,1221.43
100.073,1177.87
101.523,1127.18
102.973,1081.01
104.423,1045.55
105.874,1017.02
107.324,993.551
108.774,982.246
110.225,964.864
111.675,931.556
113.125,938.834
114.576,953.449
116.026,945.202
117.476,915.638
118.927,880.253
120.377,890.069
121.827,871.61
123.278,861.268
124.728,860.738
126.178,847.563
127.629,829.076
129.079,809.952
130.529,797.199
131.98,789.573
133.43,773.303
134.88,753.576
136.331,728.078
137.781,716.51
139.231,720.492
140.682,688.487
142.132,696.951
143.582,683.641
145.033,661.398
146.483,647.705
147.933,626.35
149.384,644.815
150.834,639.042
152.284,616.516
153.735,604.822
155.185,630.13
156.635,608.819
158.086,600.693
159.536,611.94
160.986,625.017
162.437,623.048
163.887,601.353
165.337,576.252
166.788,556.555
168.238,546.871
169.688,549.408
171.139,537.217
172.589,530.182
174.039,528.197
175.489,511.27
176.94,544.476
178.39,552.74
179.84,550.673
181.291,545.767
182.741,534.486
184.191,521.284
185.642,508.822
187.092,494.891
188.542,486.653
189.993,509.825
191.443,490.758
192.893,490.602
194.344,501.537
195.794,506.801
197.244,477.991
198.695,484.428
200.145,486.185
201.595,479.433
203.046,467.817
204.496,465.555
205.946,477.105
207.397,483.776
208.847,490.998
210.297,499.311
211.748,488.277
213.198,489.667
214.648,493.907
216.099,492.802
217.549,485.055
218.999,488.453
220.45,498.838
221.9,492.612
223.35,478.529
224.801,470.501
226.251,486.651
227.701,481.821
229.152,491.819
230.602,484.81
232.052,453.642
233.503,478.624
234.953,480.083
236.403,481.233
237.854,482.377
239.304,482.276
240.754,481.708
242.204,477.176
243.655,473.124
245.105,462.859
246.555,448.534
248.006,453.077
249.456,454.944
250.906,462.607
252.357,470.784
253.807,469.241
255.257,439.932
256.708,447.3
258.158,454.077
259.608,457.768
261.059,460.854
262.509,470.537
263.959,430.644
265.41,425.309
266.86,425.645
268.31,428.179
269.761,457.1
271.211,442.847
272.661,437.118
274.112,427.998
275.562,422.152
277.012,437.706
278.463,436.566
279.913,439.977
281.363,435.965
282.814,430.973
284.264,436.995
285.714,421.863
287.165,425.756
288.615,430.929
290.065,423.488
291.516,400.738
292.966,415.024
294.416,430.06
295.867,420.621
297.317,407.13
298.767,408.137
300.218,402.139
301.668,406.073
303.118,407.841
304.569,391.957
306.019,367.251
307.469,390.144
308.919,379.981
310.37,382.433
311.82,381.242
313.27,373.15
314.721,372.573
316.171,371.715
317.621,375.305
319.072,366.239
320.522,357.535
321.972,375.319
323.423,373.886
324.873,361.462
326.323,360.73
327.774,368.706
329.224,373.036
330.674,359.839
332.125,371.988
333.575,372.657
335.025,362.725
336.476,351.17
337.926,350.309
339.376,348.898
340.827,353.695
342.277,356.791
343.727,357.714
345.178,363.961
346.628,344.706
348.078,353.465
349.529,371.82
350.979,380.991
352.429,366.983
353.88,345.7
355.33,357.273
356.78,364.471
358.231,365.269
359.681,363.352
361.131,355.005
362.582,341.775
364.032,335.826
365.482,339.609
366.933,345.832
368.383,338.165
369.833,335.281
371.284,330.566
372.734,330.433
374.184,331.17
375.635,328.731
377.085,348.915
378.535,358.442
379.986,342.819
381.436,330.215
382.886,338.642
384.336,346.145
385.787,337.695
387.237,331.318
388.687,334.485
390.138,343.568
391.588,346.754
393.038,341.555
394.489,328.372
395.939,335.029
397.389,344.418
398.84,335.633
400.29,321.757
401.74,342.265
403.191,331.368
404.641,329.885
406.091,341.773
407.542,324.062
408.992,333.031
410.442,343.418
411.893,345.564
413.343,344.792
414.793,346.178
416.244,330.252
417.694,342.652
419.144,343.633
420.595,332.742
422.045,323.304
423.495,336.35
424.946,333.163
426.396,328.792
427.846,321.062
429.297,326.03
430.747,348.09
432.197,323.987
433.648,336.318
435.098,332.069
436.548,323.138
437.999,320.358
439.449,324.168
440.899,311.974
442.35,328.471
443.8,327.754
445.25,319.764
446.701,325.466
448.151,341.758
449.601,339.426
451.051,336.226
452.502,333.932
453.952,326.774
455.402,309.812
456.853,329.903
458.303,324.235
459.753,324.664
461.204,325.558
462.654,321.674
464.104,323.701
465.555,319.333
467.005,325.496
468.455,331.868
469.906,326.84
471.356,311.413
472.806,337.665
474.257,340.994
475.707,333.969
477.157,332.568
478.608,340.032
480.058,343.962
481.508,313.339
482.959,328.012
484.409,330.317
485.859,329.607
487.31,334.815
488.76,320.552
490.21,338.359
491.661,347.427
493.111,336.122
494.561,317.329
496.012,312.399
497.462,328.757
498.912,317.9
500.363,323.898
501.813,326.138
503.263,320.785
504.714,321.637
506.164,333.041
507.614,329.402
509.065,326.019
510.515,326.14
511.965,325.599
513.416,315.891
514.866,322.63
516.316,330.103
517.766,331.07
519.217,327.398
520.667,323.273
522.117,321.264
523.568,328.01
525.018,321.654
526.468,316.65
527.919,315.787
529.369,320.489
530.819,344.56
532.27,321.166
533.72,327.5
535.17,326.864
536.621,321.689
538.071,331.922
539.521,334.857
540.972,326.232
542.422,331.021
543.872,326.924
545.323,321.05
546.773,335.285
548.223,328.226
549.674,327.068
551.124,332.521
552.574,335.717
554.025,333.273
555.475,328.824
556.925,326.764
558.376,324.965
559.826,320.962
561.276,320.264
562.727,319.811
564.177,310.506
565.627,322.293
567.078,316.708
568.528,307.95
569.978,307.103
571.429,312.597
572.879,311.706
574.329,321.735
575.78,311.917
577.23,318.089
578.68,324.797
580.131,325.371
581.581,333.421
583.031,315.707
584.482,324.511
585.932,322.906
587.382,320.774
588.832,321.254
590.283,310.605
591.733,310.605
593.183,317.347
594.634,328.648
596.084,321.74
597.534,300.307
598.985,297.046
600.435,300.004
601.885,317.157
603.336,321.569
604.786,324.327
606.236,328.144
607.687,323.085
609.137,320.42
610.587,324.19
612.038,330.522
613.488,330.786
614.938,328.05
616.389,331.335
617.839,324.224
619.289,332.785
620.74,320.186
622.19,317.629
623.64,322.005
625.091,311.4
626.541,309.619
627.991,321.189
629.442,334.489
630.892,336.462
632.342,327.621
633.793,317.415
635.243,315.93
636.693,334.463
638.144,333.011
639.594,325.208
641.044,322.885
642.495,330.022
643.945,338.144
645.395,313.471
646.846,332.292
648.296,340.998
649.746,340.082
651.197,338.525
652.647,334.782
654.097,335.972
655.547,341.923
656.998,342.231
658.448,336.659
659.898,331.651
661.349,333.473
662.799,329.601
664.249,338.927
665.7,341.643
667.15,335.871
668.6,337.247
670.051,352.532
671.501,343.89
672.951,341.207
674.402,344.597
675.852,347.874
677.302,341.314
678.753,330.915
680.203,342.052
681.653,346.236
683.104,350.153
684.554,341.783
686.004,341.436
687.455,346.427
688.905,338.039
690.355,344.312
691.806,355.157
693.256,344.833
694.706,348.367
696.157,354.453
697.607,348.157
699.057,360.479
700.508,347.304
701.958,342.013
703.408,342.303
704.859,343.687
706.309,339.684
707.759,330.198
709.21,355.345
710.66,353.924
712.11,349.727
713.561,345.403
715.011,345.393
716.461,350.626
717.912,350.416
719.362,342.016
720.812,360.204
722.263,363.203
723.713,363.538
725.163,362.593
726.613,343.35
728.064,347.549
729.514,340.718
730.964,344.663
732.415,358.653
733.865,359.543
735.315,343.53
736.766,358.306
738.216,355.9
739.666,349.844
741.117,353.186
742.567,360.387
744.017,363.488
745.468,357.691
746.918,341.739
748.368,343.186
749.819,351.027
751.269,374.113
752.719,377.428
754.17,357.993
755.62,369.644
757.07,383.202
758.521,375.955
759.971,362.651
761.421,350.112
762.872,354.124
764.322,371.236
765.772,354.24
767.223,347.906
768.673,367.543
770.123,365.69
771.574,351.768
773.024,350.416
774.474,368.482
775.925,359.133
777.375,375.139
778.825,362.897
780.276,363.566
781.726,365.697
783.176,364.823
784.627,374.402
786.077,364.426
787.527,379.559
788.978,374.459
790.428,369.519
791.878,368.007
793.328,368.272
794.779,372.783
796.229,374.599
797.68,361.935
799.13,362.489
800.58,370.771
802.03,379.556
803.481,378.01
804.931,356.561
806.381,363.528
807.832,375.516
809.282,380.655
810.732,378.794
812.183,374.895
813.633,369.877
815.083,357.865
816.534,369.087
817.984,359.623
819.434,376.227
820.885,382.229
822.335,378.814
823.785,386.812
825.236,402.363
826.686,388.395
828.136,395.651
829.587,411.823
831.037,404.477
832.487,390.745
833.938,389.808
835.388,375.815
836.838,407.734
838.289,395.753
839.739,386.015
841.189,382.144
842.64,385.911
844.09,391.343
845.54,384.011
846.991,400.445
848.441,389.195
849.891,406.993
851.342,402.539
852.792,382.029
854.242,378.081
855.693,395.683
857.143,374.355
858.593,400.832
860.044,412.713
861.494,418.69
862.944,410.956
864.394,397.569
865.845,402.366
867.295,390.165
868.745,402.214
870.196,396.447
871.646,396.151
873.096,393.395
874.547,384.985
875.997,385.027
877.447,408.438
878.898,412.407
880.348,389.262
881.798,386.883
883.249,384.333
884.699,385.891
886.149,402.292
887.6,397.461
889.05,393.482
890.5,397.304
891.951,404.654
893.401,405.637
894.851,415.444
896.302,429.427
897.752,410.016
899.202,400.526
900.653,390.728
902.103,415.953
903.553,414.247
905.004,403.342
906.454,404.334
907.904,409.122
909.355,409.145
910.805,400.552
912.255,423.18
913.706,434.877
915.156,426.422
916.606,424.225
918.057,437.88
919.507,426.771
920.957,409.874
922.408,434.776
923.858,428.948
925.308,413.631
926.759,415.344
928.209,429.273
929.659,428.495
931.109,415.763
932.56,425.3
934.01,412.853
935.46,422.644
936.911,427.462
938.361,433.36
939.811,443.896
941.262,428.736
942.712,430.274
944.162,410.216
945.613,434.731
947.063,424.119
948.513,406.936
949.964,408.725
951.414,425.288
952.864,459.204
954.315,447.808
955.765,425.836
957.215,436.797
958.666,436.539
960.116,428.924
961.566,422.681
963.017,413.266
964.467,426.118
965.917,427.662
967.368,438.526
968.818,431.361
970.268,426.077
971.719,431.661
973.169,437.002
974.619,427.099
976.07,415.619
977.52,440.323
978.97,441.112
980.421,440.452
981.871,443.403
983.321,432.879
984.772,414.012
986.222,427.438
987.672,437.652
989.123,447.549
990.573,442.545
992.023,437.842
993.474,437.715
994.924,438.529
996.374,433.557
997.825,423.732
999.275,444.496
1000.73,456.104
1002.18,461.584
1003.63,463.114
1005.08,450.851
1006.53,446.59
1007.98,463.616
1009.43,469.33
1010.88,478.019
1012.33,477.821
1013.78,469.889
1015.23,462.766
1016.68,471.105
1018.13,480.536
1019.58,480.232
1021.03,487.641
1022.48,479.911
1023.93,484.574
1025.38,496.216
1026.83,497.029
1028.28,494.209
1029.73,487.607
1031.18,488.423
1032.63,513.438
1034.08,512.316
1035.53,494.58
1036.98,525.928
1038.43,524.596
1039.88,531.667
1041.33,541.636
1042.78,548.457
1044.23,558.508
1045.69,524.564
1047.14,551.674
1048.59,541.388
1050.04,540.174
1051.49,548.195
1052.94,554.377
1054.39,567.368
1055.84,582.945
1057.29,556.016
1058.74,561.944
1060.19,569.097
1061.64,572.32
1063.09,582.797
1064.54,598.871
1065.99,607.024
1067.44,609.775
1068.89,625.943
1070.34,632.123
1071.79,621.499
1073.24,621.352
1074.69,630.514
1076.14,619.235
1077.59,621.385
1079.04,650.079
1080.49,668.326
1081.94,649.487
1083.39,642.605
1084.84,659.616
1086.29,636.277
1087.74,626.687
1089.2,620.668
1090.65,623.229
1092.1,635.378
1093.55,637.028
1095,636.519
1096.45,637.773
1097.9,629.96
1099.35,627.036
1100.8,622.303
1102.25,631.895
1103.7,640.214
1105.15,631.57
1106.6,630.457
1108.05,621.866
1109.5,619.981
1110.95,636.192
1112.4,629.91
1113.85,612.756
1115.3,610
1116.75,619.136
1118.2,615.575
1119.65,593.965
1121.1,589.057
1122.55,597.856
1124,592.238
1125.45,596.58
1126.9,591.884
1128.35,592.925
1129.8,598.517
1131.25,590.182
1132.7,583.953
1134.16,588.946
1135.61,575.412
1137.06,575.687
1138.51,577.18
1139.96,572.099
1141.41,585.553
1142.86,592.167
1144.31,568.404
1145.76,588.753
1147.21,589.723
1148.66,593.194
1150.11,574.001
1151.56,570.24
1153.01,558.769
1154.46,563.273
1155.91,580.569
1157.36,582.62
1158.81,578.297
1160.26,564.494
1161.71,562.913
1163.16,566.224
1164.61,563.031
1166.06,566.643
1167.51,570.383
1168.96,566.912
1170.41,568.299
1171.86,583.656
1173.31,566.035
1174.76,593.223
1176.21,570.052
1177.66,578.2
1179.12,574.97
1180.57,565.704
1182.02,556.42
1183.47,559.531
1184.92,578.601
1186.37,571.29
1187.82,580.481
1189.27,566.865
1190.72,587.612
1192.17,599.405
1193.62,604.753
1195.07,602.486
1196.52,599.411
1197.97,597.56
1199.42,588.059
1200.87,603.441
1202.32,602.488
1203.77,607.562
1205.22,594.447
1206.67,595.383
1208.12,588.022
1209.57,578.6
1211.02,584.986
1212.47,601.269
1213.92,608.805
1215.37,606.335
1216.82,606.335
1218.27,604.006
1219.72,600.186
1221.17,599.555
1222.63,604.164
1224.08,600.616
1225.53,606.144
1226.98,638.463
1228.43,624.107
1229.88,596.701
1231.33,620.274
1232.78,609.451
1234.23,637.689
1235.68,634.238
1237.13,632.507
1238.58,625.142
1240.03,605.8
1241.48,617.973
1242.93,633.125
1244.38,637.679
1245.83,622.046
1247.28,628.267
1248.73,638.906
1250.18,630.055
1251.63,651.147
1253.08,680.746
1254.53,669.772
1255.98,641.741
1257.43,655.688
1258.88,683.863
1260.33,670.121
1261.78,668.728
1263.23,676.459
1264.68,680.42
1266.13,682.782
1267.59,678.93
1269.04,680.158
1270.49,698.755
1271.94,714.627
1273.39,742.524
1274.84,722.653
1276.29,735.58
1277.74,765.789
1279.19,758.231
1280.64,751.914
1282.09,758.771
1283.54,761.026
1284.99,770.355
1286.44,810.588
1287.89,821.206
1289.34,829.574
1290.79,841.12
1292.24,857.895
1293.69,868.02
1295.14,894.965
1296.59,933.779
1298.04,950.892
1299.49,956.698
1300.94,981.478
1302.39,1006.57
1303.84,1059.04
1305.29,1046.83
1306.74,1050.65
1308.19,1122.17
1309.64,1177.03
1311.09,1197.89
1312.55,1231.86
1314,1267.55
1315.45,1297.34
1316.9,1346.82
1318.35,1393.27
1319.8,1478.35
1321.25,1515.68
1322.7,1559.61
1324.15,1631.96
1325.6,1668.02
1327.05,1707.39
1328.5,1747.28
1329.95,1767.95
1331.4,1769.15
1332.85,1782.88
1334.3,1834.16
1335.75,1820.76
1337.2,1797.54
1338.65,1770.82
1340.1,1769.07
1341.55,1773.71
1343,1708.14
1344.45,1667.01
1345.9,1651.12
1347.35,1600.06
1348.8,1542.95
1350.25,1537.44
1351.7,1503.1
1353.15,1429.89
1354.6,1374.65
1356.06,1327.91
1357.51,1304.53
1358.96,1251.67
1360.41,1201.73
1361.86,1170.98
1363.31,1119.9
1364.76,1063.17
1366.21,1064.06
1367.66,1054.66
1369.11,1010.76
1370.56,1021.45
1372.01,981.852
1373.46,977.646
1374.91,960.846
1376.36,944.05
1377.81,932.956
1379.26,924.86
1380.71,906.672
1382.16,882.544
1383.61,878.971
1385.06,880.746
1386.51,893.683
1387.96,865.794
1389.41,893.969
1390.86,882.178
1392.31,860.167
1393.76,845.526
1395.21,846.533
1396.66,841.605
1398.11,838.954
1399.56,851.477
1401.02,852.157
1402.47,868.231
1403.92,876.54
1405.37,836.852
1406.82,850.542
1408.27,838.516
1409.72,843.33
1411.17,836.444
1412.62,837.248
1414.07,850.389
1415.52,852.126
1416.97,857.704
1418.42,884.252
1419.87,863.23
1421.32,884.98
1422.77,892.139
1424.22,870.619
1425.67,888.746
1427.12,884.13
1428.57,885.393
1430.02,877.571
1431.47,878.687
1432.92,889.055
1434.37,908.94
1435.82,918.429
1437.27,883.364
1438.72,909.082
1440.17,919
1441.62,900.38
1443.07,969.811
1444.53,955.922
1445.98,955.523
1447.43,961.703
1448.88,959.428
1450.33,958.81
1451.78,981.439
1453.23,1002.11
1454.68,1003.65
1456.13,1026.49
1457.58,1017.93
1459.03,1045.14
1460.48,1039.58
1461.93,1053.97
1463.38,1050.7
1464.83,1057.81
1466.28,1101.05
1467.73,1130.87
1469.18,1130.56
1470.63,1124.62
1472.08,1140.62
1473.53,1167.09
1474.98,1172.33
1476.43,1178.28
1477.88,1196.09
1479.33,1249.93
1480.78,1234.49
1482.23,1238.5
1483.68,1310.18
1485.13,1317.6
1486.58,1342.26
1488.03,1373.35
1489.49,1369.31
1490.94,1402.2
1492.39,1458.58
1493.84,1477.32
1495.29,1540.08
1496.74,1519.54
1498.19,1528.81
1499.64,1628.34
1501.09,1655.96
1502.54,1697.38
1503.99,1743.26
1505.44,1786.32
1506.89,1838.88
1508.34,1895.66
1509.79,1979.46
1511.24,2049
1512.69,2118.25
1514.14,2245.4
1515.59,2356.93
1517.04,2430.84
1518.49,2529.4
1519.94,2623.11
1521.39,2823.81
1522.84,2965.25
1524.29,3129.04
1525.74,3313.11
1527.19,3519.12
1528.64,3751.8
1530.09,4006.81
1531.54,4301.3
1532.99,4641.54
1534.45,4977.26
1535.9,5348.15
1537.35,5891.24
1538.8,6428.02
1540.25,7027.3
1541.7,7582.97
1543.15,8198.81
1544.6,8935.34
1546.05,9714.2
1547.5,10601.8
1548.95,11432.3
1550.4,12221.1
1551.85,13085.9
1553.3,13962.9
1554.75,14836.9
1556.2,15744.6
1557.65,16578
1559.1,16604.8
1560.55,16624.6
1562,16662.9
1563.45,16674.2
1564.9,16682.7
1566.35,16672.8
1567.8,16668.6
1569.25,16681.3
1570.7,16678.5
1572.15,16141.7
1573.6,15306.4
1575.05,14443.1
1576.5,13572.7
1577.96,12622.1
1579.41,11648.8
1580.86,10761.8
1582.31,9940.82
1583.76,9085.07
1585.21,8345.27
1586.66,7630.52
1588.11,7019.56
1589.56,6487.46
1591.01,5965.66
1592.46,5531.6
1593.91,5176.5
1595.36,4802.15
1596.81,4488.23
1598.26,4167.35
1599.71,3927.25
1601.16,3765.19
1602.61,3576.22
1604.06,3403.35
1605.51,3256.83
1606.96,3102.08
1608.41,2943.43
1609.86,2819.53
1611.31,2671.52
1612.76,2617.05
1614.21,2444.04
1615.66,2379.13
1617.11,2278.59
1618.56,2218.1
1620.01,2121.85
1621.46,2043.73
1622.92,1965.26
1624.37,1903.4
1625.82,1858.94
1627.27,1804.95
1628.72,1763.33
1630.17,1708.04
1631.62,1675.57
1633.07,1634.48
1634.52,1604.22
1635.97,1552.01
1637.42,1549.07
1638.87,1504.39
1640.32,1465.11
1641.77,1458.28
1643.22,1439.61
1644.67,1417.58
1646.12,1394.6
1647.57,1389.29
1649.02,1368.69
1650.47,1338.17
1651.92,1332.05
1653.37,1329.1
1654.82,1298.33
1656.27,1279.66
1657.72,1274.47
1659.17,1248.51
1660.62,1225.56
1662.07,1230.75
1663.52,1256.77
1664.97,1244.06
1666.42,1227.38
1667.88,1216.53
1669.33,1206.49
1670.78,1190.15
1672.23,1164.84
1673.68,1171.24
1675.13,1168.07
1676.58,1165.72
1678.03,1149.48
1679.48,1135.18
1680.93,1144.72
1682.38,1142.39
1683.83,1133.15
1685.28,1121.21
1686.73,1129.18
1688.18,1126.66
1689.63,1122.98
1691.08,1112.82
1692.53,1093.73
1693.98,1091.99
1695.43,1111.87
1696.88,1124.14
1698.33,1115.51
1699.78,1118.35
1701.23,1101.62
1702.68,1105.53
1704.13,1091.77
1705.58,1103.23
1707.03,1102.93
1708.48,1077.61
1709.93,1102.66
1711.39,1102.22
1712.84,1101.2
1714.29,1096.41
1715.74,1112.65
1717.19,1125.36
1718.64,1102.32
1720.09,1104.2
1721.54,1108.27
1722.99,1080.5
1724.44,1085.68
1725.89,1116.23
1727.34,1126.43
1728.79,1126.57
1730.24,1099.22
1731.69,1080.7
1733.14,1126.67
1734.59,1090.46
1736.04,1081.66
1737.49,1108.97
1738.94,1086.18
1740.39,1082.81
1741.84,1103.75
1743.29,1084.79
1744.74,1077.58
1746.19,1059.13
1747.64,1049.14
1749.09,1064.77
1750.54,1049.25
1751.99,1046.92
1753.44,1063.14
1754.89,1049.67
1756.35,1047.41
1757.8,1072.16
1759.25,1066.02
1760.7,1052.89
1762.15,1057.57
1763.6,1032.72
1765.05,1034.45
1766.5,1050.96
1767.95,1044.07
1769.4,1013.79
1770.85,1010.31
1772.3,1002.52
1773.75,1019.5
1775.2,1012.55
1776.65,1010.93
1778.1,1012.81
1779.55,1018.69
1781,1012.25
1782.45,1015.98
1783.9,1011.93
1785.35,1025.2
1786.8,1028.84
1788.25,1024.49
1789.7,1014.6
1791.15,1011.29
1792.6,1025.59
1794.05,1022.46
1795.5,1017.16
1796.95,1013.13
1798.4,1018.54
1799.85,1029.46
1801.31,999.879
1802.76,999.837
1804.21,979.067
1805.66,1008.43
1807.11,958.782
1808.56,979.654
1810.01,989.677
1811.46,990.939
1812.91,966.218
1814.36,997.528
1815.81,1018.19
1817.26,1026.81
1818.71,1025.8
1820.16,1013.11
1821.61,1003.42
1823.06,991.423
1824.51,1000.43
1825.96,1003.2
1827.41,992.983
1828.86,1009.8
1830.31,1018.04
1831.76,1009.75
1833.21,1019.15
1834.66,1006.2
1836.11,1005.86
1837.56,993.436
1839.01,1024.57
1840.46,1047.72
1841.91,1003.74
1843.36,1016.62
1844.82,1033.67
1846.27,1018.29
1847.72,1032.24
1849.17,1041.48
1850.62,1032.14
1852.07,1035.11
1853.52,1058.17
1854.97,1058.95
1856.42,1039.57
1857.87,1031.14
1859.32,1061.61
1860.77,1075.02
1862.22,1062.1
1863.67,1047.92
1865.12,1053.91
1866.57,1058.4
1868.02,1046.64
1869.47,1028.65
1870.92,1019.69
1872.37,1034.3
1873.82,1047.97
1875.27,1037.2
1876.72,1023.67
1878.17,1034.53
1879.62,1024.49
1881.07,1016
1882.52,1003.89
1883.97,1006.57
1885.42,1007.59
1886.87,1016.62
1888.32,1013.11
1889.78,999.926
1891.23,1008.87
1892.68,1004.33
1894.13,1011.92
1895.58,1004.37
1897.03,1014.7
1898.48,1013.24
1899.93,988.872
1901.38,992.014
1902.83,984.433
1904.28,977.744
1905.73,983.846
1907.18,999.137
1908.63,999.037
1910.08,988.222
1911.53,972.155
1912.98,957.94
1914.43,968.336
1915.88,976.239
1917.33,959.105
1918.78,959.51
1920.23,977.822
1921.68,979.512
1923.13,977.839
1924.58,974.736
1926.03,965.526
1927.48,968.577
1928.93,979.869
1930.38,974.779
1931.83,970.577
1933.29,943.443
1934.74,973.137
1936.19,980.196
1937.64,942.215
1939.09,958.455
1940.54,948.613
1941.99,970.587
1943.44,972.961
1944.89,974.011
1946.34,976.088
1947.79,953.886
1949.24,974.471
1950.69,958.47
1952.14,983.7
1953.59,989.219
1955.04,970.814
1956.49,983.538
1957.94,977.83
1959.39,964.845
1960.84,976.384
1962.29,972.766
1963.74,981.689
1965.19,988.284
1966.64,987.271
1968.09,1005.04
1969.54,1014.82
1970.99,1017.07
1972.44,1022.13
1973.89,1002.36
1975.34,1002.64
1976.79,1013.16
1978.25,1011.32
1979.7,998.688
1981.15,1000.36
1982.6,1008.13
1984.05,997.576
1985.5,1006.4
1986.95,999.245
1988.4,986.347
1989.85,1012.87
1991.3,1004.67
1992.75,1005.31
1994.2,1009.28
1995.65,1015.8
1997.1,1019.04
1998.55,1010.93
2000,1001.74
2001.45,1019.49
2002.9,1007.64
2004.35,999.586
2005.8,1005.53
2007.25,1013.92
2008.7,1019.55
2010.15,1020.98
2011.6,1026.52
2013.05,993.927
2014.5,986.89
2015.95,1000.84
2017.4,988.222
2018.85,964.96
2020.3,1000.16
2021.75,1003.95
2023.21,970.9
2024.66,996.453
2026.11,984.66
2027.56,998.307
2029.01,1003.28
2030.46,977.738
2031.91,980.196
2033.36,964.694
2034.81,975.892
2036.26,993.707
2037.71,982.725
2039.16,984.276
2040.61,995.865
2042.06,968.024
2043.51,949.388
2044.96,963.02
2046.41,935.211
2047.86,950.504
2049.31,963.268
2050.76,950.81
2052.21,948.84
2053.66,971.846
2055.11,977.332
2056.56,956.177
2058.01,947.747
2059.46,967.585
2060.91,969.864
2062.36,957.127
2063.81,946.913
2065.26,935.941
2066.72,939.599
2068.17,953.914
2069.62,927.244
2071.07,931.444
2072.52,958.911
2073.97,956.765
2075.42,948.49
2076.87,950.574
2078.32,946.373
2079.77,928.988
2081.22,942.297
2082.67,958.868
2084.12,954.475
2085.57,932.854
2087.02,934.29
2088.47,916.194
2089.92,914.998
2091.37,923.694
2092.82,939.675
2094.27,963.332
2095.72,950.006
2097.17,941.905
2098.62,945.226
2100.07,932.07
2101.52,920.712
2102.97,929.805
2104.42,920.622
2105.87,936.271
2107.32,942.688
2108.77,946.858
2110.22,948.77
2111.68,956.056
2113.13,944.274
2114.58,938.437
2116.03,954.437
2117.48,955.035
2118.93,939.851
2120.38,957.352
2121.83,956.209
2123.28,928.413
2124.73,945.428
2126.18,957.204
2127.63,950.398
2129.08,953.89
2130.53,960.949
2131.98,967.491
2133.43,966.837
2134.88,966.758
2136.33,960.819
2137.78,968.894
2139.23,968.561
2140.68,967.146
2142.13,957.692
2143.58,956.141
2145.03,987.886
2146.48,989.682
2147.93,977.954
2149.38,964.906
2150.83,966.962
2152.28,981.675
2153.73,982.386
2155.18,970.383
2156.64,976.108
2158.09,977.293
2159.54,973.902
2160.99,985.473
2162.44,987.104
2163.89,988.113
2165.34,979.234
2166.79,985.526
2168.24,1016.37
2169.69,1008.07
2171.14,994.761
2172.59,996.027
2174.04,998.058
2175.49,1005.79
2176.94,1008.42
2178.39,1000.63
2179.84,1002.13
2181.29,1003.31
2182.74,1009.53
2184.19,1007.43
2185.64,999.936
2187.09,1006.83
2188.54,1015.54
2189.99,1015.83
2191.44,1009.61
2192.89,1021.57
2194.34,1021.13
2195.79,1020.92
2197.24,1030.1
2198.69,1026.84
2200.15,1011.88
2201.6,1013.82
2203.05,1014.42
2204.5,1036.58
2205.95,1031.07
2207.4,1035.72
2208.85,1026.59
2210.3,1034.34
2211.75,1044.87
2213.2,1048.67
2214.65,1039.46
2216.1,1039.56
2217.55,1047.56
2219,1054.34
2220.45,1026.32
2221.9,1051.04
2223.35,1064.42
2224.8,1062.4
2226.25,1044.86
2227.7,1026.9
2229.15,1058.52
2230.6,1074.93
2232.05,1074.23
2233.5,1048.75
2234.95,1056.51
2236.4,1056.69
2237.85,1061.36
2239.3,1036.29
2240.75,1043.37
2242.2,1067.45
2243.65,1082.44
2245.11,1054.97
2246.56,1080.06
2248.01,1070.46
2249.46,1067.29
2250.91,1088.77
2252.36,1077.76
2253.81,1070.25
2255.26,1082.33
2256.71,1065.87
2258.16,1077.03
2259.61,1091.27
2261.06,1084.04
2262.51,1057.63
2263.96,1088.16
2265.41,1098.61
2266.86,1083.11
2268.31,1062.76
2269.76,1079.6
2271.21,1102.69
2272.66,1090.67
2274.11,1088.98
2275.56,1073.01
2277.01,1075.66
2278.46,1107.36
2279.91,1107.84
2281.36,1129.1
2282.81,1135.01
2284.26,1097.97
2285.71,1097.44
2287.16,1114.41
2288.61,1132.05
2290.07,1115.77
2291.52,1096.99
2292.97,1122.61
2294.42,1129.15
2295.87,1134.09
2297.32,1136.82
2298.77,1108.77
2300.22,1136.93
2301.67,1176.55
2303.12,1175.1
2304.57,1158.25
2306.02,1137.6
2307.47,1144.93
2308.92,1141.42
2310.37,1157.23
2311.82,1152.55
2313.27,1168.82
2314.72,1145.34
2316.17,1180.68
2317.62,1156.95
2319.07,1169.76
2320.52,1190.16
2321.97,1173.74
2323.42,1177.57
2324.87,1213.04
2326.32,1187.81
2327.77,1192.23
2329.22,1183.48
2330.67,1216.96
2332.12,1221.89
2333.57,1225.98
2335.03,1229.1
2336.48,1198.37
2337.93,1196.6
2339.38,1221.5
2340.83,1246.47
2342.28,1237.15
2343.73,1249.13
2345.18,1237.13
2346.63,1254.33
2348.08,1273.41
2349.53,1275.11
2350.98,1271.93
2352.43,1291.8
2353.88,1284.69
2355.33,1289.7
2356.78,1293.31
2358.23,1318.26
2359.68,1304.85
2361.13,1321.87
2362.58,1358.57
2364.03,1367.18
2365.48,1340.32
2366.93,1347.37
2368.38,1379.97
2369.83,1381.71
2371.28,1374.18
2372.73,1383.42
2374.18,1426.23
2375.63,1441.77
2377.08,1450.54
2378.54,1457.91
2379.99,1458.26
2381.44,1470.92
2382.89,1514.24
2384.34,1527.98
2385.79,1516.65
2387.24,1531.78
2388.69,1565.11
2390.14,1590.02
2391.59,1618.99
2393.04,1617.7
2394.49,1625.56
2395.94,1653.78
2397.39,1640.86
2398.84,1646.72
2400.29,1722.74
2401.74,1754.48
2403.19,1762.1
2404.64,1770.19
2406.09,1774.76
2407.54,1824.7
2408.99,1806.68
2410.44,1821.7
2411.89,1815.55
2413.34,1862.24
2414.79,1884.31
2416.24,1851.22
2417.69,1896.13
2419.14,1886.2
2420.59,1903.54
2422.04,1915.24
2423.5,1905.93
2424.95,1924.93
2426.4,1939.95
2427.85,1937.65
2429.3,1911.7
2430.75,1907.36
2432.2,1888.21
2433.65,1899.3
2435.1,1906.66
2436.55,1922.72
2438,1874.34
2439.45,1886.2
2440.9,1891.91
2442.35,1885.46
2443.8,1852.45
2445.25,1843.44
2446.7,1871.82
2448.15,1847.72
2449.6,1837.49
2451.05,1848.16
2452.5,1821
2453.95,1833.37
2455.4,1819.57
2456.85,1804.17
2458.3,1774.96
2459.75,1732.7
2461.2,1746.08
2462.65,1746.94
2464.1,1755.65
2465.55,1769.61
2467.01,1784.71
2468.46,1739.19
2469.91,1781.58
2471.36,1776.59
2472.81,1749.96
2474.26,1736.13
2475.71,1727.04
2477.16,1769.14
2478.61,1755.34
2480.06,1743.72
2481.51,1752.71
2482.96,1722.39
2484.41,1745.42
2485.86,1735.58
2487.31,1743.72
2488.76,1742.58
2490.21,1748
2491.66,1734.25
2493.11,1746.53
2494.56,1784.4
2496.01,1763.02
2497.46,1769.86
2498.91,1766.69
2500.36,1799.99
2501.81,1788.96
2503.26,1782.24
2504.71,1813.2
2506.16,1827.93
2507.61,1806.82
2509.06,1824.87
2510.51,1825.76
2511.97,1815.61
2513.42,1792.57
2514.87,1848.98
2516.32,1847.64
2517.77,1835.81
2519.22,1861.58
2520.67,1867.3
2522.12,1864.16
2523.57,1896.33
2525.02,1950.12
2526.47,1965.32
2527.92,1969.48
2529.37,1972.93
2530.82,2014.89
2532.27,2030.64
2533.72,2027.28
2535.17,2044.77
2536.62,2051.07
2538.07,2095.31
2539.52,2076.76
2540.97,2120.35
2542.42,2144.71
2543.87,2148.27
2545.32,2195.67
2546.77,2186.55
2548.22,2249.28
2549.67,2303.65
2551.12,2326.7
2552.57,2342.48
2554.02,2345.06
2555.48,2357.21
2556.93,2404.37
2558.38,2461.11
2559.83,2490.76
2561.28,2520.7
2562.73,2557.4
2564.18,2649.4
2565.63,2660.34
2567.08,2729.85
2568.53,2755.86
2569.98,2880.67
2571.43,2930.82
2572.88,2971.4
2574.33,3020.61
2575.78,3092.2
2577.23,3149.02
2578.68,3214.37
2580.13,3294.62
2581.58,3336.1
2583.03,3379.68
2584.48,3495.62
2585.93,3584.66
2587.38,3661.08
2588.83,3816.65
2590.28,3868.92
2591.73,3945.19
2593.18,4098.77
2594.63,4246.16
2596.08,4344.09
2597.53,4481.94
2598.98,4666.09
2600.44,4796.62
2601.89,4929.1
2603.34,5101.66
2604.79,5281.05
2606.24,5404.88
2607.69,5612.71
2609.14,5795.05
2610.59,6016.52
2612.04,6181.01
2613.49,6461.05
2614.94,6602.07
2616.39,6787.84
2617.84,7120.19
2619.29,7317.13
2620.74,7572.91
2622.19,7889.43
2623.64,8149.81
2625.09,8357.83
2626.54,8612.48
2627.99,8871.21
2629.44,9176.19
2630.89,9375.36
2632.34,9647.23
2633.79,9954.48
2635.24,10231.4
2636.69,10527.2
2638.14,10733.8
2639.59,10934.8
2641.04,11212.1
2642.49,11466.5
2643.94,11637.9
2645.4,11814.9
2646.85,11941.7
2648.3,12100.2
2649.75,12194.9
2651.2,12269.8
2652.65,12314.5
2654.1,12232.9
2655.55,12258.9
2657,12316.7
2658.45,12218.1
2659.9,12189.6
2661.35,12141.8
2662.8,12025.8
2664.25,11810.7
2665.7,11628
2667.15,11488.5
2668.6,11287.5
2670.05,10959.6
2671.5,10662.5
2672.95,10547.7
2674.4,10171.5
2675.85,10002.5
2677.3,9678.22
2678.75,9384.68
2680.2,9114.03
2681.65,8764.76
2683.1,8528.96
2684.55,8279.79
2686,8047.15
2687.45,7754.79
2688.91,7413.61
2690.36,7159.8
2691.81,6852.71
2693.26,6594.52
2694.71,6376.17
2696.16,6155.99
2697.61,5832.55
2699.06,5721.27
2700.51,5563.45
2701.96,5362.37
2703.41,5151.33
2704.86,4947.91
2706.31,4764.24
2707.76,4603.87
2709.21,4428.36
2710.66,4241.98
2712.11,4102.35
2713.56,3987.42
2715.01,3863.69
2716.46,3846.18
2717.91,3660.2
2719.36,3575.08
2720.81,3452.74
2722.26,3307.05
2723.71,3267.07
2725.16,3203.75
2726.61,3090.38
2728.06,3023.6
2729.51,2997.53
2730.96,2877.2
2732.41,2851.7
2733.87,2780.3
2735.32,2677.79
2736.77,2647.46
2738.22,2587.85
2739.67,2565.24
2741.12,2506.56
2742.57,2468.39
2744.02,2453.92
2745.47,2339.05
2746.92,2346.23
2748.37,2296.96
2749.82,2285.93
2751.27,2235.55
2752.72,2188.77
2754.17,2202.27
2755.62,2132.78
2757.07,2085.94
2758.52,2089.24
2759.97,2061.79
2761.42,2040.4
2762.87,2043.58
2764.32,1982.48
2765.77,1979.73
2767.22,1980.89
2768.67,1940.13
2770.12,1916.87
2771.57,1920.11
2773.02,1886.72
2774.47,1884.73
2775.92,1862.99
2777.38,1854.31
2778.83,1836.22
2780.28,1817.31
2781.73,1793.72
2783.18,1753.53
2784.63,1800.18
2786.08,1741.4
2787.53,1750.25
2788.98,1740.85
2790.43,1717.18
2791.88,1719.13
2793.33,1708.39
2794.78,1671.66
2796.23,1694.3
2797.68,1662.75
2799.13,1692.27
2800.58,1657.09
2802.03,1643.91
2803.48,1621.66
2804.93,1662.92
2806.38,1647.43
2807.83,1615.4
2809.28,1606.87
2810.73,1608.89
2812.18,1585.77
2813.63,1608.32
2815.08,1583.09
2816.53,1584.46
2817.98,1579.83
2819.43,1587.34
2820.88,1580.72
2822.33,1557.87
2823.79,1538.5
2825.24,1552.71
2826.69,1559.5
2828.14,1553.68
2829.59,1534.14
2831.04,1541.98
2832.49,1509.21
2833.94,1513.49
2835.39,1534.57
2836.84,1518.27
2838.29,1481.84
2839.74,1472.59
2841.19,1482.42
2842.64,1508.05
2844.09,1501.71
2845.54,1488.52
2846.99,1452.24
2848.44,1510.53
2849.89,1491.46
2851.34,1487.79
2852.79,1493.82
2854.24,1489.63
2855.69,1481.53
2857.14,1478.99
2858.59,1481.65
2860.04,1449.45
2861.49,1509.58
2862.94,1448.65
2864.39,1462.67
2865.84,1487.32
2867.3,1492.56
2868.75,1467.12
2870.2,1464.38
2871.65,1459.43
2873.1,1451
2874.55,1438.69
2876,1434.01
2877.45,1466.72
2878.9,1474.1
2880.35,1427.4
2881.8,1432.68
2883.25,1457.56
2884.7,1462.9
2886.15,1458.18
2887.6,1450.91
2889.05,1459.27
2890.5,1469.51
2891.95,1449.37
2893.4,1452.77
2894.85,1442.36
2896.3,1448.31
2897.75,1447.5
2899.2,1449.98
2900.65,1452.77
2902.1,1450.12
2903.55,1427.37
2905,1436.5
2906.45,1446.82
2907.9,1435.33
2909.35,1428.12
2910.8,1420.72
2912.26,1403.68
2913.71,1418.39
2915.16,1402.91
2916.61,1411.4
2918.06,1381.93
2919.51,1417.58
2920.96,1400.66
2922.41,1419.87
2923.86,1400.97
2925.31,1389.95
2926.76,1403.8
2928.21,1395.81
2929.66,1385.81
2931.11,1373.6
2932.56,1373.68
2934.01,1371.23
2935.46,1344.09
2936.91,1341.87
2938.36,1342.61
2939.81,1340.51
2941.26,1332.5
2942.71,1326.1
2944.16,1345.08
2945.61,1340.86
2947.06,1316.53
2948.51,1316.14
2949.96,1302.68
2951.41,1314.44
2952.86,1322.09
2954.31,1315.58
2955.77,1287.32
2957.22,1285.59
2958.67,1270.21
2960.12,1295.65
2961.57,1260.87
2963.02,1282.27
2964.47,1275.64
2965.92,1280.63
2967.37,1271.39
2968.82,1271.11
2970.27,1265.83
2971.72,1265.66
2973.17,1250.73
2974.62,1248.49
2976.07,1238.13
2977.52,1232.39
2978.97,1235.18
2980.42,1244.55
2981.87,1233.34
2983.32,1234.85
2984.77,1228.5
2986.22,1233.96
2987.67,1231.64
2989.12,1250.17
2990.57,1233.86
2992.02,1237.8
2993.47,1238.52
2994.92,1239.95
2996.37,1225.19
2997.82,1240.13
2999.27,1250.4
3000.73,1220.52
3002.18,1232.03
3003.63,1201.14
3005.08,1233.5
3006.53,1236.84
3007.98,1231.64
3009.43,1233.56
3010.88,1221.69
3012.33,1208.98
3013.78,1193.64
3015.23,1207.68
3016.68,1219.61
3018.13,1232.33
3019.58,1192.34
3021.03,1191.61
3022.48,1199.01
3023.93,1212.52
3025.38,1220.76
3026.83,1227.85
3028.28,1225.36
3029.73,1233.67
3031.18,1219.61
3032.63,1204.89
3034.08,1234.67
3035.53,1204.9
3036.98,1215.28
3038.43,1185.42
3039.88,1204.37
3041.33,1254.79
3042.78,1249.18
3044.23,1221.86
3045.69,1221.76
3047.14,1213.1
3048.59,1206.98
3050.04,1218.06
3051.49,1187.27
3052.94,1216.57
3054.39,1221.34
3055.84,1199.34
3057.29,1224.68
3058.74,1231.35
3060.19,1264.45
3061.64,1239.05
3063.09,1257
3064.54,1245.51
3065.99,1236.83
3067.44,1246.75
3068.89,1260.55
3070.34,1258.89
3071.79,1238.33
3073.24,1263.4
3074.69,1275.18
3076.14,1285.32
3077.59,1284.69
3079.04,1301.71
3080.49,1315.17
3081.94,1313.73
3083.39,1269.26
3084.84,1305.97
3086.29,1338.04
3087.74,1306.57
3089.2,1330.54
3090.65,1347.88
3092.1,1378.03
3093.55,1361.4
3095,1366.91
3096.45,1367.29
3097.9,1377.77
3099.35,1371.33
3100.8,1379.23
3102.25,1413.83
3103.7,1396.46
3105.15,1448.66
3106.6,1458.76
3108.05,1458.01
3109.5,1453.21
3110.95,1475.92
3112.4,1492.24
3113.85,1506.45
3115.3,1459.28
3116.75,1501.74
3118.2,1555.75
3119.65,1544.06
3121.1,1568.82
3122.55,1594.53
3124,1585.86
3125.45,1585.51
3126.9,1614.2
3128.35,1617.37
3129.8,1598.29
3131.25,1630.4
3132.7,1632.83
3134.16,1621.68
3135.61,1634.44
3137.06,1614.95
3138.51,1626.24
3139.96,1676.29
3141.41,1682.23
3142.86,1683.86
3144.31,1687.13
3145.76,1667.27
3147.21,1683.57
3148.66,1733.47
3150.11,1718.37
3151.56,1699.11
3153.01,1701.75
3154.46,1714.47
3155.91,1691.69
3157.36,1732.48
3158.81,1722.03
3160.26,1742.24
3161.71,1734.39
3163.16,1723.13
3164.61,1742.59
3166.06,1728.81
3167.51,1745.04
3168.96,1752.41
3170.41,1793.59
3171.86,1820.52
3173.31,1796.03
3174.76,1803.89
3176.21,1811.03
3177.67,1810.85
3179.12,1848.64
3180.57,1834.35
3182.02,1838.1
3183.47,1867.07
3184.92,1873.75
3186.37,1888.42
3187.82,1885.33
3189.27,1865.59
3190.72,1878.35
3192.17,1878.62
3193.62,1876.72
3195.07,1866.71
3196.52,1859.39
3197.97,1862.58
3199.42,1857.53
3200.87,1822.18
3202.32,1853.16
3203.77,1807.3
3205.22,1777.88
3206.67,1755.21
3208.12,1828.41
3209.57,1770.39
3211.02,1731.24
3212.47,1713.07
3213.92,1721.86
3215.37,1706.49
3216.82,1680.3
3218.27,1688.2
3219.72,1656.15
3221.17,1636.99
3222.63,1620.4
3224.08,1616.08
3225.53,1588.36
3226.98,1544.27
3228.43,1539.84
3229.88,1518.03
3231.33,1494.32
3232.78,1456.89
3234.23,1448.32
3235.68,1419.11
3237.13,1366.22
3238.58,1410.82
3240.03,1411.71
3241.48,1380.59
3242.93,1355.7
3244.38,1342.76
3245.83,1310.17
3247.28,1298.22
3248.73,1295.1
3250.18,1312.15
3251.63,1290.81
3253.08,1266.8
3254.53,1263.19
3255.98,1232.95
3257.43,1223.4
3258.88,1239.03
3260.33,1216.88
3261.78,1243.38
3263.23,1231.48
3264.68,1197.74
3266.13,1224.7
3267.59,1250.3
3269.04,1215.53
3270.49,1200.88
3271.94,1223.54
3273.39,1191.19
3274.84,1176.16
3276.29,1223.24
3277.74,1172.12
3279.19,1178.98
3280.64,1204.35
3282.09,1201.4
3283.54,1193.12
3284.99,1169.75
3286.44,1178.65
3287.89,1186.43
3289.34,1155.71
3290.79,1176.1
3292.24,1182.47
3293.69,1179.82
3295.14,1177.66
3296.59,1175.33
3298.04,1161.84
3299.49,1178.08
3300.94,1174.42
3302.39,1201.08
3303.84,1169.11
3305.29,1164.81
3306.74,1179.11
3308.19,1171.01
3309.64,1173.43
3311.09,1185.75
3312.55,1179.88
3314,1202.59
3315.45,1184.29
3316.9,1174.54
3318.35,1166.51
3319.8,1158.9
3321.25,1178.39
3322.7,1162.5
3324.15,1162.69
3325.6,1189.28
3327.05,1189.4
3328.5,1160.29
3329.95,1171
3331.4,1197.02
3332.85,1170.24
3334.3,1169.21
3335.75,1160.3
3337.2,1167.13
3338.65,1152.78
3340.1,1178.36
3341.55,1158.78
3343,1160.52
3344.45,1156.85
3345.9,1163.98
3347.35,1109.09
3348.8,1167.07
3350.25,1173.84
3351.7,1185.88
3353.15,1185.41
3354.6,1172.78
3356.06,1164.97
3357.51,1186.48
3358.96,1136.86
3360.41,1148.06
3361.86,1154.93
3363.31,1171.71
3364.76,1140.28
3366.21,1159.4
3367.66,1188.84
3369.11,1183.65
3370.56,1176.78
3372.01,1179.98
3373.46,1147.51
3374.91,1188.69
3376.36,1192.81
3377.81,1177.16
3379.26,1155.25
3380.71,1193.59
3382.16,1203.25
3383.61,1185.18
3385.06,1175.77
3386.51,1163.41
3387.96,1179.04
3389.41,1206.95
3390.86,1204.1
3392.31,1164.44
3393.76,1176.71
3395.21,1187.82
3396.66,1149.81
3398.11,1187.32
3399.56,1182.59
3401.02,1183.84
3402.47,1182.64
3403.92,1168.37
3405.37,1187.08
3406.82,1158.8
3408.27,1200.69
3409.72,1179.23
3411.17,1184.06
3412.62,1162.03
3414.07,1195.92
3415.52,1160.94
3416.97,1191.46
3418.42,1189.78
3419.87,1179.63
3421.32,1173.75
3422.77,1172.73
3424.22,1186.65
3425.67,1210.49
3427.12,1223.64
3428.57,1187.86
3430.02,1193.59
3431.47,1186.04
3432.92,1164.14
3434.37,1181.86
3435.82,1198.26
3437.27,1200.32
3438.72,1206.83
3440.17,1180.62
3441.62,1187.28
3443.07,1192.67
3444.52,1205.63
3445.98,1190.55
3447.43,1156.6
3448.88,1168.91
3450.33,1177
3451.78,1187.1
3453.23,1208.93
3454.68,1184.07
3456.13,1190.95
3457.58,1220.94
3459.03,1190.72
3460.48,1183.78
3461.93,1186.47
3463.38,1176.26
3464.83,1200.18
3466.28,1199.46
3467.73,1171.27
3469.18,1209.33
3470.63,1197.87
3472.08,1192.66
3473.53,1185.96
3474.98,1196.3
3476.43,1161.5
3477.88,1217.11
3479.33,1202.52
3480.78,1198.86
3482.23,1211.8
3483.68,1204.91
3485.13,1193.09
3486.58,1201.69
3488.03,1185.54
3489.49,1185.28
3490.94,1187.36
3492.39,1189.25
3493.84,1207.13
3495.29,1186.36
3496.74,1201.79
3498.19,1185
3499.64,1227.2
3501.09,1185.78
3502.54,1225.45
3503.99,1210.39
3505.44,1189.83
3506.89,1218.39
3508.34,1214.75
3509.79,1234.35
3511.24,1227.75
3512.69,1225.97
3514.14,1210.37
3515.59,1222.23
3517.04,1260.53
3518.49,1230.5
3519.94,1210.23
3521.39,1186.47
3522.84,1241
3524.29,1214.3
3525.74,1200.12
3527.19,1230.57
3528.64,1217.42
3530.09,1225.46
3531.54,1197.95
3532.99,1201.4
3534.45,1215.02
3535.9,1243.84
3537.35,1212.47
3538.8,1212.94
3540.25,1191.78
3541.7,1196.22
3543.15,1202.95
3544.6,1212.28
3546.05,1246.73
3547.5,1233.29
3548.95,1243.37
3550.4,1236.7
3551.85,1236.7
3553.3,1197.5
3554.75,1206.73
3556.2,1208.31
3557.65,1231.17
3559.1,1219.55
3560.55,1213.14
3562,1197.98
3563.45,1240.07
3564.9,1236.74
3566.35,1213.8
3567.8,1242.5
3569.25,1220.7
3570.7,1234.66
3572.15,1237.71
3573.6,1242.74
3575.05,1235.51
3576.5,1200.6
3577.96,1196.93
3579.41,1227.32
3580.86,1217.53
3582.31,1234.14
3583.76,1244.02
3585.21,1241.11
3586.66,1230.9
3588.11,1249.9
3589.56,1224.66
3591.01,1245.49
3592.46,1259.8
3593.91,1226.45
3595.36,1230.7
3596.81,1249.14
3598.26,1242.52
3599.71,1220.2
3601.16,1237.37
3602.61,1251.52
3604.06,1236
3605.51,1233.34
3606.96,1231.19
3608.41,1250.19
3609.86,1239.4
3611.31,1254.25
3612.76,1226.32
3614.21,1224.8
3615.66,1274.39
3617.11,1235.91
3618.56,1250.1
3620.01,1239.83
3621.46,1254.37
3622.92,1252.63
3624.37,1253.48
3625.82,1253.81
3627.27,1258.3
3628.72,1221.11
3630.17,1239.78
3631.62,1257.11
3633.07,1230.19
3634.52,1254.36
3635.97,1257.06
3637.42,1254.11
3638.87,1264.44
3640.32,1230.09
3641.77,1280.13
3643.22,1282.61
3644.67,1262.85
3646.12,1263.63
3647.57,1267.48
3649.02,1261.3
3650.47,1276.06
3651.92,1265.67
3653.37,1277.87
3654.82,1271.09
3656.27,1264.66
3657.72,1259.32
3659.17,1278.01
3660.62,1288.07
3662.07,1276.03
3663.52,1272.63
3664.97,1278.53
3666.43,1270.7
3667.88,1294.04
3669.33,1255.77
3670.78,1261.79
3672.23,1276.27
3673.68,1288.74
3675.13,1288.91
3676.58,1293.93
3678.03,1274.26
3679.48,1294.14
3680.93,1303.3
3682.38,1275.11
3683.83,1273.6
3685.28,1271.35
3686.73,1301.15
3688.18,1290.61
3689.63,1293.58
3691.08,1281.6
3692.53,1301.68
3693.98,1287.44
3695.43,1300.24
3696.88,1286.9
3698.33,1272.27
3699.78,1272.39
3701.23,1288.18
3702.68,1293.53
3704.13,1316.86
3705.58,1293.27
3707.03,1316.61
3708.48,1291.75
3709.93,1285.83
3711.39,1300.53
3712.84,1267.58
3714.29,1309.49
3715.74,1296.99
3717.19,1300.02
3718.64,1308.51
3720.09,1299.06
3721.54,1298.46
3722.99,1298.43
3724.44,1305.27
3725.89,1290.68
3727.34,1275.15
3728.79,1279.65
3730.24,1274.32
3731.69,1313.13
3733.14,1308.35
3734.59,1312.25
3736.04,1295.66
3737.49,1300.15
3738.94,1316.05
3740.39,1338.93
3741.84,1294.47
3743.29,1333
3744.74,1344.77
3746.19,1307.81
3747.64,1323.49
3749.09,1335.91
3750.54,1302.1
3751.99,1308.24
3753.44,1316.53
3754.89,1319.61
3756.35,1332.76
3757.8,1326.29
3759.25,1325.47
3760.7,1326.55
3762.15,1321.94
3763.6,1306.67
3765.05,1330.67
3766.5,1329.86
3767.95,1337.55
3769.4,1332.92
3770.85,1328.44
3772.3,1316.44
3773.75,1318.71
3775.2,1328.56
3776.65,1324.26
3778.1,1344.5
3779.55,1325.49
3781,1346.56
3782.45,1362.7
3783.9,1338.52
3785.35,1318.34
3786.8,1368.78
3788.25,1317.88
3789.7,1343.78
3791.15,1322.42
3792.6,1363.19
3794.05,1336.05
3795.5,1318.66
3796.95,1329.39
3798.4,1315.11
3799.85,1345.46
3801.31,1346.18
3802.76,1319.08
3804.21,1378.32
3805.66,1373.04
3807.11,1374.1
3808.56,1360.97
3810.01,1372.7
3811.46,1382.24
3812.91,1379.27
3814.36,1358.83
3815.81,1359.89
3817.26,1366.15
3818.71,1365.16
3820.16,1379.06
3821.61,1382.42
3823.06,1356.84
3824.51,1348.46
3825.96,1375.12
3827.41,1376.33
3828.86,1373.99
3830.31,1387.53
3831.76,1374.38
3833.21,1382.84
3834.66,1403.51
3836.11,1400.31
3837.56,1391.71
3839.01,1382.28
3840.46,1382.84
3841.91,1370.71
3843.36,1368.36
3844.82,1329.71
3846.27,1377.74
3847.72,1395.55
3849.17,1392.39
3850.62,1416.2
3852.07,1399.3
3853.52,1391.71
3854.97,1393.76
3856.42,1391.99
3857.87,1391.73
3859.32,1405.84
3860.77,1399.46
3862.22,1397.02
3863.67,1413.48
3865.12,1410.6
3866.57,1397.19
3868.02,1397.61
3869.47,1428.32
3870.92,1396.63
3872.37,1389.48
3873.82,1411.6
3875.27,1440.06
3876.72,1455.3
3878.17,1448.72
3879.62,1411.27
3881.07,1419.89
3882.52,1418.82
3883.97,1422.69
3885.42,1438.62
3886.87,1437.43
3888.32,1449.54
3889.78,1428.4
3891.23,1440.95
3892.68,1434.14
3894.13,1430.95
3895.58,1442.58
3897.03,1460.59
3898.48,1463.62
3899.93,1474.6
3901.38,1467.05
3902.83,1437.61
3904.28,1470.07
3905.73,1473.58
3907.18,1475.15
3908.63,1449.01
3910.08,1467.03
3911.53,1461.57
3912.98,1485.44
3914.43,1473.05
3915.88,1475.42
3917.33,1459.44
3918.78,1448.42
3920.23,1477.55
3921.68,1486.85
3923.13,1506.8
3924.58,1480.93
3926.03,1493.58
3927.48,1487.53
3928.93,1539.51
3930.38,1486.17
3931.83,1493.43
3933.28,1499.91
3934.74,1507.31
3936.19,1533.6
3937.64,1516.63
3939.09,1493.26
3940.54,1534.58
3941.99,1517.84
3943.44,1506.91
3944.89,1513.91
3946.34,1529.42
3947.79,1545.81
3949.24,1534.54
3950.69,1539.61
3952.14,1548.72
3953.59,1557.01
3955.04,1562.06
3956.49,1516.69
3957.94,1568.5
3959.39,1533.16
3960.84,1529.27
3962.29,1541.59
3963.74,1533.83
3965.19,1521.33
3966.64,1579.57
3968.09,1543.41
3969.54,1572.59
3970.99,1536.1
3972.44,1566.41
3973.89,1561.1
3975.34,1595.75
3976.79,1587.59
3978.25,1597.92
3979.7,1594.01
3981.15,1577.59
3982.6,1586.9
3984.05,1601.6
3985.5,1608.72
3986.95,1629.88
3988.4,1602.75
3989.85,1609.82
3991.3,1603.42
3992.75,1613.77
3994.2,1633.25
3995.65,1598.94
3997.1,1679.15
3998.55,1610.16
4000,1613.62
