0.6,4.71167
1.45033,4.71167
2.90065,4.71167
4.35098,4.71167
5.80131,4.71167
7.25163,4.71167
8.70196,19.7116
10.1523,8.64676
11.6026,6.81338
13.0529,7.56451
14.5033,8.45834
15.9536,7.66576
17.4039,3.07424
18.8542,0.262923
20.3046,0.207256
21.7549,1.8299
23.2052,3.78392
24.6555,3.55417
26.1059,2.53603
27.5562,0.719588
29.0065,0.167633
30.4569,3.471
31.9072,1.6315
33.3575,1.51894
34.8078,1.32483
36.2582,0.723579
37.7085,1.4138
39.1588,0.193512
40.6091,1.4944
42.0595,4.17087
43.5098,6.5459
44.9601,7.46692
46.4104,7.0611
47.8608,10.9221
49.3111,19.094
50.7614,28.8117
52.2117,71.6732
53.6621,139.302
55.1124,240.995
56.5627,378.362
58.0131,541.839
59.4634,701.997
60.9137,845.58
62.364,946.194
63.8144,991.493
65.2647,1074.56
66.715,1110.2
68.1653,1141.05
69.6157,1175.97
71.066,1209.11
72.5163,1223.66
73.9666,1219.37
75.417,1208.5
76.8673,1209.8
78.3176,1260.63
79.7679,1270.26
81.2183,1291.02
82.6686,1327.29
84.1189,1373.99
85.5693,1404.74
87.0196,1413.38
88.4699,1412.26
89.9202,1382.24
91.3706,1298.21
92.8209,1228.78
94.2712,1165.25
95.7215,1094.87
97.1719,1030.57
98.6222,1012.05
100.073,975.95
101.523,933.955
102.973,895.701
104.423,866.313
105.874,842.673
107.324,823.231
108.774,813.864
110.225,799.461
111.675,771.864
113.125,777.894
114.576,790.004
116.026,783.17
117.476,758.675
118.927,729.355
120.377,737.488
121.827,722.194
123.278,713.625
124.728,713.186
126.178,702.269
127.629,686.951
129.079,671.106
130.529,660.539
131.98,654.22
133.43,640.739
134.88,624.394
136.331,603.267
137.781,593.682
139.231,596.981
140.682,570.462
142.132,577.476
143.582,566.448
145.033,548.018
146.483,536.672
147.933,518.978
149.384,534.277
150.834,529.494
152.284,510.829
153.735,501.14
155.185,522.109
156.635,504.452
158.086,497.719
159.536,507.038
160.986,517.873
162.437,516.241
163.887,498.266
165.337,477.468
166.788,461.147
168.238,453.123
169.688,455.225
171.139,445.125
172.589,439.295
174.039,437.651
175.489,423.625
176.94,451.139
178.39,457.986
179.84,456.273
181.291,452.209
182.741,442.861
184.191,431.923
185.642,421.597
187.092,410.054
188.542,403.229
189.993,422.428
191.443,406.629
192.893,406.5
194.344,415.561
195.794,419.923
197.244,396.051
198.695,401.385
200.145,402.84
201.595,397.246
203.046,387.622
204.496,385.747
205.946,395.317
207.397,400.845
208.847,406.829
210.297,413.717
211.748,404.574
213.198,405.725
214.648,409.239
216.099,408.323
217.549,401.905
218.999,404.719
220.45,413.325
221.9,408.166
223.35,396.497
224.801,389.845
226.251,403.226
227.701,399.225
229.152,407.508
230.602,401.702
232.052,375.876
233.503,396.575
234.953,397.784
236.403,398.738
237.854,399.685
239.304,399.602
240.754,399.131
242.204,395.376
243.655,392.019
245.105,383.513
246.555,371.644
248.006,375.408
249.456,376.955
250.906,383.304
252.357,390.08
253.807,388.801
255.257,364.516
256.708,370.621
258.158,376.237
259.608,379.294
261.059,381.852
262.509,389.875
263.959,356.821
265.41,352.4
266.86,352.678
268.31,354.778
269.761,378.742
271.211,366.932
272.661,362.185
274.112,354.628
275.562,349.785
277.012,362.672
278.463,361.727
279.913,364.554
281.363,361.229
282.814,357.093
284.264,362.083
285.714,349.545
287.165,352.771
288.615,357.057
290.065,350.892
291.516,332.041
292.966,343.878
294.416,356.337
295.867,348.516
297.317,337.338
298.767,338.172
300.218,333.202
301.668,336.462
303.118,337.927
304.569,324.766
306.019,304.295
307.469,323.263
308.919,314.843
310.37,316.874
311.82,315.887
313.27,309.182
314.721,308.705
316.171,307.993
317.621,310.968
319.072,303.456
320.522,296.245
321.972,310.979
323.423,309.793
324.873,299.498
326.323,298.892
327.774,305.5
329.224,309.089
330.674,298.153
332.125,308.22
333.575,308.774
335.025,300.544
336.476,290.971
337.926,290.257
339.376,289.088
340.827,293.062
342.277,295.628
343.727,296.392
345.178,301.569
346.628,285.614
348.078,292.872
349.529,308.08
350.979,315.679
352.429,304.073
353.88,286.438
355.33,296.027
356.78,301.992
358.231,302.652
359.681,301.064
361.131,294.148
362.582,283.186
364.032,278.257
365.482,281.391
366.933,286.548
368.383,280.195
369.833,277.805
371.284,273.899
372.734,273.788
374.184,274.399
375.635,272.379
377.085,289.102
378.535,296.996
379.986,284.051
381.436,273.607
382.886,280.591
384.336,286.807
385.787,279.805
387.237,274.522
388.687,277.145
390.138,284.672
391.588,287.312
393.038,283.004
394.489,272.08
395.939,277.596
397.389,285.376
398.84,278.097
400.29,266.6
401.74,283.592
403.191,274.563
404.641,273.334
406.091,283.185
407.542,268.51
408.992,275.941
410.442,284.547
411.893,286.326
413.343,285.686
414.793,286.834
416.244,273.638
417.694,283.912
419.144,284.726
420.595,275.702
422.045,267.882
423.495,278.691
424.946,276.05
426.396,272.429
427.846,266.023
429.297,270.14
430.747,288.419
432.197,268.447
433.648,278.664
435.098,275.144
436.548,267.744
437.999,265.44
439.449,268.598
440.899,258.493
442.35,272.163
443.8,271.569
445.25,264.948
446.701,269.673
448.151,283.172
449.601,281.24
451.051,278.588
452.502,276.688
453.952,270.756
455.402,256.702
456.853,273.349
458.303,268.653
459.753,269.008
461.204,269.749
462.654,266.531
464.104,268.21
465.555,264.591
467.005,269.698
468.455,274.977
469.906,270.811
471.356,258.029
472.806,279.781
474.257,282.539
475.707,276.718
477.157,275.557
478.608,281.742
480.058,284.998
481.508,259.625
482.959,271.782
484.409,273.692
485.859,273.104
487.31,277.419
488.76,265.601
490.21,280.356
491.661,287.869
493.111,278.502
494.561,262.93
496.012,258.846
497.462,272.4
498.912,263.404
500.363,268.373
501.813,270.229
503.263,265.795
504.714,266.5
506.164,275.949
507.614,272.934
509.065,270.131
510.515,270.232
511.965,269.783
513.416,261.739
514.866,267.323
516.316,273.515
517.766,274.316
519.217,271.274
520.667,267.856
522.117,266.191
523.568,271.781
525.018,266.514
526.468,262.368
527.919,261.653
529.369,265.549
530.819,285.494
532.27,266.11
533.72,271.358
535.17,270.831
536.621,266.543
538.071,275.022
539.521,277.454
540.972,270.308
542.422,274.275
543.872,270.881
545.323,266.014
546.773,277.809
548.223,271.959
549.674,271
551.124,275.518
552.574,278.167
554.025,276.142
555.475,272.455
556.925,270.748
558.376,269.257
559.826,265.941
561.276,265.363
562.727,264.987
564.177,257.277
565.627,267.044
567.078,262.416
568.528,255.16
569.978,254.458
571.429,259.01
572.879,258.272
574.329,266.581
575.78,258.446
577.23,263.561
578.68,269.119
580.131,269.594
581.581,276.264
583.031,261.586
584.482,268.882
585.932,267.552
587.382,265.785
588.832,266.183
590.283,257.359
591.733,257.359
593.183,262.946
594.634,272.309
596.084,266.586
597.534,248.827
598.985,246.125
600.435,248.576
601.885,262.788
603.336,266.444
604.786,268.729
606.236,271.891
607.687,267.7
609.137,265.492
610.587,268.615
612.038,273.862
613.488,274.081
614.938,271.814
616.389,274.536
617.839,268.643
619.289,275.737
620.74,265.298
622.19,263.179
623.64,266.805
625.091,258.018
626.541,256.543
627.991,266.129
629.442,277.149
630.892,278.784
632.342,271.458
633.793,263.002
635.243,261.772
636.693,277.128
638.144,275.925
639.594,269.459
641.044,267.534
642.495,273.448
643.945,280.177
645.395,259.734
646.846,275.328
648.296,282.543
649.746,281.783
651.197,280.493
652.647,277.392
654.097,278.378
655.547,283.309
656.998,283.564
658.448,278.947
659.898,274.798
661.349,276.307
662.799,273.099
664.249,280.826
665.7,283.077
667.15,278.295
668.6,279.434
670.051,292.099
671.501,284.938
672.951,282.715
674.402,285.524
675.852,288.239
677.302,282.804
678.753,274.187
680.203,283.416
681.653,286.882
683.104,290.128
684.554,283.193
686.004,282.905
687.455,287.041
688.905,280.09
690.355,285.288
691.806,294.274
693.256,285.72
694.706,288.648
696.157,293.69
697.607,288.474
699.057,298.684
700.508,287.767
701.958,283.383
703.408,283.624
704.859,284.77
706.309,281.453
707.759,273.593
709.21,294.43
710.66,293.253
712.11,289.774
713.561,286.192
715.011,286.184
716.461,290.52
717.912,290.346
719.362,283.385
720.812,298.456
722.263,300.941
723.713,301.218
725.163,300.435
726.613,284.491
728.064,287.97
729.514,282.31
730.964,285.579
732.415,297.171
733.865,297.908
735.315,284.64
736.766,296.883
738.216,294.89
739.666,289.872
741.117,292.641
742.567,298.607
744.017,301.177
745.468,296.374
746.918,283.156
748.368,284.355
749.819,290.852
751.269,309.981
752.719,312.727
754.17,296.624
755.62,306.277
757.07,317.512
758.521,311.507
759.971,300.483
761.421,290.094
762.872,293.418
764.322,307.597
765.772,293.514
767.223,288.266
768.673,304.536
770.123,303.001
771.574,291.466
773.024,290.346
774.474,305.315
775.925,297.569
777.375,310.83
778.825,300.687
780.276,301.241
781.726,303.007
783.176,302.283
784.627,310.22
786.077,301.954
787.527,314.493
788.978,310.267
790.428,306.174
791.878,304.921
793.328,305.141
794.779,308.878
796.229,310.383
797.68,299.89
799.13,300.349
800.58,307.212
802.03,314.49
803.481,313.21
804.931,295.437
806.381,301.21
807.832,311.143
809.282,315.401
810.732,313.859
812.183,310.629
813.633,306.471
815.083,296.518
816.534,305.816
817.984,297.975
819.434,311.732
820.885,316.705
822.335,313.875
823.785,320.503
825.236,333.388
826.686,321.814
828.136,327.826
829.587,341.226
831.037,335.139
832.487,323.761
833.938,322.985
835.388,311.39
836.838,337.838
838.289,327.911
839.739,319.842
841.189,316.635
842.64,319.756
844.09,324.257
845.54,318.182
846.991,331.798
848.441,322.477
849.891,337.224
851.342,333.533
852.792,316.54
854.242,313.268
855.693,327.853
857.143,310.181
858.593,332.119
860.044,341.964
861.494,346.916
862.944,340.508
864.394,329.415
865.845,333.39
867.295,323.281
868.745,333.264
870.196,328.486
871.646,328.241
873.096,325.957
874.547,318.988
875.997,319.024
877.447,338.421
878.898,341.71
880.348,322.532
881.798,320.561
883.249,318.448
884.699,319.74
886.149,333.329
887.6,329.326
889.05,326.029
890.5,329.196
891.951,335.286
893.401,336.1
894.851,344.227
896.302,355.812
897.752,339.729
899.202,331.865
900.653,323.747
902.103,344.648
903.553,343.235
905.004,334.199
906.454,335.02
907.904,338.988
909.355,339.007
910.805,331.888
912.255,350.636
913.706,360.328
915.156,353.323
916.606,351.502
918.057,362.816
919.507,353.611
920.957,339.611
922.408,360.245
923.858,355.416
925.308,342.724
926.759,344.143
928.209,355.684
929.659,355.04
931.109,344.491
932.56,352.393
934.01,342.08
935.46,350.192
936.911,354.184
938.361,359.071
939.811,367.801
941.262,355.239
942.712,356.514
944.162,339.894
945.613,360.207
947.063,351.414
948.513,337.177
949.964,338.659
951.414,352.382
952.864,380.485
954.315,371.043
955.765,352.837
957.215,361.918
958.666,361.705
960.116,355.396
961.566,350.223
963.017,342.421
964.467,353.07
965.917,354.35
967.368,363.352
968.818,357.415
970.268,353.036
971.719,357.663
973.169,362.089
974.619,353.884
976.07,344.371
977.52,364.84
978.97,365.494
980.421,364.947
981.871,367.392
983.321,358.673
984.772,343.04
986.222,354.164
987.672,362.627
989.123,370.828
990.573,366.682
992.023,362.785
993.474,362.679
994.924,363.354
996.374,359.234
997.825,351.094
999.275,368.298
1000.73,377.916
1002.18,382.457
1003.63,383.724
1005.08,373.564
1006.53,370.033
1007.98,384.14
1009.43,388.875
1010.88,396.074
1012.33,395.91
1013.78,389.338
1015.23,383.436
1016.68,390.346
1018.13,398.16
1019.58,397.908
1021.03,404.047
1022.48,397.642
1023.93,401.505
1025.38,411.152
1026.83,411.826
1028.28,409.489
1029.73,404.019
1031.18,404.695
1032.63,425.422
1034.08,424.492
1035.53,409.796
1036.98,435.77
1038.43,434.667
1039.88,440.526
1041.33,448.786
1042.78,454.438
1044.23,462.766
1045.69,434.64
1047.14,457.103
1048.59,448.58
1050.04,447.574
1051.49,454.22
1052.94,459.343
1054.39,470.107
1055.84,483.013
1057.29,460.701
1058.74,465.612
1060.19,471.539
1061.64,474.209
1063.09,482.891
1064.54,496.209
1065.99,502.964
1067.44,505.244
1068.89,518.641
1070.34,523.761
1071.79,514.958
1073.24,514.836
1074.69,522.427
1076.14,513.083
1077.59,514.863
1079.04,538.639
1080.49,553.758
1081.94,538.148
1083.39,532.446
1084.84,546.541
1086.29,527.203
1087.74,519.257
1089.2,514.269
1090.65,516.392
1092.1,526.458
1093.55,527.825
1095,527.403
1096.45,528.442
1097.9,521.969
1099.35,519.546
1100.8,515.624
1102.25,523.572
1103.7,530.465
1105.15,523.303
1106.6,522.381
1108.05,515.262
1109.5,513.7
1110.95,527.132
1112.4,521.927
1113.85,507.714
1115.3,505.431
1116.75,513
1118.2,510.05
1119.65,492.144
1121.1,488.078
1122.55,495.369
1124,490.713
1125.45,494.311
1126.9,490.42
1128.35,491.283
1129.8,495.916
1131.25,489.01
1132.7,483.849
1134.16,487.985
1135.61,476.772
1137.06,477
1138.51,478.237
1139.96,474.026
1141.41,485.174
1142.86,490.655
1144.31,470.965
1145.76,487.826
1147.21,488.63
1148.66,491.506
1150.11,475.603
1151.56,472.486
1153.01,462.982
1154.46,466.713
1155.91,481.045
1157.36,482.744
1158.81,479.162
1160.26,467.725
1161.71,466.415
1163.16,469.158
1164.61,466.513
1166.06,469.506
1167.51,472.605
1168.96,469.729
1170.41,470.878
1171.86,483.602
1173.31,469.002
1174.76,491.529
1176.21,472.33
1177.66,479.082
1179.12,476.406
1180.57,468.728
1182.02,461.036
1183.47,463.613
1184.92,479.414
1186.37,473.356
1187.82,480.972
1189.27,469.69
1190.72,486.881
1192.17,496.652
1193.62,501.083
1195.07,499.205
1196.52,496.656
1197.97,495.123
1199.42,487.251
1200.87,499.996
1202.32,499.206
1203.77,503.41
1205.22,492.543
1206.67,493.319
1208.12,487.22
1209.57,479.413
1211.02,484.704
1212.47,498.196
1213.92,504.44
1215.37,502.394
1216.82,502.394
1218.27,500.464
1219.72,497.298
1221.17,496.776
1222.63,500.595
1224.08,497.655
1225.53,502.235
1226.98,529.014
1228.43,517.12
1229.88,494.411
1231.33,513.943
1232.78,504.975
1234.23,528.373
1235.68,525.513
1237.13,524.079
1238.58,517.976
1240.03,501.95
1241.48,512.037
1242.93,524.591
1244.38,528.365
1245.83,515.412
1247.28,520.566
1248.73,529.381
1250.18,522.047
1251.63,539.524
1253.08,564.049
1254.53,554.956
1255.98,531.73
1257.43,543.286
1258.88,566.631
1260.33,555.245
1261.78,554.091
1263.23,560.497
1264.68,563.779
1266.13,565.735
1267.59,562.544
1269.04,563.562
1270.49,578.97
1271.94,592.122
1273.39,615.237
1274.84,598.771
1276.29,609.483
1277.74,634.513
1279.19,628.251
1280.64,623.017
1282.09,628.698
1283.54,630.567
1284.99,638.296
1286.44,671.633
1287.89,680.43
1289.34,687.364
1290.79,696.931
1292.24,710.83
1293.69,719.219
1295.14,741.545
1296.59,773.706
1298.04,787.885
1299.49,792.696
1300.94,813.228
1302.39,834.022
1303.84,877.494
1305.29,867.381
1306.74,870.542
1308.19,929.797
1309.64,975.255
1311.09,992.542
1312.55,1020.68
1314,1050.26
1315.45,1074.94
1316.9,1115.94
1318.35,1154.42
1319.8,1224.93
1321.25,1255.86
1322.7,1292.26
1324.15,1352.2
1325.6,1382.08
1327.05,1414.7
1328.5,1447.75
1329.95,1464.88
1331.4,1465.88
1332.85,1477.25
1334.3,1519.74
1335.75,1508.64
1337.2,1489.4
1338.65,1467.26
1340.1,1465.8
1341.55,1469.65
1343,1415.32
1344.45,1381.24
1345.9,1368.07
1347.35,1325.77
1348.8,1278.45
1350.25,1273.89
1351.7,1245.43
1353.15,1184.77
1354.6,1139
1356.06,1100.28
1357.51,1080.9
1358.96,1037.1
1360.41,995.726
1361.86,970.247
1363.31,927.923
1364.76,880.92
1366.21,881.652
1367.66,873.864
1369.11,837.489
1370.56,846.35
1372.01,813.538
1373.46,810.053
1374.91,796.132
1376.36,782.216
1377.81,773.023
1379.26,766.315
1380.71,751.246
1382.16,731.253
1383.61,728.293
1385.06,729.764
1386.51,740.483
1387.96,717.375
1389.41,740.72
1390.86,730.95
1392.31,712.713
1393.76,700.581
1395.21,701.416
1396.66,697.332
1398.11,695.136
1399.56,705.513
1401.02,706.076
1402.47,719.394
1403.92,726.279
1405.37,693.394
1406.82,704.738
1408.27,694.773
1409.72,698.762
1411.17,693.056
1412.62,693.723
1414.07,704.611
1415.52,706.05
1416.97,710.671
1418.42,732.669
1419.87,715.25
1421.32,733.272
1422.77,739.203
1424.22,721.373
1425.67,736.392
1427.12,732.568
1428.57,733.614
1430.02,727.133
1431.47,728.058
1432.92,736.648
1434.37,753.125
1435.82,760.987
1437.27,731.933
1438.72,753.242
1440.17,761.46
1441.62,746.032
1443.07,803.56
1444.53,792.052
1445.98,791.722
1447.43,796.843
1448.88,794.957
1450.33,794.446
1451.78,813.195
1453.23,830.325
1454.68,831.596
1456.13,850.522
1457.58,843.428
1459.03,865.978
1460.48,861.366
1461.93,873.292
1463.38,870.579
1464.83,876.477
1466.28,912.303
1467.73,937.014
1469.18,936.757
1470.63,931.829
1472.08,945.092
1473.53,967.023
1474.98,971.362
1476.43,976.291
1477.88,991.048
1479.33,1035.66
1480.78,1022.87
1482.23,1026.19
1483.68,1085.59
1485.13,1091.73
1486.58,1112.16
1488.03,1137.92
1489.49,1134.58
1490.94,1161.83
1492.39,1208.54
1493.84,1224.07
1495.29,1276.07
1496.74,1259.05
1498.19,1266.74
1499.64,1349.2
1501.09,1372.09
1502.54,1406.41
1503.99,1444.42
1505.44,1480.1
1506.89,1523.65
1508.34,1570.7
1509.79,1640.13
1511.24,1697.75
1512.69,1755.13
1514.14,1860.48
1515.59,1952.89
1517.04,2014.13
1518.49,2095.79
1519.94,2173.44
1521.39,2339.74
1522.84,2456.93
1524.29,2592.65
1525.74,2745.16
1527.19,2915.86
1528.64,3108.64
1530.09,3319.94
1531.54,3563.94
1532.99,3845.86
1534.45,4124.03
1535.9,4431.34
1537.35,4881.33
1538.8,5326.09
1540.25,5822.64
1541.7,6283.06
1543.15,6793.33
1544.6,7403.6
1546.05,8048.94
1547.5,8784.37
1548.95,9472.5
1550.4,10126.1
1551.85,10842.6
1553.3,11569.3
1554.75,12293.5
1556.2,13045.6
1557.65,13736.1
1559.1,13758.3
1560.55,13774.8
1562,13806.4
1563.45,13815.8
1564.9,13822.9
1566.35,13814.7
1567.8,13811.1
1569.25,13821.7
1570.7,13819.4
1572.15,13374.6
1573.6,12682.5
1575.05,11967.2
1576.5,11246
1577.96,10458.4
1579.41,9651.87
1580.86,8916.99
1582.31,8236.71
1583.76,7527.66
1585.21,6914.68
1586.66,6322.45
1588.11,5816.23
1589.56,5375.35
1591.01,4942.99
1592.46,4583.35
1593.91,4289.12
1595.36,3978.94
1596.81,3718.83
1598.26,3452.96
1599.71,3254.02
1601.16,3119.74
1602.61,2963.16
1604.06,2819.93
1605.51,2698.52
1606.96,2570.31
1608.41,2438.85
1609.86,2336.19
1611.31,2213.55
1612.76,2168.42
1614.21,2025.07
1615.66,1971.29
1617.11,1887.98
1618.56,1837.86
1620.01,1758.11
1621.46,1693.38
1622.92,1628.37
1624.37,1577.11
1625.82,1540.27
1627.27,1495.54
1628.72,1461.05
1630.17,1415.24
1631.62,1388.33
1633.07,1354.29
1634.52,1329.22
1635.97,1285.95
1637.42,1283.52
1638.87,1246.5
1640.32,1213.95
1641.77,1208.29
1643.22,1192.82
1644.67,1174.57
1646.12,1155.53
1647.57,1151.13
1649.02,1134.06
1650.47,1108.78
1651.92,1103.7
1653.37,1101.26
1654.82,1075.76
1656.27,1060.3
1657.72,1055.99
1659.17,1034.48
1660.62,1015.47
1662.07,1019.77
1663.52,1041.33
1664.97,1030.79
1666.42,1016.97
1667.88,1007.98
1669.33,999.665
1670.78,986.13
1672.23,965.157
1673.68,970.458
1675.13,967.836
1676.58,965.886
1678.03,952.431
1679.48,940.581
1680.93,948.485
1682.38,946.556
1683.83,938.903
1685.28,929.006
1686.73,935.61
1688.18,933.522
1689.63,930.472
1691.08,922.055
1692.53,906.235
1693.98,904.799
1695.43,921.271
1696.88,931.434
1698.33,924.28
1699.78,926.639
1701.23,912.775
1702.68,916.012
1704.13,904.612
1705.58,914.111
1707.03,913.858
1708.48,892.878
1709.93,913.64
1711.39,913.27
1712.84,912.425
1714.29,908.46
1715.74,921.916
1717.19,932.445
1718.64,913.355
1720.09,914.915
1721.54,918.281
1722.99,895.274
1724.44,899.568
1725.89,924.881
1727.34,933.334
1728.79,933.449
1730.24,910.786
1731.69,895.437
1733.14,933.532
1734.59,903.527
1736.04,896.232
1737.49,918.863
1738.94,899.978
1740.39,897.186
1741.84,914.536
1743.29,898.833
1744.74,892.854
1746.19,877.565
1747.64,869.287
1749.09,882.241
1750.54,869.379
1751.99,867.451
1753.44,880.893
1754.89,869.733
1756.35,867.855
1757.8,888.365
1759.25,883.276
1760.7,872.401
1762.15,876.276
1763.6,855.69
1765.05,857.117
1766.5,870.801
1767.95,865.089
1769.4,839.998
1770.85,837.121
1772.3,830.659
1773.75,844.73
1775.2,838.972
1776.65,837.632
1778.1,839.19
1779.55,844.057
1781,838.726
1782.45,841.817
1783.9,838.458
1785.35,849.453
1786.8,852.47
1788.25,848.867
1789.7,840.675
1791.15,837.926
1792.6,849.779
1794.05,847.188
1795.5,842.79
1796.95,839.455
1798.4,843.935
1799.85,852.987
1801.31,828.474
1802.76,828.439
1804.21,811.23
1805.66,835.561
1807.11,794.422
1808.56,811.716
1810.01,820.021
1811.46,821.067
1812.91,800.584
1814.36,826.526
1815.81,843.645
1817.26,850.789
1818.71,849.954
1820.16,839.436
1821.61,831.41
1823.06,821.468
1824.51,828.934
1825.96,831.226
1827.41,822.76
1828.86,836.696
1830.31,843.521
1831.76,836.65
1833.21,844.442
1834.66,833.711
1836.11,833.429
1837.56,823.136
1839.01,848.931
1840.46,868.114
1841.91,831.671
1843.36,842.344
1844.82,856.471
1846.27,843.732
1847.72,855.29
1849.17,862.946
1850.62,855.206
1852.07,857.664
1853.52,876.774
1854.97,877.423
1856.42,861.365
1857.87,854.377
1859.32,879.626
1860.77,890.735
1862.22,880.031
1863.67,868.279
1865.12,873.243
1866.57,876.967
1868.02,867.218
1869.47,852.311
1870.92,844.889
1872.37,856.992
1873.82,868.321
1875.27,859.398
1876.72,848.184
1878.17,857.184
1879.62,848.864
1881.07,841.83
1882.52,831.801
1883.97,834.02
1885.42,834.866
1886.87,842.348
1888.32,839.437
1889.78,828.513
1891.23,835.921
1892.68,832.166
1894.13,838.454
1895.58,832.197
1897.03,840.752
1898.48,839.541
1899.93,819.354
1901.38,821.957
1902.83,815.676
1904.28,810.134
1905.73,815.189
1907.18,827.859
1908.63,827.776
1910.08,818.815
1911.53,805.503
1912.98,793.725
1914.43,802.338
1915.88,808.887
1917.33,794.69
1918.78,795.025
1920.23,810.198
1921.68,811.599
1923.13,810.212
1924.58,807.642
1926.03,800.011
1927.48,802.538
1928.93,811.894
1930.38,807.677
1931.83,804.195
1933.29,781.713
1934.74,806.316
1936.19,812.166
1937.64,780.696
1939.09,794.151
1940.54,785.996
1941.99,804.204
1943.44,806.171
1944.89,807.041
1946.34,808.761
1947.79,790.365
1949.24,807.422
1950.69,794.164
1952.14,815.068
1953.59,819.642
1955.04,804.391
1956.49,814.935
1957.94,810.205
1959.39,799.446
1960.84,809.007
1962.29,806.009
1963.74,813.403
1965.19,818.867
1966.64,818.028
1968.09,832.747
1969.54,840.855
1970.99,842.718
1972.44,846.911
1973.89,830.534
1975.34,830.761
1976.79,839.479
1978.25,837.954
1979.7,827.487
1981.15,828.869
1982.6,835.311
1984.05,826.566
1985.5,833.88
1986.95,827.949
1988.4,817.262
1989.85,839.236
1991.3,832.445
1992.75,832.976
1994.2,836.264
1995.65,841.664
1997.1,844.35
1998.55,837.629
2000,830.015
2001.45,844.724
2002.9,834.908
2004.35,828.232
2005.8,833.159
2007.25,840.108
2008.7,844.776
2010.15,845.955
2011.6,850.546
2013.05,823.542
2014.5,817.712
2015.95,829.271
2017.4,818.815
2018.85,799.541
2020.3,828.711
2021.75,831.845
2023.21,804.463
2024.66,825.635
2026.11,815.864
2027.56,827.172
2029.01,831.289
2030.46,810.129
2031.91,812.166
2033.36,799.32
2034.81,808.599
2036.26,823.36
2037.71,814.261
2039.16,815.546
2040.61,825.148
2042.06,802.08
2043.51,786.639
2044.96,797.934
2046.41,774.892
2047.86,787.563
2049.31,798.14
2050.76,787.817
2052.21,786.184
2053.66,805.247
2055.11,809.792
2056.56,792.263
2058.01,785.279
2059.46,801.716
2060.91,803.605
2062.36,793.051
2063.81,784.588
2065.26,775.497
2066.72,778.528
2068.17,790.389
2069.62,768.291
2071.07,771.771
2072.52,794.529
2073.97,792.751
2075.42,785.894
2076.87,787.621
2078.32,784.141
2079.77,769.736
2081.22,780.764
2082.67,794.494
2084.12,790.854
2085.57,772.939
2087.02,774.129
2088.47,759.135
2089.92,758.144
2091.37,765.349
2092.82,778.591
2094.27,798.192
2095.72,787.15
2097.17,780.439
2098.62,783.19
2100.07,772.29
2101.52,762.878
2102.97,770.413
2104.42,762.804
2105.87,775.77
2107.32,781.088
2108.77,784.542
2110.22,786.127
2111.68,792.164
2113.13,782.401
2114.58,777.565
2116.03,790.822
2117.48,791.317
2118.93,778.736
2120.38,793.238
2121.83,792.29
2123.28,769.259
2124.73,783.358
2126.18,793.115
2127.63,787.475
2129.08,790.369
2130.53,796.218
2131.98,801.639
2133.43,801.096
2134.88,801.031
2136.33,796.11
2137.78,802.801
2139.23,802.525
2140.68,801.352
2142.13,793.519
2143.58,792.234
2145.03,818.537
2146.48,820.025
2147.93,810.307
2149.38,799.497
2150.83,801.2
2152.28,813.391
2153.73,813.98
2155.18,804.035
2156.64,808.778
2158.09,809.76
2159.54,806.95
2160.99,816.538
2162.44,817.889
2163.89,818.725
2165.34,811.369
2166.79,816.581
2168.24,842.137
2169.69,835.264
2171.14,824.234
2172.59,825.283
2174.04,826.965
2175.49,833.368
2176.94,835.548
2178.39,829.098
2179.84,830.337
2181.29,831.319
2182.74,836.472
2184.19,834.729
2185.64,828.522
2187.09,834.235
2188.54,841.449
2189.99,841.694
2191.44,836.541
2192.89,846.45
2194.34,846.079
2195.79,845.909
2197.24,853.515
2198.69,850.811
2200.15,838.419
2201.6,840.025
2203.05,840.521
2204.5,858.887
2205.95,854.32
2207.4,858.175
2208.85,850.609
2210.3,857.027
2211.75,865.755
2213.2,868.901
2214.65,861.267
2216.1,861.356
2217.55,867.984
2219,873.596
2220.45,850.383
2221.9,870.863
2223.35,881.948
2224.8,880.281
2226.25,865.748
2227.7,850.866
2229.15,877.064
2230.6,890.659
2232.05,890.077
2233.5,868.964
2234.95,875.397
2236.4,875.549
2237.85,879.417
2239.3,858.645
2240.75,864.507
2242.2,884.461
2243.65,896.885
2245.11,874.12
2246.56,894.914
2248.01,886.953
2249.46,884.332
2250.91,902.127
2252.36,893.003
2253.81,886.784
2255.26,896.788
2256.71,883.156
2258.16,892.401
2259.61,904.195
2261.06,898.204
2262.51,876.324
2263.96,901.619
2265.41,910.284
2266.86,897.434
2268.31,880.572
2269.76,894.531
2271.21,913.659
2272.66,903.699
2274.11,902.303
2275.56,889.067
2277.01,891.263
2278.46,917.529
2279.91,917.925
2281.36,935.544
2282.81,940.444
2284.26,909.75
2285.71,909.31
2287.16,923.371
2288.61,937.985
2290.07,924.502
2291.52,908.941
2292.97,930.165
2294.42,935.585
2295.87,939.682
2297.32,941.942
2298.77,918.702
2300.22,942.027
2301.67,974.862
2303.12,973.659
2304.57,959.698
2306.02,942.585
2307.47,948.659
2308.92,945.753
2310.37,958.848
2311.82,954.971
2313.27,968.451
2314.72,949
2316.17,978.283
2317.62,958.618
2319.07,969.236
2320.52,986.137
2321.97,972.534
2323.42,975.702
2324.87,1005.09
2326.32,984.187
2327.77,987.85
2329.22,980.603
2330.67,1008.34
2332.12,1012.43
2333.57,1015.82
2335.03,1018.4
2336.48,992.939
2337.93,991.476
2339.38,1012.1
2340.83,1032.79
2342.28,1025.07
2343.73,1035
2345.18,1025.05
2346.63,1039.3
2348.08,1055.11
2349.53,1056.53
2350.98,1053.89
2352.43,1070.35
2353.88,1064.46
2355.33,1068.61
2356.78,1071.6
2358.23,1092.27
2359.68,1081.17
2361.13,1095.27
2362.58,1125.68
2364.03,1132.81
2365.48,1110.55
2366.93,1116.39
2368.38,1143.41
2369.83,1144.85
2371.28,1138.61
2372.73,1146.27
2374.18,1181.74
2375.63,1194.62
2377.08,1201.88
2378.54,1207.99
2379.99,1208.28
2381.44,1218.76
2382.89,1254.66
2384.34,1266.04
2385.79,1256.65
2387.24,1269.19
2388.69,1296.81
2390.14,1317.45
2391.59,1341.45
2393.04,1340.38
2394.49,1346.9
2395.94,1370.28
2397.39,1359.57
2398.84,1364.43
2400.29,1427.42
2401.74,1453.71
2403.19,1460.03
2404.64,1466.73
2406.09,1470.52
2407.54,1511.9
2408.99,1496.97
2410.44,1509.41
2411.89,1504.32
2413.34,1543.01
2414.79,1561.29
2416.24,1533.87
2417.69,1571.08
2419.14,1562.86
2420.59,1577.22
2422.04,1586.92
2423.5,1579.21
2424.95,1594.95
2426.4,1607.39
2427.85,1605.49
2429.3,1583.98
2430.75,1580.39
2432.2,1564.52
2433.65,1573.71
2435.1,1579.81
2436.55,1593.12
2438,1553.03
2439.45,1562.86
2440.9,1567.59
2442.35,1562.25
2443.8,1534.9
2445.25,1527.43
2446.7,1550.94
2448.15,1530.97
2449.6,1522.5
2451.05,1531.34
2452.5,1508.84
2453.95,1519.08
2455.4,1507.65
2456.85,1494.89
2458.3,1470.69
2459.75,1435.67
2461.2,1446.75
2462.65,1447.47
2464.1,1454.69
2465.55,1466.25
2467.01,1478.76
2468.46,1441.05
2469.91,1476.17
2471.36,1472.04
2472.81,1449.97
2474.26,1438.51
2475.71,1430.98
2477.16,1465.86
2478.61,1454.43
2480.06,1444.81
2481.51,1452.25
2482.96,1427.13
2484.41,1446.21
2485.86,1438.06
2487.31,1444.81
2488.76,1443.85
2490.21,1448.35
2491.66,1436.95
2493.11,1447.13
2494.56,1478.51
2496.01,1460.79
2497.46,1466.46
2498.91,1463.83
2500.36,1491.43
2501.81,1482.29
2503.26,1476.72
2504.71,1502.37
2506.16,1514.58
2507.61,1497.09
2509.06,1512.04
2510.51,1512.78
2511.97,1504.36
2513.42,1485.28
2514.87,1532.02
2516.32,1530.9
2517.77,1521.1
2519.22,1542.46
2520.67,1547.2
2522.12,1544.59
2523.57,1571.25
2525.02,1615.82
2526.47,1628.41
2527.92,1631.86
2529.37,1634.72
2530.82,1669.49
2532.27,1682.54
2533.72,1679.76
2535.17,1694.24
2536.62,1699.47
2538.07,1736.12
2539.52,1720.75
2540.97,1756.86
2542.42,1777.05
2543.87,1780
2545.32,1819.28
2546.77,1811.72
2548.22,1863.69
2549.67,1908.74
2551.12,1927.84
2552.57,1940.92
2554.02,1943.06
2555.48,1953.13
2556.93,1992.2
2558.38,2039.21
2559.83,2063.78
2561.28,2088.59
2562.73,2119
2564.18,2195.23
2565.63,2204.29
2567.08,2261.89
2568.53,2283.44
2569.98,2386.85
2571.43,2428.41
2572.88,2462.02
2574.33,2502.8
2575.78,2562.12
2577.23,2609.2
2578.68,2663.34
2580.13,2729.84
2581.58,2764.21
2583.03,2800.32
2584.48,2896.38
2585.93,2970.16
2587.38,3033.47
2588.83,3162.38
2590.28,3205.68
2591.73,3268.88
2593.18,3396.14
2594.63,3518.26
2596.08,3599.41
2597.53,3713.62
2598.98,3866.2
2600.44,3974.36
2601.89,4084.12
2603.34,4227.1
2604.79,4375.75
2606.24,4478.35
2607.69,4650.55
2609.14,4801.63
2610.59,4985.13
2612.04,5121.42
2613.49,5353.46
2614.94,5470.31
2616.39,5624.23
2617.84,5899.61
2619.29,6062.79
2620.74,6274.72
2622.19,6536.98
2623.64,6752.73
2625.09,6925.09
2626.54,7136.08
2627.99,7350.46
2629.44,7603.16
2630.89,7768.18
2632.34,7993.45
2633.79,8248.03
2635.24,8477.46
2636.69,8722.55
2638.14,8893.73
2639.59,9060.28
2641.04,9290.03
2642.49,9500.88
2643.94,9642.89
2645.4,9789.54
2646.85,9894.59
2648.3,10025.9
2649.75,10104.4
2651.2,10166.5
2652.65,10203.5
2654.1,10135.9
2655.55,10157.4
2657,10205.3
2658.45,10123.6
2659.9,10100
2661.35,10060.4
2662.8,9964.3
2664.25,9786.07
2665.7,9634.7
2667.15,9519.05
2668.6,9352.57
2670.05,9080.8
2671.5,8834.66
2672.95,8739.56
2674.4,8427.86
2675.85,8287.86
2677.3,8019.12
2678.75,7775.91
2680.2,7551.65
2681.65,7262.26
2683.1,7066.88
2684.55,6860.42
2686,6667.66
2687.45,6425.42
2688.91,6142.73
2690.36,5932.43
2691.81,5677.98
2693.26,5464.05
2694.71,5283.13
2696.16,5100.7
2697.61,4832.7
2699.06,4740.5
2700.51,4609.73
2701.96,4443.12
2703.41,4268.26
2704.86,4099.71
2706.31,3947.52
2707.76,3814.65
2709.21,3669.22
2710.66,3514.8
2712.11,3399.11
2713.56,3303.87
2715.01,3201.35
2716.46,3186.84
2717.91,3032.75
2719.36,2962.22
2720.81,2860.85
2722.26,2740.14
2723.71,2707.01
2725.16,2654.54
2726.61,2560.61
2728.06,2505.28
2729.51,2483.68
2730.96,2383.98
2732.41,2362.85
2733.87,2303.69
2735.32,2218.75
2736.77,2193.62
2738.22,2144.22
2739.67,2125.49
2741.12,2076.87
2742.57,2045.25
2744.02,2033.25
2745.47,1938.08
2746.92,1944.03
2748.37,1903.2
2749.82,1894.06
2751.27,1852.32
2752.72,1813.56
2754.17,1824.75
2755.62,1767.17
2757.07,1728.35
2758.52,1731.09
2759.97,1708.35
2761.42,1690.63
2762.87,1693.26
2764.32,1642.63
2765.77,1640.35
2767.22,1641.31
2768.67,1607.54
2770.12,1588.27
2771.57,1590.96
2773.02,1563.29
2774.47,1561.64
2775.92,1543.63
2777.38,1536.43
2778.83,1521.44
2780.28,1505.77
2781.73,1486.23
2783.18,1452.93
2784.63,1491.58
2786.08,1442.88
2787.53,1450.22
2788.98,1442.42
2790.43,1422.81
2791.88,1424.43
2793.33,1415.53
2794.78,1385.09
2796.23,1403.85
2797.68,1377.71
2799.13,1402.17
2800.58,1373.03
2802.03,1362.1
2803.48,1343.67
2804.93,1377.85
2806.38,1365.02
2807.83,1338.48
2809.28,1331.41
2810.73,1333.08
2812.18,1313.92
2813.63,1332.61
2815.08,1311.71
2816.53,1312.84
2817.98,1309.01
2819.43,1315.23
2820.88,1309.75
2822.33,1290.81
2823.79,1274.77
2825.24,1286.54
2826.69,1292.16
2828.14,1287.34
2829.59,1271.15
2831.04,1277.64
2832.49,1250.49
2833.94,1254.04
2835.39,1271.5
2836.84,1258
2838.29,1227.81
2839.74,1220.15
2841.19,1228.29
2842.64,1249.53
2844.09,1244.28
2845.54,1233.35
2846.99,1203.29
2848.44,1251.58
2849.89,1235.78
2851.34,1232.74
2852.79,1237.74
2854.24,1234.27
2855.69,1227.55
2857.14,1225.45
2858.59,1227.66
2860.04,1200.98
2861.49,1250.8
2862.94,1200.31
2864.39,1211.93
2865.84,1232.36
2867.3,1236.7
2868.75,1215.62
2870.2,1213.35
2871.65,1209.24
2873.1,1202.26
2874.55,1192.06
2876,1188.19
2877.45,1215.29
2878.9,1221.4
2880.35,1182.7
2881.8,1187.08
2883.25,1207.69
2884.7,1212.12
2886.15,1208.21
2887.6,1202.19
2889.05,1209.11
2890.5,1217.6
2891.95,1200.91
2893.4,1203.73
2894.85,1195.1
2896.3,1200.03
2897.75,1199.36
2899.2,1201.41
2900.65,1203.73
2902.1,1201.53
2903.55,1182.68
2905,1190.25
2906.45,1198.8
2907.9,1189.28
2909.35,1183.3
2910.8,1177.17
2912.26,1163.05
2913.71,1175.24
2915.16,1162.42
2916.61,1169.45
2918.06,1145.03
2919.51,1174.57
2920.96,1160.55
2922.41,1176.47
2923.86,1160.81
2925.31,1151.68
2926.76,1163.15
2928.21,1156.54
2929.66,1148.25
2931.11,1138.13
2932.56,1138.2
2934.01,1136.17
2935.46,1113.68
2936.91,1111.84
2938.36,1112.46
2939.81,1110.71
2941.26,1104.07
2942.71,1098.77
2944.16,1114.5
2945.61,1111
2947.06,1090.84
2948.51,1090.52
2949.96,1079.37
2951.41,1089.11
2952.86,1095.45
2954.31,1090.06
2955.77,1066.64
2957.22,1065.21
2958.67,1052.46
2960.12,1073.55
2961.57,1044.73
2963.02,1062.46
2964.47,1056.96
2965.92,1061.1
2967.37,1053.45
2968.82,1053.21
2970.27,1048.84
2971.72,1048.69
2973.17,1036.32
2974.62,1034.46
2976.07,1025.88
2977.52,1021.13
2978.97,1023.44
2980.42,1031.2
2981.87,1021.91
2983.32,1023.16
2984.77,1017.91
2986.22,1022.43
2987.67,1020.5
2989.12,1035.86
2990.57,1022.34
2992.02,1025.61
2993.47,1026.21
2994.92,1027.39
2996.37,1015.16
2997.82,1027.54
2999.27,1036.05
3000.73,1011.29
3002.18,1020.83
3003.63,995.231
3005.08,1022.05
3006.53,1024.82
3007.98,1020.5
3009.43,1022.09
3010.88,1012.26
3012.33,1001.73
3013.78,989.018
3015.23,1000.65
3016.68,1010.53
3018.13,1021.08
3019.58,987.941
3021.03,987.336
3022.48,993.468
3023.93,1004.67
3025.38,1011.49
3026.83,1017.37
3028.28,1015.31
3029.73,1022.19
3031.18,1010.54
3032.63,998.342
3034.08,1023.02
3035.53,998.347
3036.98,1006.95
3038.43,982.212
3039.88,997.909
3041.33,1039.68
3042.78,1035.04
3044.23,1012.41
3045.69,1012.32
3047.14,1005.14
3048.59,1000.07
3050.04,1009.25
3051.49,983.745
3052.94,1008.02
3054.39,1011.98
3055.84,993.745
3057.29,1014.74
3058.74,1020.27
3060.19,1047.69
3061.64,1026.65
3063.09,1041.52
3064.54,1032
3065.99,1024.81
3067.44,1033.03
3068.89,1044.46
3070.34,1043.08
3071.79,1026.05
3073.24,1046.82
3074.69,1056.58
3076.14,1064.98
3077.59,1064.46
3079.04,1078.56
3080.49,1089.72
3081.94,1088.52
3083.39,1051.68
3084.84,1082.09
3086.29,1108.67
3087.74,1082.59
3089.2,1102.45
3090.65,1116.82
3092.1,1141.8
3093.55,1128.02
3095,1132.58
3096.45,1132.9
3097.9,1141.59
3099.35,1136.25
3100.8,1142.79
3102.25,1171.47
3103.7,1157.07
3105.15,1200.32
3106.6,1208.69
3108.05,1208.07
3109.5,1204.09
3110.95,1222.91
3112.4,1236.43
3113.85,1248.2
3115.3,1209.13
3116.75,1244.31
3118.2,1289.05
3119.65,1279.37
3121.1,1299.89
3122.55,1321.19
3124,1314.01
3125.45,1313.71
3126.9,1337.48
3128.35,1340.11
3129.8,1324.3
3131.25,1350.91
3132.7,1352.92
3134.16,1343.68
3135.61,1354.26
3137.06,1338.1
3138.51,1347.46
3139.96,1388.93
3141.41,1393.85
3142.86,1395.2
3144.31,1397.91
3145.76,1381.45
3147.21,1394.96
3148.66,1436.31
3150.11,1423.79
3151.56,1407.84
3153.01,1410.02
3154.46,1420.57
3155.91,1401.69
3157.36,1435.49
3158.81,1426.83
3160.26,1443.57
3161.71,1437.07
3163.16,1427.74
3164.61,1443.87
3166.06,1432.44
3167.51,1445.9
3168.96,1452
3170.41,1486.12
3171.86,1508.44
3173.31,1488.14
3174.76,1494.66
3176.21,1500.57
3177.67,1500.42
3179.12,1531.74
3180.57,1519.89
3182.02,1523
3183.47,1547.01
3184.92,1552.54
3186.37,1564.7
3187.82,1562.14
3189.27,1545.78
3190.72,1556.35
3192.17,1556.58
3193.62,1555
3195.07,1546.7
3196.52,1540.65
3197.97,1543.29
3199.42,1539.1
3200.87,1509.81
3202.32,1535.48
3203.77,1497.49
3205.22,1473.11
3206.67,1454.32
3208.12,1514.98
3209.57,1466.9
3211.02,1434.46
3212.47,1419.4
3213.92,1426.69
3215.37,1413.96
3216.82,1392.25
3218.27,1398.8
3219.72,1372.24
3221.17,1356.37
3222.63,1342.62
3224.08,1339.04
3225.53,1316.07
3226.98,1279.54
3228.43,1275.87
3229.88,1257.8
3231.33,1238.15
3232.78,1207.14
3234.23,1200.04
3235.68,1175.84
3237.13,1132.01
3238.58,1168.97
3240.03,1169.7
3241.48,1143.92
3242.93,1123.3
3244.38,1112.58
3245.83,1085.58
3247.28,1075.67
3248.73,1073.09
3250.18,1087.21
3251.63,1069.53
3253.08,1049.64
3254.53,1046.65
3255.98,1021.59
3257.43,1013.68
3258.88,1026.63
3260.33,1008.28
3261.78,1030.24
3263.23,1020.37
3264.68,992.418
3266.13,1014.76
3267.59,1035.97
3269.04,1007.15
3270.49,995.017
3271.94,1013.8
3273.39,986.993
3274.84,974.539
3276.29,1013.55
3277.74,971.19
3279.19,976.872
3280.64,997.893
3282.09,995.449
3283.54,988.587
3284.99,969.224
3286.44,976.599
3287.89,983.043
3289.34,957.591
3290.79,974.488
3292.24,979.768
3293.69,977.572
3295.14,975.783
3296.59,973.848
3298.04,962.67
3299.49,976.123
3300.94,973.095
3302.39,995.187
3303.84,968.698
3305.29,965.133
3306.74,976.981
3308.19,970.266
3309.64,972.276
3311.09,982.482
3312.55,977.622
3314,996.436
3315.45,981.273
3316.9,973.197
3318.35,966.54
3319.8,960.236
3321.25,976.381
3322.7,963.218
3324.15,963.376
3325.6,985.404
3327.05,985.503
3328.5,961.385
3329.95,970.262
3331.4,991.824
3332.85,969.628
3334.3,968.774
3335.75,961.399
3337.2,967.057
3338.65,955.164
3340.1,976.362
3341.55,960.136
3343,961.58
3344.45,958.536
3345.9,964.446
3347.35,918.961
3348.8,967.005
3350.25,972.617
3351.7,982.593
3353.15,982.201
3354.6,971.733
3356.06,965.263
3357.51,983.085
3358.96,941.971
3360.41,951.255
3361.86,956.944
3363.31,970.852
3364.76,944.81
3366.21,960.645
3367.66,985.047
3369.11,980.74
3370.56,975.047
3372.01,977.701
3373.46,950.801
3374.91,984.92
3376.36,988.332
3377.81,975.363
3379.26,957.212
3380.71,988.979
3382.16,996.983
3383.61,982.01
3385.06,974.215
3386.51,963.971
3387.96,976.926
3389.41,1000.05
3390.86,997.683
3392.31,964.823
3393.76,974.992
3395.21,984.194
3396.66,952.701
3398.11,983.785
3399.56,979.865
3401.02,980.902
3402.47,979.908
3403.92,968.08
3405.37,983.584
3406.82,960.152
3408.27,994.86
3409.72,977.079
3411.17,981.081
3412.62,962.831
3414.07,990.912
3415.52,961.927
3416.97,987.213
3418.42,985.819
3419.87,977.41
3421.32,972.54
3422.77,971.696
3424.22,983.224
3425.67,1002.98
3427.12,1013.88
3428.57,984.234
3430.02,988.974
3431.47,982.726
3432.92,964.574
3434.37,979.26
3435.82,992.847
3437.27,994.558
3438.72,999.947
3440.17,978.234
3441.62,983.746
3443.07,988.214
3444.52,998.953
3445.98,986.459
3447.43,958.331
3448.88,968.529
3450.33,975.229
3451.78,983.599
3453.23,1001.69
3454.68,981.088
3456.13,986.787
3457.58,1011.64
3459.03,986.597
3460.48,980.848
3461.93,983.079
3463.38,974.62
3464.83,994.436
3466.28,993.838
3467.73,970.485
3469.18,1002.02
3470.63,992.525
3472.08,988.204
3473.53,982.654
3474.98,991.226
3476.43,962.39
3477.88,1008.47
3479.33,996.381
3480.78,993.341
3482.23,1004.07
3483.68,998.358
3485.13,988.562
3486.58,995.688
3488.03,982.305
3489.49,982.092
3490.94,983.818
3492.39,985.385
3493.84,1000.2
3495.29,982.985
3496.74,995.772
3498.19,981.862
3499.64,1016.83
3501.09,982.511
3502.54,1015.38
3503.99,1002.9
3505.44,985.865
3506.89,1009.52
3508.34,1006.51
3509.79,1022.75
3511.24,1017.28
3512.69,1015.8
3514.14,1002.89
3515.59,1012.71
3517.04,1044.44
3518.49,1019.56
3519.94,1002.77
3521.39,983.078
3522.84,1028.26
3524.29,1006.14
3525.74,994.39
3527.19,1019.62
3528.64,1008.72
3530.09,1015.38
3531.54,992.589
3532.99,995.45
3534.45,1006.74
3535.9,1030.62
3537.35,1004.62
3538.8,1005.01
3540.25,987.481
3541.7,991.161
3543.15,996.737
3544.6,1004.46
3546.05,1033.01
3547.5,1021.87
3548.95,1030.22
3550.4,1024.7
3551.85,1024.7
3553.3,992.221
3554.75,999.866
3556.2,1001.17
3557.65,1020.11
3559.1,1010.49
3560.55,1005.18
3562,992.619
3563.45,1027.49
3564.9,1024.73
3566.35,1005.72
3567.8,1029.51
3569.25,1011.44
3570.7,1023
3572.15,1025.53
3573.6,1029.7
3575.05,1023.71
3576.5,994.789
3577.96,991.749
3579.41,1016.93
3580.86,1008.81
3582.31,1022.57
3583.76,1030.76
3585.21,1028.36
3586.66,1019.89
3588.11,1035.63
3589.56,1014.72
3591.01,1031.98
3592.46,1043.83
3593.91,1016.2
3595.36,1019.73
3596.81,1035.01
3598.26,1029.52
3599.71,1011.03
3601.16,1025.25
3602.61,1036.97
3604.06,1024.12
3605.51,1021.91
3606.96,1020.14
3608.41,1035.87
3609.86,1026.94
3611.31,1039.24
3612.76,1016.1
3614.21,1014.84
3615.66,1055.93
3617.11,1024.05
3618.56,1035.8
3620.01,1027.29
3621.46,1039.34
3622.92,1037.9
3624.37,1038.6
3625.82,1038.87
3627.27,1042.59
3628.72,1011.78
3630.17,1027.25
3631.62,1041.61
3633.07,1019.31
3634.52,1039.33
3635.97,1041.57
3637.42,1039.13
3638.87,1047.68
3640.32,1019.22
3641.77,1060.68
3643.22,1062.74
3644.67,1046.36
3646.12,1047.01
3647.57,1050.2
3649.02,1045.08
3650.47,1057.31
3651.92,1048.7
3653.37,1058.81
3654.82,1053.2
3656.27,1047.86
3657.72,1043.44
3659.17,1058.93
3660.62,1067.26
3662.07,1057.29
3663.52,1054.47
3664.97,1059.36
3666.43,1052.87
3667.88,1072.21
3669.33,1040.5
3670.78,1045.49
3672.23,1057.49
3673.68,1067.81
3675.13,1067.96
3676.58,1072.11
3678.03,1055.82
3679.48,1072.29
3680.93,1079.88
3682.38,1056.53
3683.83,1055.27
3685.28,1053.41
3686.73,1078.1
3688.18,1069.36
3689.63,1071.83
3691.08,1061.9
3692.53,1078.54
3693.98,1066.74
3695.43,1077.34
3696.88,1066.29
3698.33,1054.17
3699.78,1054.27
3701.23,1067.36
3702.68,1071.78
3704.13,1091.11
3705.58,1071.57
3707.03,1090.91
3708.48,1070.31
3709.93,1065.4
3711.39,1077.59
3712.84,1050.28
3714.29,1085.01
3715.74,1074.65
3717.19,1077.16
3718.64,1084.2
3720.09,1076.36
3721.54,1075.87
3722.99,1075.85
3724.44,1081.51
3725.89,1069.42
3727.34,1056.56
3728.79,1060.29
3730.24,1055.87
3731.69,1088.03
3733.14,1084.06
3734.59,1087.3
3736.04,1073.55
3737.49,1077.27
3738.94,1090.44
3740.39,1109.4
3741.84,1072.57
3743.29,1104.49
3744.74,1114.25
3746.19,1083.61
3747.64,1096.61
3749.09,1106.9
3750.54,1078.89
3751.99,1083.97
3753.44,1090.85
3754.89,1093.39
3756.35,1104.29
3757.8,1098.93
3759.25,1098.25
3760.7,1099.15
3762.15,1095.32
3763.6,1082.67
3765.05,1102.56
3766.5,1101.89
3767.95,1108.26
3769.4,1104.43
3770.85,1100.71
3772.3,1090.77
3773.75,1092.65
3775.2,1100.81
3776.65,1097.25
3778.1,1114.02
3779.55,1098.26
3781,1115.73
3782.45,1129.1
3783.9,1109.07
3785.35,1092.35
3786.8,1134.13
3788.25,1091.96
3789.7,1113.42
3791.15,1095.72
3792.6,1129.51
3794.05,1107.01
3795.5,1092.61
3796.95,1101.5
3798.4,1089.66
3799.85,1114.81
3801.31,1115.41
3802.76,1092.95
3804.21,1142.04
3805.66,1137.67
3807.11,1138.54
3808.56,1127.67
3810.01,1137.39
3811.46,1145.29
3812.91,1142.83
3814.36,1125.89
3815.81,1126.77
3817.26,1131.96
3818.71,1131.13
3820.16,1142.65
3821.61,1145.44
3823.06,1124.25
3824.51,1117.3
3825.96,1139.39
3827.41,1140.39
3828.86,1138.45
3830.31,1149.67
3831.76,1138.78
3833.21,1145.79
3834.66,1162.91
3836.11,1160.26
3837.56,1153.14
3839.01,1145.32
3840.46,1145.79
3841.91,1135.74
3843.36,1133.79
3844.82,1101.77
3846.27,1141.56
3847.72,1156.31
3849.17,1153.7
3850.62,1173.43
3852.07,1159.42
3853.52,1153.13
3854.97,1154.83
3856.42,1153.36
3857.87,1153.15
3859.32,1164.84
3860.77,1159.56
3862.22,1157.54
3863.67,1171.17
3865.12,1168.78
3866.57,1157.68
3868.02,1158.02
3869.47,1183.47
3870.92,1157.21
3872.37,1151.29
3873.82,1169.61
3875.27,1193.2
3876.72,1205.83
3878.17,1200.37
3879.62,1169.34
3881.07,1176.48
3882.52,1175.6
3883.97,1178.81
3885.42,1192
3886.87,1191.01
3888.32,1201.05
3889.78,1183.54
3891.23,1193.94
3892.68,1188.29
3894.13,1185.65
3895.58,1195.29
3897.03,1210.21
3898.48,1212.72
3899.93,1221.81
3901.38,1215.56
3902.83,1191.17
3904.28,1218.06
3905.73,1220.97
3907.18,1222.27
3908.63,1200.62
3910.08,1215.55
3911.53,1211.02
3912.98,1230.79
3914.43,1220.54
3915.88,1222.5
3917.33,1209.26
3918.78,1200.12
3920.23,1224.26
3921.68,1231.97
3923.13,1248.5
3924.58,1227.06
3926.03,1237.54
3927.48,1232.53
3928.93,1275.6
3930.38,1231.41
3931.83,1237.42
3933.28,1242.79
3934.74,1248.92
3936.19,1270.7
3937.64,1256.64
3939.09,1237.27
3940.54,1271.51
3941.99,1257.64
3943.44,1248.59
3944.89,1254.39
3946.34,1267.24
3947.79,1280.82
3949.24,1271.48
3950.69,1275.68
3952.14,1283.23
3953.59,1290.1
3955.04,1294.29
3956.49,1256.69
3957.94,1299.62
3959.39,1270.34
3960.84,1267.11
3962.29,1277.32
3963.74,1270.89
3965.19,1260.54
3966.64,1308.79
3968.09,1278.83
3969.54,1303.01
3970.99,1272.77
3972.44,1297.89
3973.89,1293.49
3975.34,1322.2
3976.79,1315.44
3978.25,1324
3979.7,1320.76
3981.15,1307.15
3982.6,1314.86
3984.05,1327.05
3985.5,1332.94
3986.95,1350.48
3988.4,1328
3989.85,1333.86
3991.3,1328.55
3992.75,1337.13
3994.2,1353.27
3995.65,1324.84
3997.1,1391.3
3998.55,1334.14
4000,1337
