-20,-3.02541
-18.5482,7.97518
-17.0964,17.059
-15.6446,18.5379
-14.1928,39.3409
-12.7411,46.0131
-11.2893,47.903
-9.83749,61.7146
-8.3857,86.8298
-6.93391,119.608
-5.48212,445.27
-4.03034,92.0757
-2.57855,92.0757
-1.12676,92.0757
0.325027,92.0757
1.77681,92.0757
3.2286,92.0757
4.68039,92.0757
6.13218,92.0757
7.58397,217.682
9.03575,48.0542
10.4875,42.5274
11.9393,33.1791
13.3911,26.436
14.8429,20.198
16.2947,13.1024
17.7465,10.5848
19.1983,6.62134
20.6501,4.117
22.1018,1.64007
23.5536,-4.92667
25.0054,-3.63731
26.4572,-5.45928
27.909,-10.8798
29.3608,-17.7502
30.8126,-20.4201
32.2644,-20.989
33.7161,-21.0044
35.1679,-21.9737
36.6197,-24.1588
38.0715,-21.1304
39.5233,-21.5043
40.9751,-18.3064
42.4269,-15.8319
43.8787,-20.5171
45.3304,-12.0132
46.7822,-3.38423
48.234,19.5828
49.6858,68.9872
51.1376,156.836
52.5894,329.438
54.0412,591.19
55.493,905.166
56.9447,1246.14
58.3965,1588.85
59.8483,1886.09
61.3001,2115.37
62.7519,2281.34
64.2037,2420.64
65.6555,2539.17
67.1073,2560.83
68.559,2569.02
70.0108,2577.75
71.4626,2586.02
72.9144,2587.35
74.3662,2650.54
75.818,2718.07
77.2698,2769.32
78.7216,2815.75
80.1733,2907.81
81.6251,3045.21
83.0769,3151.2
84.5287,3220.88
85.9805,3233.03
87.4323,3199.18
88.8841,3149.46
90.3359,3050.64
91.7877,2873.08
93.2394,2753.65
94.6912,2548.63
96.143,2392.61
97.5948,2303.82
99.0466,2236.36
100.498,2118.63
101.95,2055.67
103.402,2003.4
104.854,1952.87
106.306,1906.68
107.757,1874.08
109.209,1812.4
110.661,1783.97
112.113,1789.49
113.564,1719.56
115.016,1695.52
116.468,1675.34
117.92,1665.49
119.372,1675.04
120.823,1615.76
122.275,1558.67
123.727,1518.91
125.179,1504.89
126.631,1497.24
128.082,1460.14
129.534,1418.25
130.986,1396.17
132.438,1367.08
133.889,1331.74
135.341,1319.34
136.793,1311.67
138.245,1285.22
139.697,1261.36
141.148,1261.58
142.6,1237.38
144.052,1235.98
145.504,1209.2
146.956,1171.09
148.407,1175.42
149.859,1155.89
151.311,1158.07
152.763,1142.04
154.215,1127.27
155.666,1142.69
157.118,1132.36
158.57,1114.61
160.022,1106.67
161.473,1087.71
162.925,1105.58
164.377,1063.37
165.829,1018.66
167.281,1014.75
168.732,1033.34
170.184,1001.57
171.636,980.508
173.088,969.035
174.54,950.546
175.991,940.748
177.443,938.769
178.895,963.349
180.347,936.644
181.798,919.951
183.25,929.911
184.702,935.69
186.154,926.052
187.606,920.777
189.057,909.494
190.509,908.755
191.961,919.76
193.413,887.04
194.865,872.954
196.316,865.3
197.768,873.358
199.22,877.32
200.672,863.124
202.124,849.574
203.575,835.264
205.027,843.848
206.479,869.4
207.931,846.665
209.382,831.687
210.834,830.203
212.286,840.503
213.738,823.523
215.19,819.696
216.641,829.764
218.093,841.605
219.545,840.814
220.997,842.968
222.449,818.018
223.9,816.427
225.352,826.898
226.804,843.18
228.256,862.97
229.707,847.063
231.159,850.66
232.611,846.44
234.063,837.62
235.515,848.67
236.966,841.123
238.418,832.637
239.87,821.603
241.322,818.336
242.774,824.391
244.225,828.872
245.677,813.424
247.129,807.817
248.581,807.956
250.033,788.017
251.484,802.561
252.936,799
254.388,790.13
255.84,786.552
257.291,781.933
258.743,785.802
260.195,774.941
261.647,785.673
263.099,793.33
264.55,768.117
266.002,771.603
267.454,763.91
268.906,769.032
270.358,774.178
271.809,761.93
273.261,725.204
274.713,743.731
276.165,753.061
277.616,753.667
279.068,744.416
280.52,709.767
281.972,718.473
283.424,710.734
284.875,718.991
286.327,728.728
287.779,710.848
289.231,686.822
290.683,682.843
292.134,679.226
293.586,673.006
295.038,683.695
296.49,697.557
297.941,671.048
299.393,656.933
300.845,650.636
302.297,654.355
303.749,655.685
305.2,628.794
306.652,644.268
308.104,654.444
309.556,642.341
311.008,624.561
312.459,626.833
313.911,621.859
315.363,611.521
316.815,605.297
318.267,611.5
319.718,598.066
321.17,612.382
322.622,624.062
324.074,623.25
325.525,613.526
326.977,600.747
328.429,603.856
329.881,601.217
331.333,594.126
332.784,585.251
334.236,592.101
335.688,613.037
337.14,602.241
338.592,588.145
340.043,587.528
341.495,593.221
342.947,593.7
344.399,589.613
345.85,582.635
347.302,577.138
348.754,578.948
350.206,574.085
351.658,575.02
353.109,576.625
354.561,575.354
356.013,558
357.465,569.711
358.917,576.257
360.368,571.926
361.82,575.482
363.272,570.095
364.724,549.795
366.176,557.979
367.627,533.181
369.079,533.13
370.531,552.626
371.983,553.093
373.434,553.734
374.886,542.422
376.338,542.648
377.79,550.01
379.242,555.591
380.693,560.104
382.145,551.619
383.597,556.914
385.049,561.308
386.501,555.839
387.952,549.83
389.404,542.705
390.856,542.759
392.308,540.65
393.759,543.848
395.211,561.288
396.663,575.839
398.115,553.039
399.567,547.964
401.018,544.129
402.47,541.863
403.922,554.678
405.374,531.234
406.826,556.689
408.277,554.609
409.729,544.054
411.181,538.317
412.633,551.955
414.085,551.359
415.536,562.837
416.988,548.663
418.44,526.442
419.892,536.126
421.343,531.6
422.795,540.507
424.247,521.51
425.699,512.314
427.151,520.712
428.602,537.32
430.054,511.639
431.506,521.407
432.958,539.314
434.41,545.521
435.861,536.018
437.313,527.564
438.765,531.397
440.217,522.844
441.668,529.649
443.12,536.289
444.572,506.636
446.024,522.907
447.476,530.511
448.927,536.136
450.379,533.089
451.831,527.554
453.283,533.88
454.735,532.302
456.186,542.719
457.638,544.309
459.09,536.397
460.542,525.427
461.993,511.312
463.445,521.714
464.897,522.783
466.349,525.879
467.801,529.216
469.252,514.874
470.704,517.401
472.156,514.306
473.608,515.132
475.06,519.871
476.511,520.492
477.963,507.662
479.415,516.905
480.867,522.816
482.319,519.845
483.77,517.262
485.222,532.21
486.674,535.056
488.126,532.024
489.577,526.952
491.029,521.046
492.481,510.659
493.933,511.904
495.385,513.211
496.836,502.242
498.288,502.652
499.74,508.405
501.192,512.044
502.644,520.246
504.095,507.826
505.547,487.98
506.999,499.241
508.451,503.25
509.902,495.711
511.354,521.04
512.806,510.941
514.258,502.051
515.71,499.884
517.161,510.963
518.613,520.567
520.065,516.669
521.517,515.57
522.969,504.957
524.42,496.904
525.872,495.499
527.324,503.366
528.776,527.301
530.228,509.487
531.679,503.119
533.131,500.429
534.583,502.461
536.035,521.569
537.486,511.62
538.938,506.19
540.39,502.619
541.842,509.698
543.294,513.479
544.745,518.331
546.197,512.696
547.649,498.636
549.101,511.222
550.553,526.36
552.004,524.659
553.456,515.485
554.908,519.182
556.36,505.011
557.811,512.268
559.263,497.934
560.715,478.161
562.167,507.529
563.619,519.015
565.07,517.164
566.522,516.881
567.974,502.618
569.426,493.4
570.878,527.516
572.329,508.227
573.781,511.128
575.233,505.245
576.685,501.827
578.137,507.825
579.588,520.315
581.04,500.279
582.492,506.245
583.944,510.15
585.395,512.638
586.847,513.061
588.299,509.193
589.751,514.095
591.203,504.039
592.654,517.375
594.106,522.285
595.558,508.755
597.01,499.078
598.462,513.923
599.913,505.694
601.365,514.739
602.817,505.291
604.269,496.376
605.72,490.08
607.172,507.824
608.624,506.076
610.076,525.817
611.528,518.155
612.979,497.798
614.431,502.913
615.883,491.828
617.335,510.648
618.787,506.677
620.238,510.025
621.69,523.013
623.142,524.223
624.594,494.014
626.046,502.048
627.497,514.545
628.949,520.675
630.401,510.337
631.853,501.555
633.304,517.619
634.756,531.561
636.208,523.25
637.66,523.971
639.112,529.608
640.563,527.907
642.015,525.877
643.467,529.546
644.919,533.107
646.371,527.796
647.822,521.363
649.274,523.084
650.726,552.622
652.178,551.803
653.629,523.083
655.081,509.127
656.533,521.849
657.985,537.449
659.437,536.662
660.888,532.115
662.34,530.218
663.792,535.527
665.244,541.44
666.696,545.065
668.147,549.208
669.599,545.914
671.051,560.093
672.503,546.694
673.954,544.444
675.406,539.263
676.858,534.71
678.31,541.664
679.762,556.166
681.213,524.185
682.665,537.081
684.117,547.085
685.569,558.756
687.021,569.361
688.472,547.18
689.924,573.795
691.376,577.656
692.828,558.128
694.28,540.422
695.731,539.619
697.183,560.496
698.635,552.668
700.087,537.907
701.538,551.132
702.99,549.013
704.442,548.306
705.894,567.613
707.346,569.978
708.797,580.654
710.249,551.633
711.701,546.568
713.153,561.545
714.605,567.793
716.056,544.255
717.508,546.218
718.96,540.808
720.412,544.562
721.863,554.322
723.315,558.32
724.767,556.683
726.219,558.312
727.671,569.313
729.122,550.082
730.574,552.636
732.026,554.526
733.478,548.545
734.93,554.835
736.381,565.887
737.833,558.542
739.285,587.53
740.737,580.255
742.189,561.042
743.64,560.188
745.092,573.931
746.544,580.818
747.996,586.721
749.447,559.81
750.899,559.224
752.351,570.646
753.803,584.609
755.255,583.242
756.706,584.449
758.158,584.535
759.61,574.681
761.062,567.845
762.514,562.915
763.965,551.301
765.417,570.196
766.869,566.813
768.321,564.403
769.772,574.896
771.224,572.748
772.676,575.895
774.128,596.646
775.58,589.399
777.031,559.345
778.483,573.903
779.935,581.197
781.387,573.547
782.839,576.968
784.29,580.486
785.742,576.968
787.194,583.352
788.646,570.236
790.098,575.025
791.549,566.38
793.001,558.261
794.453,584.395
795.905,564.807
797.356,582.217
798.808,582.468
800.26,591.18
801.712,576.098
803.164,571.582
804.615,583.549
806.067,589.787
807.519,594.885
808.971,592.45
810.423,583.45
811.874,587.629
813.326,584.814
814.778,589.555
816.23,609.31
817.681,610.839
819.133,604.762
820.585,607.569
822.037,614.114
823.489,606.551
824.94,600.842
826.392,605.742
827.844,598.373
829.296,611.76
830.748,637.815
832.199,643.402
833.651,622.261
835.103,630.563
836.555,615.217
838.007,631.773
839.458,615.964
840.91,613.28
842.362,634.522
843.814,650.15
845.265,628.359
846.717,650.875
848.169,631.705
849.621,662.208
851.073,645.55
852.524,634.786
853.976,637.482
855.428,615.903
856.88,626.302
858.332,633.561
859.783,639.323
861.235,642.149
862.687,644.227
864.139,645.587
865.59,644.74
867.042,666.093
868.494,611.352
869.946,620.141
871.398,632.615
872.849,643.423
874.301,633.857
875.753,628.52
877.205,634.057
878.657,619.587
880.108,619.762
881.56,633.635
883.012,628.199
884.464,621.692
885.915,635.922
887.367,650.985
888.819,626.094
890.271,651.405
891.723,640.577
893.174,642.054
894.626,660.01
896.078,657.062
897.53,662.13
898.982,677.406
900.433,629.097
901.885,653.981
903.337,688.278
904.789,672.201
906.241,667.467
907.692,671.662
909.144,691.544
910.596,663.851
912.048,679.696
913.499,684.368
914.951,673.151
916.403,679.626
917.855,680.126
919.307,667.472
920.758,683.608
922.21,678.888
923.662,663.296
925.114,658.426
926.566,669.932
928.017,681.67
929.469,677.819
930.921,672.19
932.373,668.196
933.824,666.499
935.276,697.843
936.728,705.435
938.18,693.716
939.632,692.181
941.083,688.335
942.535,685.157
943.987,678.417
945.439,705.202
946.891,682.631
948.342,697.907
949.794,691.073
951.246,668.061
952.698,680.461
954.15,686.756
955.601,690.718
957.053,691.576
958.505,685.14
959.957,685.158
961.408,686.831
962.86,688.021
964.312,680.267
965.764,680.455
967.216,666.878
968.667,691.242
970.119,680.63
971.571,675.868
973.023,677.073
974.475,689.254
975.926,690.949
977.378,688.719
978.83,717.27
980.282,705.004
981.733,686.109
983.185,688.982
984.637,696.757
986.089,698.757
987.541,693.398
988.992,692.84
990.444,729.302
991.896,701.864
993.348,691.556
994.8,691.238
996.251,705.506
997.703,711.636
999.155,712.623
1000.61,707.681
1002.06,724.278
1003.51,730.408
1004.96,742.458
1006.41,747.283
1007.87,728.091
1009.32,729.863
1010.77,756.201
1012.22,731.503
1013.67,753.23
1015.12,759.496
1016.58,748.655
1018.03,753.569
1019.48,755.724
1020.93,769.848
1022.38,772.65
1023.84,764.389
1025.29,777.437
1026.74,794.569
1028.19,792.211
1029.64,806.257
1031.09,814.384
1032.55,813.298
1034,824.877
1035.45,831.598
1036.9,817.446
1038.35,829.048
1039.8,825.454
1041.26,834.566
1042.71,848.25
1044.16,847.488
1045.61,840.066
1047.06,842.374
1048.52,900.686
1049.97,886.89
1051.42,893.179
1052.87,895.493
1054.32,895.536
1055.77,913.809
1057.23,924.325
1058.68,921.563
1060.13,906.828
1061.58,913.321
1063.03,928.529
1064.49,961.322
1065.94,972.911
1067.39,964.354
1068.84,984.32
1070.29,1018.11
1071.74,1017.02
1073.2,1014.51
1074.65,1041.99
1076.1,1024.08
1077.55,1015.59
1079,1020.95
1080.46,1022.26
1081.91,1048.77
1083.36,1070.86
1084.81,1061.61
1086.26,1048.76
1087.71,1066.28
1089.17,1052.83
1090.62,1045.79
1092.07,1041.59
1093.52,1038.67
1094.97,1035.32
1096.42,1034.03
1097.88,997.487
1099.33,1037.48
1100.78,1044.82
1102.23,1037.92
1103.68,1023.9
1105.14,1018.67
1106.59,1017.89
1108.04,1020.54
1109.49,1027.29
1110.94,1008.92
1112.39,977.495
1113.85,972.202
1115.3,975.024
1116.75,975.923
1118.2,962.06
1119.65,952.966
1121.11,984.67
1122.56,978.185
1124.01,952.471
1125.46,949.645
1126.91,938.408
1128.36,942.545
1129.82,950.958
1131.27,941.063
1132.72,922.207
1134.17,911.307
1135.62,917.504
1137.07,951.794
1138.53,930.476
1139.98,946.065
1141.43,932.755
1142.88,903.142
1144.33,904.324
1145.79,917.948
1147.24,913.726
1148.69,901.474
1150.14,915.068
1151.59,930.714
1153.04,923.106
1154.5,903.296
1155.95,890.953
1157.4,906.407
1158.85,927.296
1160.3,923.363
1161.76,907.799
1163.21,910.529
1164.66,894.678
1166.11,916.429
1167.56,917.164
1169.01,918.245
1170.47,904.993
1171.92,905.875
1173.37,923.751
1174.82,917.995
1176.27,923.039
1177.72,926.556
1179.18,938.357
1180.63,936.533
1182.08,942.604
1183.53,938.195
1184.98,927.659
1186.44,927.255
1187.89,936.951
1189.34,935.823
1190.79,941.531
1192.24,950.545
1193.69,941.697
1195.15,935.253
1196.6,932.199
1198.05,945.602
1199.5,960.893
1200.95,971.69
1202.41,968.052
1203.86,965.638
1205.31,948.64
1206.76,982.956
1208.21,940.781
1209.66,953.1
1211.12,957.486
1212.57,966.446
1214.02,965.239
1215.47,958.82
1216.92,995.947
1218.37,957.627
1219.83,956.457
1221.28,969.784
1222.73,968.466
1224.18,986.486
1225.63,996.101
1227.09,992.081
1228.54,990.584
1229.99,990.64
1231.44,980.52
1232.89,985.338
1234.34,973.827
1235.8,1019.76
1237.25,1023.37
1238.7,1023.24
1240.15,1000.15
1241.6,989.226
1243.06,1012.1
1244.51,1028.92
1245.96,1019.87
1247.41,1036.57
1248.86,1015.11
1250.31,1045.91
1251.77,1050.56
1253.22,1044.04
1254.67,1051.44
1256.12,1064.92
1257.57,1074.32
1259.02,1078
1260.48,1072.76
1261.93,1092.49
1263.38,1138.03
1264.83,1109.01
1266.28,1124.39
1267.74,1143.82
1269.19,1150.54
1270.64,1165.59
1272.09,1182.52
1273.54,1177.7
1274.99,1187.84
1276.45,1199.91
1277.9,1211.64
1279.35,1208.86
1280.8,1245.79
1282.25,1266.49
1283.71,1294.72
1285.16,1315.93
1286.61,1352.58
1288.06,1397.01
1289.51,1418
1290.96,1414.43
1292.42,1474.03
1293.87,1508.07
1295.32,1504.4
1296.77,1545.81
1298.22,1578.51
1299.67,1631.73
1301.13,1697.65
1302.58,1730.1
1304.03,1746.3
1305.48,1816.63
1306.93,1912.54
1308.39,1959.4
1309.84,2050.21
1311.29,2101.85
1312.74,2201.4
1314.19,2294.69
1315.64,2382.92
1317.1,2486.8
1318.55,2606.98
1320,2712.16
1321.45,2819.9
1322.9,2942.49
1324.36,3042.97
1325.81,3195.42
1327.26,3294.18
1328.71,3359.64
1330.16,3431.41
1331.61,3458.86
1333.07,3497.38
1334.52,3518.38
1335.97,3524.19
1337.42,3527.63
1338.87,3462.26
1340.33,3395.12
1341.78,3370.7
1343.23,3299.43
1344.68,3185.18
1346.13,3117.64
1347.58,3010.06
1349.04,2888.58
1350.49,2790.87
1351.94,2709.3
1353.39,2604.79
1354.84,2439.38
1356.29,2410.04
1357.75,2270.03
1359.2,2170.54
1360.65,2067.89
1362.1,2000.14
1363.55,1947.19
1365.01,1902.26
1366.46,1857.99
1367.91,1809.99
1369.36,1759.86
1370.81,1692.11
1372.26,1673.59
1373.72,1627.05
1375.17,1616.11
1376.62,1580.54
1378.07,1541.23
1379.52,1517.41
1380.98,1488.37
1382.43,1489.02
1383.88,1476.56
1385.33,1441.5
1386.78,1426.39
1388.23,1429.05
1389.69,1386.97
1391.14,1414.18
1392.59,1392.92
1394.04,1359.57
1395.49,1360.75
1396.94,1360.06
1398.4,1359
1399.85,1351.77
1401.3,1336.48
1402.75,1350.85
1404.2,1365.56
1405.66,1341.29
1407.11,1347.18
1408.56,1373.65
1410.01,1350.92
1411.46,1360.66
1412.91,1362.32
1414.37,1399.49
1415.82,1400.1
1417.27,1386.49
1418.72,1376.01
1420.17,1390.4
1421.63,1396.35
1423.08,1381.08
1424.53,1389.02
1425.98,1421.63
1427.43,1405.09
1428.88,1395.65
1430.34,1403.74
1431.79,1405.98
1433.24,1425.16
1434.69,1448.62
1436.14,1438.09
1437.59,1413.82
1439.05,1435.36
1440.5,1479.36
1441.95,1502.06
1443.4,1506.64
1444.85,1525.84
1446.31,1500.43
1447.76,1514.51
1449.21,1512.89
1450.66,1518.67
1452.11,1549.67
1453.56,1568.9
1455.02,1595.97
1456.47,1621.34
1457.92,1638.13
1459.37,1668.22
1460.82,1659.46
1462.28,1638.74
1463.73,1685.54
1465.18,1688.78
1466.63,1733.64
1468.08,1741.64
1469.53,1763.79
1470.99,1772.81
1472.44,1783.14
1473.89,1830.52
1475.34,1879.51
1476.79,1908.29
1478.24,1929.43
1479.7,1947.46
1481.15,1993.01
1482.6,2041.18
1484.05,2021.06
1485.5,2048.52
1486.96,2110.37
1488.41,2147.49
1489.86,2202.84
1491.31,2244.73
1492.76,2274.04
1494.21,2330.42
1495.67,2384.72
1497.12,2431.98
1498.57,2495.06
1500.02,2550.86
1501.47,2645.17
1502.93,2713.62
1504.38,2780.3
1505.83,2816.37
1507.28,2923.45
1508.73,3021.21
1510.18,3148.28
1511.64,3248.47
1513.09,3359.69
1514.54,3506.42
1515.99,3634.82
1517.44,3809.77
1518.89,3968.53
1520.35,4129.53
1521.8,4306.03
1523.25,4559.26
1524.7,4821.35
1526.15,5148.63
1527.61,5383.19
1529.06,5829.1
1530.51,6250.66
1531.96,6694.44
1533.41,7200.19
1534.86,7799.65
1536.32,8491.13
1537.77,9254.51
1539.22,10077.1
1540.67,11035.9
1542.12,11979.2
1543.58,13145.2
1545.03,14279.5
1546.48,15620.4
1547.93,17111.9
1549.38,18602.7
1550.83,20074.3
1552.29,21504.6
1553.74,23239.7
1555.19,24907.8
1556.64,26548.8
1558.09,28224.8
1559.54,29731
1561,30969.5
1562.45,32246.1
1563.9,33312.7
1565.35,33785.4
1566.8,33873.4
1568.26,33424.7
1569.71,32940.3
1571.16,31739.7
1572.61,30354.6
1574.06,28713.2
1575.51,26771.3
1576.97,24869.9
1578.42,22851
1579.87,20723.2
1581.32,18845.4
1582.77,17117.2
1584.23,15475.6
1585.68,14072.2
1587.13,12841.1
1588.58,11689.8
1590.03,10738.6
1591.48,9774.62
1592.94,9065.85
1594.39,8415.24
1595.84,7832.9
1597.29,7370.18
1598.74,6917.96
1600.2,6510.19
1601.65,6191.98
1603.1,5868.35
1604.55,5594.26
1606,5367.92
1607.45,5090.5
1608.91,4816.33
1610.36,4589.63
1611.81,4288.94
1613.26,4253.54
1614.71,3971.03
1616.16,3773.19
1617.62,3663.96
1619.07,3431.53
1620.52,3339.21
1621.97,3209.74
1623.42,3094.56
1624.88,2965.9
1626.33,2846.03
1627.78,2761.04
1629.23,2676.52
1630.68,2593.65
1632.13,2498.37
1633.59,2417.15
1635.04,2389.28
1636.49,2297.6
1637.94,2230.85
1639.39,2164.12
1640.85,2151.98
1642.3,2115.47
1643.75,2072.03
1645.2,2084.52
1646.65,2016.51
1648.1,1974.36
1649.56,1936.6
1651.01,1923.11
1652.46,1876.48
1653.91,1827.31
1655.36,1792.21
1656.81,1769.73
1658.27,1769.69
1659.72,1719.15
1661.17,1735.78
1662.62,1674.12
1664.07,1682.31
1665.53,1631.05
1666.98,1627.83
1668.43,1598.63
1669.88,1584.4
1671.33,1544.09
1672.78,1515.48
1674.24,1539.41
1675.69,1540.06
1677.14,1516.66
1678.59,1497.88
1680.04,1456.49
1681.5,1443.73
1682.95,1452.06
1684.4,1444.03
1685.85,1428.97
1687.3,1368.2
1688.75,1398.55
1690.21,1420.5
1691.66,1352.52
1693.11,1351.74
1694.56,1343.69
1696.01,1350.52
1697.46,1323.71
1698.92,1326.55
1700.37,1310.35
1701.82,1297.16
1703.27,1298.17
1704.72,1294.62
1706.18,1274.71
1707.63,1273.45
1709.08,1274.47
1710.53,1276.91
1711.98,1282.87
1713.43,1270.62
1714.89,1286.5
1716.34,1278.69
1717.79,1265.85
1719.24,1266.97
1720.69,1282.87
1722.15,1252.16
1723.6,1252.78
1725.05,1237.11
1726.5,1258.82
1727.95,1280.88
1729.4,1262.48
1730.86,1247.72
1732.31,1244.21
1733.76,1256.3
1735.21,1240.14
1736.66,1217.38
1738.11,1229.18
1739.57,1240.79
1741.02,1226.64
1742.47,1218.95
1743.92,1238.44
1745.37,1219.88
1746.83,1210.51
1748.28,1201.1
1749.73,1193.32
1751.18,1191.57
1752.63,1183.62
1754.08,1161.02
1755.54,1177.87
1756.99,1203.86
1758.44,1190.94
1759.89,1121.25
1761.34,1134.82
1762.8,1136.81
1764.25,1124.37
1765.7,1151.14
1767.15,1145.31
1768.6,1144.82
1770.05,1142.51
1771.51,1123.74
1772.96,1109.89
1774.41,1111.85
1775.86,1119.51
1777.31,1129.63
1778.76,1107.74
1780.22,1089.36
1781.67,1071.65
1783.12,1095.74
1784.57,1081.96
1786.02,1108.69
1787.48,1088
1788.93,1077.12
1790.38,1096.16
1791.83,1088.68
1793.28,1080.8
1794.73,1057.64
1796.19,1039.13
1797.64,1049.06
1799.09,1057.47
1800.54,1050.46
1801.99,1068.77
1803.45,1056.72
1804.9,1038.63
1806.35,1055.25
1807.8,1057.11
1809.25,1052.13
1810.7,1054.67
1812.16,1056.24
1813.61,1045.82
1815.06,1047.35
1816.51,1024.88
1817.96,1034.95
1819.41,1030.13
1820.87,1035.34
1822.32,1042.73
1823.77,1040.98
1825.22,1039.3
1826.67,1042.2
1828.13,1028.64
1829.58,1044.73
1831.03,1050.4
1832.48,1067.61
1833.93,1059.49
1835.38,1051.81
1836.84,1058.22
1838.29,1045.34
1839.74,1039.42
1841.19,1039.91
1842.64,1075.79
1844.1,1064.17
1845.55,1090.28
1847,1117.09
1848.45,1127.32
1849.9,1123.93
1851.35,1118.38
1852.81,1097.5
1854.26,1114.53
1855.71,1116.64
1857.16,1116.79
1858.61,1113.41
1860.07,1116.52
1861.52,1115.04
1862.97,1118.09
1864.42,1128.06
1865.87,1124.77
1867.32,1137.91
1868.78,1118.68
1870.23,1122.75
1871.68,1128.31
1873.13,1115.3
1874.58,1104.08
1876.03,1110.78
1877.49,1116.9
1878.94,1094.11
1880.39,1066.73
1881.84,1055.16
1883.29,1072.61
1884.75,1058.02
1886.2,1068.24
1887.65,1062.72
1889.1,1068.79
1890.55,1080.97
1892,1086.32
1893.46,1051.23
1894.91,1020.72
1896.36,1022.6
1897.81,1050.08
1899.26,1028.23
1900.72,997.607
1902.17,1000.97
1903.62,988.892
1905.07,992.579
1906.52,993.752
1907.97,989.543
1909.43,993.884
1910.88,994.869
1912.33,988.668
1913.78,964.588
1915.23,974.767
1916.68,985.007
1918.14,970.888
1919.59,977.314
1921.04,969.141
1922.49,972.946
1923.94,968.129
1925.4,983.685
1926.85,1004.97
1928.3,968.882
1929.75,986.771
1931.2,992.804
1932.65,987.971
1934.11,958.277
1935.56,970.461
1937.01,950.918
1938.46,955.928
1939.91,966.104
1941.37,981.066
1942.82,1000.71
1944.27,966.825
1945.72,967.558
1947.17,968.241
1948.62,979.05
1950.08,984.52
1951.53,995.65
1952.98,982.887
1954.43,987.9
1955.88,990.551
1957.33,980.707
1958.79,977.146
1960.24,985.022
1961.69,996.418
1963.14,1004.94
1964.59,1007.06
1966.05,1008.08
1967.5,997.563
1968.95,992.308
1970.4,1002.24
1971.85,1008.2
1973.3,1002.42
1974.76,1006.7
1976.21,1020.51
1977.66,1011.74
1979.11,997.688
1980.56,1007.7
1982.02,1003.66
1983.47,1014.76
1984.92,1022.37
1986.37,1054.76
1987.82,1030.39
1989.27,1024.29
1990.73,1040.52
1992.18,1041.23
1993.63,1039.7
1995.08,1047.7
1996.53,1060.28
1997.98,1043.35
1999.44,1034.06
2000.89,1040.24
2002.34,1024.73
2003.79,1036.1
2005.24,1062.47
2006.7,1041.12
2008.15,1046.74
2009.6,994.516
2011.05,1020.44
2012.5,1028.59
2013.95,1001.81
2015.41,989.841
2016.86,1019.28
2018.31,1024.86
2019.76,1019.46
2021.21,1006.58
2022.67,988.323
2024.12,1017.62
2025.57,1001
2027.02,1000.6
2028.47,968.15
2029.92,984.554
2031.38,955.4
2032.83,988.203
2034.28,953.851
2035.73,979.779
2037.18,973.587
2038.63,982.367
2040.09,971.831
2041.54,975.717
2042.99,983.395
2044.44,968.922
2045.89,967.428
2047.35,937.855
2048.8,931.234
2050.25,916.625
2051.7,943.792
2053.15,923.928
2054.6,902.31
2056.06,915.609
2057.51,926.548
2058.96,919.043
2060.41,912.04
2061.86,933.605
2063.32,912.493
2064.77,897.701
2066.22,891.153
2067.67,908.061
2069.12,928.024
2070.57,905.892
2072.03,895.684
2073.48,904.736
2074.93,893.452
2076.38,887.303
2077.83,890.299
2079.28,881.814
2080.74,916.142
2082.19,903.817
2083.64,887.639
2085.09,903.553
2086.54,880.101
2088,864.674
2089.45,872.556
2090.9,893.649
2092.35,881.408
2093.8,868.671
2095.25,864.552
2096.71,870.446
2098.16,892.476
2099.61,899.412
2101.06,902.542
2102.51,924.034
2103.97,914.573
2105.42,884.449
2106.87,880.053
2108.32,900.617
2109.77,886.641
2111.22,881.623
2112.68,881.272
2114.13,867.96
2115.58,878.666
2117.03,908.273
2118.48,910.175
2119.94,901.187
2121.39,920.121
2122.84,923.358
2124.29,912.625
2125.74,914.497
2127.19,914.446
2128.65,899.635
2130.1,902.825
2131.55,900.389
2133,914.762
2134.45,911.717
2135.9,912.901
2137.36,917.005
2138.81,914.327
2140.26,916.592
2141.71,921.518
2143.16,922.671
2144.62,914.713
2146.07,928.119
2147.52,930.612
2148.97,916.761
2150.42,922.877
2151.87,923.097
2153.33,921.354
2154.78,919.721
2156.23,921.568
2157.68,926.565
2159.13,947.592
2160.58,958.529
2162.04,954.107
2163.49,937.098
2164.94,941.973
2166.39,935.753
2167.84,955.505
2169.3,948.123
2170.75,959.244
2172.2,955.932
2173.65,957.637
2175.1,945.876
2176.55,964.476
2178.01,964.765
2179.46,966.038
2180.91,991.988
2182.36,980.254
2183.81,965.8
2185.27,965.674
2186.72,966.617
2188.17,973.493
2189.62,969.835
2191.07,995.426
2192.52,972.998
2193.98,991.789
2195.43,1019.67
2196.88,998.98
2198.33,1014.77
2199.78,974.838
2201.24,985.402
2202.69,980.52
2204.14,994.147
2205.59,998.739
2207.04,1007.17
2208.49,996.176
2209.95,1004.15
2211.4,999.41
2212.85,980.835
2214.3,1009.87
2215.75,1014.23
2217.2,980.822
2218.66,1013.91
2220.11,1017.29
2221.56,1019.19
2223.01,998.058
2224.46,993.744
2225.92,993.925
2227.37,1000.33
2228.82,990.273
2230.27,1023.32
2231.72,1015.31
2233.17,1002.57
2234.63,992.465
2236.08,989.75
2237.53,1026.71
2238.98,1040.18
2240.43,1020.09
2241.89,997.484
2243.34,1021.91
2244.79,1019.5
2246.24,1025.98
2247.69,1052.39
2249.14,1021.45
2250.6,1014.89
2252.05,1017.37
2253.5,1025.76
2254.95,1057.02
2256.4,1056.64
2257.85,1042.89
2259.31,1055.24
2260.76,1060.11
2262.21,1065.43
2263.66,1075.87
2265.11,1057.36
2266.57,1067.14
2268.02,1084.92
2269.47,1085.93
2270.92,1048.18
2272.37,1075.17
2273.82,1071.12
2275.28,1069.95
2276.73,1094.09
2278.18,1089.13
2279.63,1090.48
2281.08,1114.36
2282.54,1120.66
2283.99,1074.74
2285.44,1110.85
2286.89,1126.85
2288.34,1109.99
2289.79,1104.36
2291.25,1095.07
2292.7,1105.82
2294.15,1121.33
2295.6,1099.83
2297.05,1096.83
2298.5,1137.97
2299.96,1166.06
2301.41,1182.18
2302.86,1164.44
2304.31,1166.81
2305.76,1176.57
2307.22,1150.91
2308.67,1154.71
2310.12,1174.29
2311.57,1171.95
2313.02,1162.77
2314.47,1144.33
2315.93,1174.61
2317.38,1182.16
2318.83,1191.51
2320.28,1200.53
2321.73,1201.86
2323.19,1188.64
2324.64,1202.74
2326.09,1205.18
2327.54,1193.4
2328.99,1207.75
2330.44,1222.33
2331.9,1248.59
2333.35,1252.51
2334.8,1248.53
2336.25,1267.17
2337.7,1234.9
2339.16,1225.38
2340.61,1255.55
2342.06,1251.43
2343.51,1236.35
2344.96,1295.25
2346.41,1297.47
2347.87,1302.24
2349.32,1310.16
2350.77,1321.43
2352.22,1279.71
2353.67,1340.93
2355.12,1392.66
2356.58,1353.69
2358.03,1351.79
2359.48,1367.52
2360.93,1354.72
2362.38,1363.11
2363.84,1387.27
2365.29,1449.77
2366.74,1442.72
2368.19,1427.64
2369.64,1428.15
2371.09,1456.05
2372.55,1453.09
2374,1461.1
2375.45,1492.02
2376.9,1507.1
2378.35,1546.61
2379.8,1576.27
2381.26,1574.92
2382.71,1582.86
2384.16,1620.8
2385.61,1658.12
2387.06,1651.2
2388.52,1700.65
2389.97,1717.46
2391.42,1743.59
2392.87,1763.34
2394.32,1813.41
2395.77,1823.01
2397.23,1858.54
2398.68,1931.09
2400.13,1943.25
2401.58,1933.44
2403.03,2012.79
2404.49,2049.36
2405.94,2064.26
2407.39,2104.71
2408.84,2168.94
2410.29,2224.01
2411.74,2194.67
2413.2,2244.53
2414.65,2309.81
2416.1,2333.44
2417.55,2356.08
2419,2384.1
2420.46,2388.61
2421.91,2443.85
2423.36,2437.8
2424.81,2462.74
2426.26,2473.89
2427.71,2474.79
2429.17,2517
2430.62,2498.63
2432.07,2505.79
2433.52,2453.04
2434.97,2475.11
2436.42,2468.49
2437.88,2464.27
2439.33,2421.48
2440.78,2415.46
2442.23,2424.65
2443.68,2434.99
2445.14,2426.38
2446.59,2376.53
2448.04,2348.6
2449.49,2318.87
2450.94,2336.43
2452.39,2319.06
2453.85,2314.68
2455.3,2295.92
2456.75,2268.8
2458.2,2246.2
2459.65,2255.85
2461.1,2236.89
2462.56,2216.76
2464.01,2256.99
2465.46,2197.91
2466.91,2192.63
2468.36,2165.2
2469.82,2170.49
2471.27,2181.07
2472.72,2168.01
2474.17,2117.01
2475.62,2147.71
2477.07,2111.11
2478.53,2110.45
2479.98,2118.78
2481.43,2117.87
2482.88,2125.84
2484.33,2142.94
2485.79,2155.37
2487.24,2138.53
2488.69,2116.94
2490.14,2088.07
2491.59,2081.57
2493.04,2084.02
2494.5,2112.9
2495.95,2115.57
2497.4,2110.54
2498.85,2121.47
2500.3,2135.2
2501.76,2167.72
2503.21,2181.95
2504.66,2180.06
2506.11,2114.72
2507.56,2192.72
2509.01,2180.94
2510.47,2189.83
2511.92,2183.59
2513.37,2178.44
2514.82,2207.33
2516.27,2225.42
2517.72,2220.12
2519.18,2243.93
2520.63,2259.62
2522.08,2291.18
2523.53,2288.67
2524.98,2339.35
2526.44,2370.84
2527.89,2393.25
2529.34,2345.59
2530.79,2377.26
2532.24,2421.94
2533.69,2460.07
2535.15,2500.64
2536.6,2487.05
2538.05,2522.96
2539.5,2544.84
2540.95,2561.21
2542.41,2585.76
2543.86,2637.75
2545.31,2668.67
2546.76,2699.16
2548.21,2729.37
2549.66,2798.21
2551.12,2827.64
2552.57,2850.4
2554.02,2909.09
2555.47,2948.55
2556.92,2973.71
2558.37,2997.28
2559.83,3076.26
2561.28,3164.48
2562.73,3199.24
2564.18,3272.95
2565.63,3367.58
2567.09,3405.62
2568.54,3447.81
2569.99,3502.01
2571.44,3607.59
2572.89,3681.93
2574.34,3743.66
2575.8,3810.21
2577.25,3960.13
2578.7,4036.58
2580.15,4161.8
2581.6,4192.04
2583.06,4363.53
2584.51,4466.54
2585.96,4602.87
2587.41,4682.15
2588.86,4806.69
2590.31,4981.61
2591.77,5161.03
2593.22,5291.25
2594.67,5418.68
2596.12,5625.44
2597.57,5818.26
2599.02,5983.27
2600.48,6212.61
2601.93,6413.88
2603.38,6669.17
2604.83,6894.6
2606.28,7169.93
2607.74,7390.74
2609.19,7652.32
2610.64,8038.92
2612.09,8379.44
2613.54,8682.89
2614.99,8972.52
2616.45,9312.78
2617.9,9704.47
2619.35,10127
2620.8,10533.9
2622.25,10926.9
2623.71,11494.7
2625.16,11955.3
2626.61,12486.1
2628.06,12919.4
2629.51,13380.7
2630.96,13911.9
2632.42,14506.2
2633.87,15078
2635.32,15655.3
2636.77,16116.3
2638.22,16682.9
2639.68,17257.3
2641.13,17869.1
2642.58,18337.8
2644.03,18912.2
2645.48,19407.1
2646.93,19903.7
2648.39,20242.5
2649.84,20635.2
2651.29,20971.1
2652.74,21339.7
2654.19,21603.1
2655.64,21905.1
2657.1,21937.3
2658.55,22012.6
2660,21975
2661.45,21960.5
2662.9,21903.8
2664.36,21689.3
2665.81,21489
2667.26,21277.8
2668.71,20993.6
2670.16,20588.6
2671.61,20296.3
2673.07,19744.7
2674.52,19322
2675.97,18765.1
2677.42,18247.9
2678.87,17665.6
2680.32,17079.8
2681.78,16516.6
2683.23,15946.5
2684.68,15473.9
2686.13,14773.4
2687.58,14229.7
2689.04,13699.9
2690.49,13133.8
2691.94,12580.1
2693.39,12049.9
2694.84,11565
2696.29,11154.5
2697.75,10680.8
2699.2,10175.8
2700.65,9709.45
2702.1,9351.2
2703.55,8911.24
2705.01,8570.06
2706.46,8181.62
2707.91,7783.65
2709.36,7483.66
2710.81,7128.29
2712.26,6902.89
2713.72,6640.81
2715.17,6289.35
2716.62,6053.84
2718.07,5899.58
2719.52,5667.93
2720.98,5424.61
2722.43,5243.62
2723.88,5061.71
2725.33,4865.95
2726.78,4684.74
2728.23,4474.19
2729.69,4479.81
2731.14,4228.78
2732.59,4148.15
2734.04,4038.47
2735.49,3936.61
2736.94,3849.56
2738.4,3745.68
2739.85,3664.14
2741.3,3551.76
2742.75,3509.13
2744.2,3389.54
2745.66,3305.63
2747.11,3230.04
2748.56,3160.16
2750.01,3076.05
2751.46,3029.39
2752.91,2999.34
2754.37,2930.44
2755.82,2889.47
2757.27,2846.13
2758.72,2824.73
2760.17,2693.77
2761.63,2630.23
2763.08,2622.97
2764.53,2640.77
2765.98,2542.9
2767.43,2532.64
2768.88,2469.19
2770.34,2456.01
2771.79,2406.86
2773.24,2368.18
2774.69,2359.88
2776.14,2312.57
2777.59,2289.37
2779.05,2267.96
2780.5,2228.8
2781.95,2193.78
2783.4,2174.66
2784.85,2158.32
2786.31,2119.49
2787.76,2085.09
2789.21,2096.33
2790.66,2100.22
2792.11,2047.67
2793.56,2035.22
2795.02,1998.85
2796.47,2020.84
2797.92,1990.26
2799.37,1947.28
2800.82,1946.89
2802.28,1933.57
2803.73,1914.03
2805.18,1891.63
2806.63,1880.24
2808.08,1898.15
2809.53,1871.95
2810.99,1862.2
2812.44,1875.6
2813.89,1814.18
2815.34,1817.39
2816.79,1774
2818.24,1800.32
2819.7,1791.5
2821.15,1777.5
2822.6,1755.77
2824.05,1744.14
2825.5,1782.95
2826.96,1708.84
2828.41,1698.08
2829.86,1714.31
2831.31,1699.34
2832.76,1701.96
2834.21,1706.48
2835.67,1688.37
2837.12,1668.71
2838.57,1662.29
2840.02,1626.88
2841.47,1667.91
2842.93,1630.16
2844.38,1646.09
2845.83,1633.56
2847.28,1630.58
2848.73,1618.37
2850.18,1630.08
2851.64,1614.64
2853.09,1598.61
2854.54,1617.14
2855.99,1629.48
2857.44,1610.79
2858.9,1605.01
2860.35,1608.97
2861.8,1587.86
2863.25,1615.78
2864.7,1617.53
2866.15,1603.9
2867.61,1611.81
2869.06,1581.34
2870.51,1626.72
2871.96,1639.09
2873.41,1602.72
2874.86,1629.25
2876.32,1586.14
2877.77,1603.11
2879.22,1595.13
2880.67,1586.03
2882.12,1597.68
2883.58,1568.51
2885.03,1591.38
2886.48,1589.26
2887.93,1584.93
2889.38,1608.87
2890.83,1603.58
2892.29,1585.92
2893.74,1616.97
2895.19,1602.25
2896.64,1591.82
2898.09,1592.82
2899.54,1559.48
2901,1606.89
2902.45,1601.38
2903.9,1582.89
2905.35,1617.69
2906.8,1608.34
2908.26,1579.1
2909.71,1593.24
2911.16,1597.67
2912.61,1586
2914.06,1594.42
2915.51,1560.67
2916.97,1578.11
2918.42,1569.47
2919.87,1572.68
2921.32,1562.12
2922.77,1558.26
2924.23,1544.98
2925.68,1516.14
2927.13,1481.42
2928.58,1497.65
2930.03,1469.59
2931.48,1460.57
2932.94,1447.16
2934.39,1439.72
2935.84,1443.3
2937.29,1433.92
2938.74,1425.95
2940.2,1411.45
2941.65,1400.59
2943.1,1366.65
2944.55,1378.47
2946,1389.54
2947.45,1347.56
2948.91,1342.43
2950.36,1309.51
2951.81,1304.16
2953.26,1309.54
2954.71,1291.28
2956.16,1278.28
2957.62,1276.26
2959.07,1279.88
2960.52,1258.24
2961.97,1232.37
2963.42,1226.23
2964.88,1194.46
2966.33,1215.02
2967.78,1239.99
2969.23,1220.89
2970.68,1207.54
2972.13,1228.39
2973.59,1207.66
2975.04,1181.77
2976.49,1167.1
2977.94,1165.43
2979.39,1159.82
2980.84,1171.94
2982.3,1172.76
2983.75,1159.17
2985.2,1155.87
2986.65,1130.93
2988.1,1117.33
2989.56,1110.58
2991.01,1109.65
2992.46,1137.67
2993.91,1085.73
2995.36,1124.9
2996.81,1127.99
2998.27,1137.9
2999.72,1119.89
3001.17,1091.24
3002.62,1115.16
3004.07,1109.22
3005.53,1091.61
3006.98,1111.59
3008.43,1118.86
3009.88,1080.51
3011.33,1085.27
3012.78,1092.95
3014.24,1108.43
3015.69,1081.11
3017.14,1082.52
3018.59,1117.42
3020.04,1076.14
3021.5,1066.61
3022.95,1063.57
3024.4,1090.86
3025.85,1106.64
3027.3,1100.29
3028.75,1083.67
3030.21,1080.75
3031.66,1072.86
3033.11,1058.51
3034.56,1072.16
3036.01,1058.77
3037.46,1057.44
3038.92,1082.73
3040.37,1069.55
3041.82,1075.05
3043.27,1098.62
3044.72,1095.51
3046.18,1083.11
3047.63,1102.98
3049.08,1096.94
3050.53,1137.77
3051.98,1116.98
3053.43,1104.96
3054.89,1084.02
3056.34,1081.85
3057.79,1081.04
3059.24,1078.46
3060.69,1102.22
3062.15,1115.42
3063.6,1105.19
3065.05,1117.78
3066.5,1120.9
3067.95,1133.81
3069.4,1136.61
3070.86,1124.78
3072.31,1145.51
3073.76,1140.42
3075.21,1132.06
3076.66,1129.86
3078.11,1147.34
3079.57,1183.05
3081.02,1193.27
3082.47,1194.36
3083.92,1188.18
3085.37,1225.82
3086.83,1224.22
3088.28,1196.22
3089.73,1229.98
3091.18,1263.11
3092.63,1257.48
3094.08,1270.51
3095.54,1286.22
3096.99,1325.98
3098.44,1313.77
3099.89,1319.99
3101.34,1373.24
3102.8,1363.28
3104.25,1390.8
3105.7,1406.16
3107.15,1441.49
3108.6,1434.13
3110.05,1445.83
3111.51,1471.46
3112.96,1489.44
3114.41,1547.03
3115.86,1594.61
3117.31,1586.7
3118.76,1620.74
3120.22,1635
3121.67,1669.96
3123.12,1692.02
3124.57,1690.86
3126.02,1701.75
3127.48,1716.61
3128.93,1765.18
3130.38,1766.45
3131.83,1785.01
3133.28,1830.66
3134.73,1830.91
3136.19,1830.39
3137.64,1868.02
3139.09,1860.95
3140.54,1812.98
3141.99,1917.93
3143.45,1909.33
3144.9,1902.95
3146.35,1903.99
3147.8,1880.19
3149.25,1903.44
3150.7,1941.73
3152.16,1902.37
3153.61,1928.33
3155.06,1932.47
3156.51,1929.99
3157.96,1928.77
3159.42,1947.37
3160.87,1905.31
3162.32,1933.26
3163.77,1924.72
3165.22,1887.59
3166.67,1914.62
3168.13,1959.19
3169.58,1935.9
3171.03,1927.59
3172.48,1958.59
3173.93,1994.34
3175.38,1976.6
3176.84,2037.84
3178.29,2026.69
3179.74,2055
3181.19,2084.19
3182.64,2083.62
3184.1,2151.09
3185.55,2162.23
3187,2161.79
3188.45,2162.96
3189.9,2193.27
3191.35,2217.52
3192.81,2207.52
3194.26,2255.87
3195.71,2288.39
3197.16,2280.84
3198.61,2339.87
3200.06,2328.59
3201.52,2348.46
3202.97,2316.04
3204.42,2300.47
3205.87,2277.41
3207.32,2272.7
3208.78,2241.88
3210.23,2226.63
3211.68,2174.31
3213.13,2175.15
3214.58,2134.42
3216.03,2083.79
3217.49,2049.02
3218.94,2011.93
3220.39,1974.45
3221.84,1932.51
3223.29,1838.57
3224.75,1792.7
3226.2,1772.99
3227.65,1689.35
3229.1,1684.34
3230.55,1569.92
3232,1559.43
3233.46,1523.1
3234.91,1483.49
3236.36,1481.67
3237.81,1411.58
3239.26,1378.24
3240.72,1311.61
3242.17,1307.77
3243.62,1271.2
3245.07,1260.98
3246.52,1224.37
3247.97,1213.46
3249.43,1144.31
3250.88,1160.94
3252.33,1126.38
3253.78,1111.2
3255.23,1117.5
3256.68,1109.39
3258.14,1119.58
3259.59,1089.36
3261.04,1072.79
3262.49,1027.53
3263.94,1032.77
3265.4,1004.59
3266.85,977.576
3268.3,991.311
3269.75,1029.35
3271.2,996.165
3272.65,1000.48
3274.11,981.39
3275.56,953.412
3277.01,999.757
3278.46,963.18
3279.91,970.268
3281.37,972.74
3282.82,959.333
3284.27,979.627
3285.72,933.756
3287.17,969.208
3288.62,943.146
3290.08,928.409
3291.53,937.842
3292.98,955.69
3294.43,951.123
3295.88,922.143
3297.33,950.347
3298.79,946.216
3300.24,931.954
3301.69,901.01
3303.14,934.132
3304.59,904.514
3306.05,925.157
3307.5,897.164
3308.95,903.302
3310.4,926.655
3311.85,919.667
3313.3,917.16
3314.76,911.031
3316.21,913.86
3317.66,916.601
3319.11,910.292
3320.56,908.586
3322.02,915.228
3323.47,906.216
3324.92,912.422
3326.37,894.705
3327.82,882.778
3329.27,895.91
3330.73,863.081
3332.18,890.891
3333.63,890.54
3335.08,878.219
3336.53,900.942
3337.98,882.015
3339.44,891.069
3340.89,871.504
3342.34,891.194
3343.79,905.653
3345.24,882.279
3346.7,846.516
3348.15,893.001
3349.6,885.3
3351.05,913.923
3352.5,903.168
3353.95,908.57
3355.41,897.344
3356.86,889.376
3358.31,892.013
3359.76,906.591
3361.21,901.08
3362.67,886.396
3364.12,918.082
3365.57,897.891
3367.02,882.742
3368.47,882.394
3369.92,895.314
3371.38,918.475
3372.83,876.863
3374.28,903.205
3375.73,915.865
3377.18,885.847
3378.63,867.522
3380.09,907.061
3381.54,898.121
3382.99,895.326
3384.44,891.495
3385.89,909.031
3387.35,881.068
3388.8,868.718
3390.25,888.697
3391.7,901.173
3393.15,910.658
3394.6,869.903
3396.06,881.959
3397.51,876.246
3398.96,882.121
3400.41,862.826
3401.86,891.727
3403.32,876.132
3404.77,893.609
3406.22,879.663
3407.67,875.298
3409.12,908.497
3410.57,915.666
3412.03,876.069
3413.48,882.53
3414.93,890.933
3416.38,881.118
3417.83,888.742
3419.28,865.941
3420.74,880.782
3422.19,860.144
3423.64,851.683
3425.09,871.947
3426.54,875.393
3428,862.466
3429.45,849.633
3430.9,879.927
3432.35,901.831
3433.8,886.853
3435.25,862.955
3436.71,842.263
3438.16,867.759
3439.61,865.962
3441.06,876.803
3442.51,880.421
3443.97,867.575
3445.42,875.022
3446.87,879.915
3448.32,883.788
3449.77,865.659
3451.22,852.511
3452.68,856.515
3454.13,866.253
3455.58,860.441
3457.03,843.812
3458.48,842.095
3459.94,849.219
3461.39,880.283
3462.84,878.258
3464.29,876.224
3465.74,884.897
3467.19,863.769
3468.65,868.248
3470.1,854.317
3471.55,880.351
3473,869.92
3474.45,859.53
3475.9,872.208
3477.36,849.171
3478.81,876.325
3480.26,875.735
3481.71,902.645
3483.16,855.131
3484.62,847.242
3486.07,906.867
3487.52,888.537
3488.97,861.089
3490.42,874.837
3491.87,876.451
3493.33,877.674
3494.78,852.02
3496.23,883.789
3497.68,866.534
3499.13,878.415
3500.58,882.225
3502.04,863.354
3503.49,880.88
3504.94,843.01
3506.39,879.388
3507.84,860.72
3509.3,879.301
3510.75,878.754
3512.2,876.374
3513.65,893.321
3515.1,864.938
3516.55,879.342
3518.01,871.321
3519.46,888.675
3520.91,866.766
3522.36,892.485
3523.81,887.052
3525.27,879.992
3526.72,899.066
3528.17,878.911
3529.62,878.307
3531.07,870.532
3532.52,866.93
3533.98,853.848
3535.43,870.73
3536.88,867.285
3538.33,861.882
3539.78,877.046
3541.24,894.396
3542.69,863.055
3544.14,891.654
3545.59,860.983
3547.04,864.64
3548.49,887.499
3549.95,867.461
3551.4,860.655
3552.85,892.578
3554.3,892.384
3555.75,872.896
3557.2,856.116
3558.66,867.769
3560.11,878.421
3561.56,870.825
3563.01,853.358
3564.46,902.792
3565.92,869.439
3567.37,870.025
3568.82,885.749
3570.27,873.222
3571.72,903.281
3573.17,895.508
3574.63,878.402
3576.08,880.277
3577.53,847.851
3578.98,891.708
3580.43,885.206
3581.89,877.251
3583.34,880.279
3584.79,893.093
3586.24,877.738
3587.69,862.204
3589.14,869.582
3590.6,872.657
3592.05,863.612
3593.5,903.587
3594.95,876.989
3596.4,852.69
3597.85,875.452
3599.31,901.062
3600.76,865.927
3602.21,871.119
3603.66,865.428
3605.11,887.192
3606.57,844.368
3608.02,885.135
3609.47,877.974
3610.92,898.265
3612.37,875.464
3613.82,860.657
3615.28,872.603
3616.73,880.986
3618.18,872.315
3619.63,881.313
3621.08,878.127
3622.54,884.035
3623.99,885.068
3625.44,882.325
3626.89,882.087
3628.34,874.561
3629.79,874.589
3631.25,895.011
3632.7,884.461
3634.15,907.207
3635.6,884.602
3637.05,895.94
3638.5,899.968
3639.96,879.883
3641.41,882.505
3642.86,912.05
3644.31,892.423
3645.76,887.971
3647.22,903.601
3648.67,902.348
3650.12,906.664
3651.57,905.802
3653.02,901.918
3654.47,899.016
3655.93,896.793
3657.38,924.155
3658.83,920.512
3660.28,887.612
3661.73,873.705
3663.19,890.11
3664.64,882.114
3666.09,890.767
3667.54,884.994
3668.99,903.176
3670.44,896.131
3671.9,934.474
3673.35,891.94
3674.8,908.282
3676.25,921.357
3677.7,903.629
3679.16,913.855
3680.61,890.13
3682.06,897.015
3683.51,887.607
3684.96,932.443
3686.41,881.769
3687.87,893.893
3689.32,879.276
3690.77,910.196
3692.22,883.303
3693.67,881.917
3695.12,905.222
3696.58,903.335
3698.03,898.716
3699.48,926.61
3700.93,915.539
3702.38,911.345
3703.84,935.025
3705.29,897.392
3706.74,915.38
3708.19,923.76
3709.64,898.19
3711.09,899.163
3712.55,924.257
3714,906.404
3715.45,900.947
3716.9,919.102
3718.35,965.338
3719.8,910.89
3721.26,904.123
3722.71,904.487
3724.16,919.472
3725.61,899.456
3727.06,898.446
3728.52,935.972
3729.97,927.713
3731.42,948.117
3732.87,917.404
3734.32,890.504
3735.77,919.28
3737.23,936.846
3738.68,924.925
3740.13,926.246
3741.58,877.807
3743.03,960.461
3744.49,947.894
3745.94,920.506
3747.39,936.607
3748.84,932.514
3750.29,928.211
3751.74,922.879
3753.2,923.918
3754.65,923.768
3756.1,935.117
3757.55,924.183
3759,938.805
3760.46,905.55
3761.91,934.996
3763.36,952.416
3764.81,922.229
3766.26,933.521
3767.71,936.686
3769.17,931.915
3770.62,936.048
3772.07,934.428
3773.52,919.606
3774.97,919.545
3776.42,947.695
3777.88,926.761
3779.33,952.014
3780.78,959.466
3782.23,957.82
3783.68,965.405
3785.14,937.165
3786.59,950.374
3788.04,932.683
3789.49,938.248
3790.94,930.925
3792.39,934.281
3793.85,961.013
3795.3,965.096
3796.75,966.434
3798.2,973.043
3799.65,975.994
3801.1,957.129
3802.56,952.149
3804.01,977.742
3805.46,961.385
3806.91,972.574
3808.36,933.252
3809.82,958.613
3811.27,955.854
3812.72,940.868
3814.17,956.833
3815.62,964.315
3817.07,959.641
3818.53,954.864
3819.98,984.814
3821.43,979.79
3822.88,958.432
3824.33,981.739
3825.79,984.883
3827.24,963.688
3828.69,991.539
3830.14,962.642
3831.59,989.504
3833.04,956.366
3834.5,959.289
3835.95,968.481
3837.4,993.478
3838.85,956.51
3840.3,979.478
3841.76,999.496
3843.21,981.626
3844.66,959.208
3846.11,977.503
3847.56,974.29
3849.01,1022.67
3850.47,987.269
3851.92,996.698
3853.37,985.713
3854.82,1004.52
3856.27,987.558
3857.72,998.689
3859.18,1002.92
3860.63,1033.48
3862.08,1014.58
3863.53,1009.24
3864.98,991.964
3866.44,1009.91
3867.89,989.32
3869.34,1029.04
3870.79,1023.12
3872.24,1024.47
3873.69,1009.08
3875.15,993.455
3876.6,1022.01
3878.05,1022.71
3879.5,1010.97
3880.95,1014.52
3882.41,1003.28
3883.86,1031.78
3885.31,1019.34
3886.76,1011.75
3888.21,1029.21
3889.66,1037.69
3891.12,1035.23
3892.57,1014.03
3894.02,1052.62
3895.47,1037.62
3896.92,1049.53
3898.37,1051.59
3899.83,1028.9
3901.28,1062.8
3902.73,1049.43
3904.18,1066.14
3905.63,1048.25
3907.09,1048.51
3908.54,1032.27
3909.99,1050.31
3911.44,1050.22
3912.89,1066.67
3914.34,1061.34
3915.8,1041.77
3917.25,1071.15
3918.7,1094.03
3920.15,1111.73
3921.6,1070.93
3923.06,1099.43
3924.51,1112.68
3925.96,1096.12
3927.41,1083.16
3928.86,1103.35
3930.31,1091.63
3931.77,1103.95
3933.22,1100.86
3934.67,1101.44
3936.12,1089.65
3937.57,1106.29
3939.02,1093.12
3940.48,1114.85
3941.93,1129.96
3943.38,1131.22
3944.83,1142.37
3946.28,1132.39
3947.74,1140.77
3949.19,1148.29
3950.64,1160.77
3952.09,1170.71
3953.54,1185.1
3954.99,1144.44
3956.45,1175.14
3957.9,1158.6
3959.35,1181.39
3960.8,1163.4
3962.25,1183.87
3963.71,1197.99
3965.16,1173.86
3966.61,1172.88
3968.06,1193.49
3969.51,1175.08
3970.96,1234.88
3972.42,1196.73
3973.87,1200.54
3975.32,1222.16
3976.77,1219.6
3978.22,1225.97
3979.68,1222.67
3981.13,1182.04
3982.58,1221.71
3984.03,1215.77
3985.48,1245.12
3986.93,1211.72
3988.39,1222.02
3989.84,1258.16
3991.29,1256.05
3992.74,1292.71
3994.19,1257.02
3995.64,1260.01
3997.1,1278.4
3998.55,1248.34
4000,1255.96
