-20,47.2483
-18.5482,51.2279
-17.0964,52.5179
-15.6446,57.5214
-14.1928,56.7532
-12.7411,60.678
-11.2893,66.5607
-9.83749,66.5042
-8.3857,74.0745
-6.93391,84.4729
-5.48212,286.403
-4.03034,83.4321
-2.57855,87.2855
-1.12676,126.162
0.325027,324.445
1.77681,614.649
3.2286,636.378
4.68039,408.164
6.13218,129.432
7.58397,233.029
9.03575,71.0752
10.4875,61.4107
11.9393,54.139
13.3911,51.6319
14.8429,49.062
16.2947,46.5001
17.7465,43.0416
19.1983,47.2423
20.6501,43.6656
22.1018,37.5402
23.5536,38.1339
25.0054,36.6712
26.4572,38.5496
27.909,36.661
29.3608,32.2042
30.8126,32.3378
32.2644,37.2609
33.7161,36.4747
35.1679,34.1167
36.6197,32.8523
38.0715,35.7345
39.5233,35.9623
40.9751,37.0963
42.4269,37.6139
43.8787,36.2883
45.3304,49.7725
46.7822,54.4661
48.234,77.6451
49.6858,125.138
51.1376,192.027
52.5894,358.809
54.0412,566.549
55.493,819.107
56.9447,1119.26
58.3965,1455.33
59.8483,1742.57
61.3001,1952.45
62.7519,2128.51
64.2037,2313.36
65.6555,2370
67.1073,2443.58
68.559,2499.15
70.0108,2521.26
71.4626,2539.83
72.9144,2582.73
74.3662,2638.87
75.818,2688.61
77.2698,2748.06
78.7216,2865.16
80.1733,2936.21
81.6251,3000.16
83.0769,3045.77
84.5287,3130.3
85.9805,3195.13
87.4323,3183.93
88.8841,3089.69
90.3359,2925.89
91.7877,2769.66
93.2394,2634.78
94.6912,2473.17
96.143,2356.3
97.5948,2248.13
99.0466,2109.04
100.498,2039.23
101.95,1991.92
103.402,1950.14
104.854,1919.19
106.306,1863.5
107.757,1805.9
109.209,1780.23
110.661,1770.57
112.113,1750.02
113.564,1718.93
115.016,1701.73
116.468,1698.97
117.92,1684.42
119.372,1663.18
120.823,1593.88
122.275,1583.37
123.727,1559.43
125.179,1533.49
126.631,1505.79
128.082,1496.59
129.534,1445.32
130.986,1393.46
132.438,1349.85
133.889,1324.7
135.341,1323.95
136.793,1279.91
138.245,1241.51
139.697,1226.66
141.148,1251.79
142.6,1196.85
144.052,1176.46
145.504,1160.62
146.956,1135.37
148.407,1137.26
149.859,1120.62
151.311,1104.63
152.763,1088.33
154.215,1069.68
155.666,1087.65
157.118,1077.48
158.57,1064.35
160.022,1048.69
161.473,1032.89
162.925,1020.9
164.377,1011.05
165.829,994.458
167.281,1002.58
168.732,1021.51
170.184,1006.94
171.636,984.902
173.088,970.52
174.54,968.61
175.991,965.458
177.443,975.007
178.895,983.58
180.347,976.195
181.798,951.901
183.25,931.549
184.702,922.292
186.154,940.033
187.606,937.233
189.057,920.243
190.509,912.97
191.961,876.095
193.413,899.581
194.865,909.795
196.316,906.092
197.768,894.652
199.22,888.406
200.672,900.806
202.124,905
203.575,896.876
205.027,873.438
206.479,866.351
207.931,876.393
209.382,871.391
210.834,871.219
212.286,878.745
213.738,885.727
215.19,872.26
216.641,874.343
218.093,886.296
219.545,894.623
220.997,874.868
222.449,872.603
223.9,888.386
225.352,888.502
226.804,865.444
228.256,870.709
229.707,877.548
231.159,887.191
232.611,877.404
234.063,867.859
235.515,883.163
236.966,866.928
238.418,863.694
239.87,871.702
241.322,872.74
242.774,860.779
244.225,858.114
245.677,856.324
247.129,840.471
248.581,826.474
250.033,841.482
251.484,840.454
252.936,834.251
254.388,837.143
255.84,849.595
257.291,846.501
258.743,836.612
260.195,827.662
261.647,822.2
263.099,807.954
264.55,795.351
266.002,809.944
267.454,817.682
268.906,817.999
270.358,810.706
271.809,798.536
273.261,822.571
274.713,794.039
276.165,792.542
277.616,790.758
279.068,785.556
280.52,771.824
281.972,762.287
283.424,752.872
284.875,744.236
286.327,743.859
287.779,749.591
289.231,759.113
290.683,754.202
292.134,742.221
293.586,732.851
295.038,738.286
296.49,757.603
297.941,720.667
299.393,709.167
300.845,708.547
302.297,688.157
303.749,695.434
305.2,708.644
306.652,689.57
308.104,673.663
309.556,680.008
311.008,679.787
312.459,666.372
313.911,638.854
315.363,642.059
316.815,666.614
318.267,656.231
319.718,636.104
321.17,644.899
322.622,654.472
324.074,652.077
325.525,647.153
326.977,634.45
328.429,631.714
329.881,649.795
331.333,664.017
332.784,658.872
334.236,650.401
335.688,632.885
337.14,629.068
338.592,632.254
340.043,630.806
341.495,606.062
342.947,619.41
344.399,630.813
345.85,627.571
347.302,622.06
348.754,637.639
350.206,614.962
351.658,621.466
353.109,616.598
354.561,606.273
356.013,606.519
357.465,617.5
358.917,615.884
360.368,594.117
361.82,588.944
363.272,604.397
364.724,584.895
366.176,585.614
367.627,586.617
369.079,587.484
370.531,589.652
371.983,595.607
373.434,598.036
374.886,584.913
376.338,591.84
377.79,602.613
379.242,601.23
380.693,591.508
382.145,589.907
383.597,595.929
385.049,581.845
386.501,567.447
387.952,586.836
389.404,563.954
390.856,571.084
392.308,579.732
393.759,580.882
395.211,571.766
396.663,575.212
398.115,588.086
399.567,579.415
401.018,573.212
402.47,576.867
403.922,588.488
405.374,573.227
406.826,576.517
408.277,572.634
409.729,568.067
411.181,581.56
412.633,597.52
414.085,601.782
415.536,582.667
416.988,568.046
418.44,574.452
419.892,585.01
421.343,565.693
422.795,567.815
424.247,582.127
425.699,579.401
427.151,554.508
428.602,563.692
430.054,563.27
431.506,562.265
432.958,575.742
434.41,579.178
435.861,560.566
437.313,558.784
438.765,577.433
440.217,572.7
441.668,563.349
443.12,564.229
444.572,565.078
446.024,559.775
447.476,569.215
448.927,571.765
450.379,562.525
451.831,551.358
453.283,562.99
454.735,565.561
456.186,555.857
457.638,558.895
459.09,566.028
460.542,549.236
461.993,572.769
463.445,566.136
464.897,559.538
466.349,565.305
467.801,572.801
469.252,558.654
470.704,565.314
472.156,565.657
473.608,557.605
475.06,559.737
476.511,570.299
477.963,563.983
479.415,563.372
480.867,548.814
482.319,545.874
483.77,553.813
485.222,548.952
486.674,535.632
488.126,557.416
489.577,568.398
491.029,558.435
492.481,551.962
493.933,557.615
495.385,567.191
496.836,559.815
498.288,536.482
499.74,526.937
501.192,540.219
502.644,558.106
504.095,542.099
505.547,531.154
506.999,524.496
508.451,525.06
509.902,546.573
511.354,541.237
512.806,546.616
514.258,546.528
515.71,539.767
517.161,535.719
518.613,546.36
520.065,560.843
521.517,523.804
522.969,526.918
524.42,545.274
525.872,548.589
527.324,536.371
528.776,542.114
530.228,524.54
531.679,522.953
533.131,534.664
534.583,543.714
536.035,532.017
537.486,543.047
538.938,548.432
540.39,539.036
541.842,532.027
543.294,530.233
544.745,525.669
546.197,538.333
547.649,541.615
549.101,538.732
550.553,543.57
552.004,546.939
553.456,526.912
554.908,535.174
556.36,533.604
557.811,526.011
559.263,519.895
560.715,521.865
562.167,531.154
563.619,524.94
565.07,529.251
566.522,529.495
567.974,531.99
569.426,524.041
570.878,506.981
572.329,527.311
573.781,501.35
575.233,508.393
576.685,517.404
578.137,517.02
579.588,518.402
581.04,516.067
582.492,523.011
583.944,529.733
585.395,514.818
586.847,501.233
588.299,520.029
589.751,500.964
591.203,511.457
592.654,521.234
594.106,516.051
595.558,503.355
597.01,495.601
598.462,504.184
599.913,495.678
601.365,503.346
602.817,501.871
604.269,509.624
605.72,520.487
607.172,518.961
608.624,532.231
610.076,537.165
611.528,533.662
612.979,525.388
614.431,511.88
615.883,519.291
617.335,504.314
618.787,522.816
620.238,525.808
621.69,515.84
623.142,515.272
624.594,521.762
626.046,504.711
627.497,500.914
628.949,517.205
630.401,522.519
631.853,516.77
633.304,510.367
634.756,508.476
636.208,518.87
637.66,518.519
639.112,526.008
640.563,537.054
642.015,545.146
643.467,526.45
644.919,532.386
646.371,524.622
647.822,519.105
649.274,521.556
650.726,517.133
652.178,509.8
653.629,544.604
655.081,543.317
656.533,551.406
657.985,541.787
659.437,521.776
660.888,534.424
662.34,539.62
663.792,538.77
665.244,541.131
666.696,538.809
668.147,532.66
669.599,519.996
671.051,512.634
672.503,525.47
673.954,531.424
675.406,542.477
676.858,546.742
678.31,537.587
679.762,553.872
681.213,538.336
682.665,539.179
684.117,555.477
685.569,553.498
687.021,540.531
688.472,533.218
689.924,538.761
691.376,526.819
692.828,552.033
694.28,560.969
695.731,542.323
697.183,517.305
698.635,511.761
700.087,536.536
701.538,542.286
702.99,538.346
704.442,540.403
705.894,540.436
707.346,560.374
708.797,552.126
710.249,534.214
711.701,540.211
713.153,544.553
714.605,550.398
716.056,551.353
717.508,552.941
718.96,542.945
720.412,543.377
721.863,550.228
723.315,553.232
724.767,546.591
726.219,528.368
727.671,556.7
729.122,559.424
730.574,565.056
732.026,562.865
733.478,550.69
734.93,544.253
736.381,538.675
737.833,540.07
739.285,551.472
740.737,536.077
742.189,531.108
743.64,535.224
745.092,539.841
746.544,533.531
747.996,549.054
749.447,546.506
750.899,548.612
752.351,556.468
753.803,561.956
755.255,554.366
756.706,549.232
758.158,564.039
759.61,547.289
761.062,542.441
762.514,549.405
763.965,543.169
765.417,540.646
766.869,547.1
768.321,564.695
769.772,541.94
771.224,543.359
772.676,550.972
774.128,543.276
775.58,526.953
777.031,560.892
778.483,550.111
779.935,526.933
781.387,536.921
782.839,551.916
784.29,563.714
785.742,552.539
787.194,551.362
788.646,540.243
790.098,545.958
791.549,551.74
793.001,551.651
794.453,557.567
795.905,558.119
797.356,566.015
798.808,539.969
800.26,542.724
801.712,568.416
803.164,582.903
804.615,566.27
806.067,559.63
807.519,535.809
808.971,551.609
810.423,558.781
811.874,555.2
813.326,566.861
814.778,578.595
816.23,549.466
817.681,568.647
819.133,577.671
820.585,583.616
822.037,568.29
823.489,555.341
824.94,582.321
826.392,556.804
827.844,549.885
829.296,559.517
830.748,574.815
832.199,572.805
833.651,558.079
835.103,572.487
836.555,590.737
838.007,579.568
839.458,588.121
840.91,593.519
842.362,601.131
843.814,609.437
845.265,589.677
846.717,568.182
848.169,560.275
849.621,579.866
851.073,576.913
852.524,587.472
853.976,609.191
855.428,629.464
856.88,610.687
858.332,570.076
859.783,591.307
861.235,588.627
862.687,596.23
864.139,593.006
865.59,588.955
867.042,575.977
868.494,586.203
869.946,597.722
871.398,575.637
872.849,591.784
874.301,588.07
875.753,563.089
877.205,588.092
878.657,583.077
880.108,570.837
881.56,573.423
883.012,576.742
884.464,573.516
885.915,580.005
887.367,595.391
888.819,601.009
890.271,596.523
891.723,594.771
893.174,587.11
894.626,596.475
896.078,611.812
897.53,597.219
898.982,588.572
900.433,590.623
901.885,590.74
903.337,584.916
904.789,581.781
906.241,593.968
907.692,625.253
909.144,613.773
910.596,606.381
912.048,625.077
913.499,610.963
914.951,625.79
916.403,633.337
917.855,632.233
919.307,621.182
920.758,595.659
922.21,628.5
923.662,619.79
925.114,614.906
926.566,614.53
928.017,616.804
929.469,620.265
930.921,642.098
932.373,602.917
933.824,639.275
935.276,626.288
936.728,627.936
938.18,626.369
939.632,619.534
941.083,617.434
942.535,617.873
943.987,615.92
945.439,628.836
946.891,620.772
948.342,632.005
949.794,632.033
951.246,624.675
952.698,634.15
954.15,637.035
955.601,643.901
957.053,649.553
958.505,645.146
959.957,630.614
961.408,620.725
962.86,627.137
964.312,625.293
965.764,637.318
967.216,603.798
968.667,616.505
970.119,625.064
971.571,623.021
973.023,626.951
974.475,626.177
975.926,622.818
977.378,659.939
978.83,659.07
980.282,658.234
981.733,653.522
983.185,649.715
984.637,638.055
986.089,617.103
987.541,621.045
988.992,658.154
990.444,685.49
991.896,675.104
993.348,661.395
994.8,660.123
996.251,678.131
997.703,686.176
999.155,654.493
1000.61,663.311
1002.06,682.185
1003.51,665.099
1004.96,682.422
1006.41,694.627
1007.87,684.489
1009.32,677.816
1010.77,684.274
1012.22,700.604
1013.67,705.595
1015.12,708.647
1016.58,721.401
1018.03,712.549
1019.48,709.733
1020.93,721.625
1022.38,717.021
1023.84,705.859
1025.29,739.481
1026.74,745.064
1028.19,743.683
1029.64,743.344
1031.09,740.685
1032.55,720.855
1034,745.121
1035.45,778.202
1036.9,801.127
1038.35,797.618
1039.8,800.532
1041.26,801.738
1042.71,805.048
1044.16,796.998
1045.61,821.15
1047.06,816.73
1048.52,813.585
1049.97,820.971
1051.42,861.504
1052.87,856.168
1054.32,843.87
1055.77,854.034
1057.23,878.588
1058.68,868.377
1060.13,867.237
1061.58,885.692
1063.03,884.866
1064.49,903.944
1065.94,925.865
1067.39,920.707
1068.84,913.327
1070.29,932.534
1071.74,937.069
1073.2,962.199
1074.65,985.091
1076.1,981.385
1077.55,977.941
1079,976.894
1080.46,965.584
1081.91,989.897
1083.36,1006.04
1084.81,991.607
1086.26,978.788
1087.71,979.17
1089.17,994.492
1090.62,1003.92
1092.07,986.635
1093.52,980.118
1094.97,1001.65
1096.42,999.032
1097.88,983.238
1099.33,995.878
1100.78,983.746
1102.23,969.513
1103.68,957.985
1105.14,949.433
1106.59,954.949
1108.04,941.585
1109.49,925.296
1110.94,941.607
1112.39,916.48
1113.85,938.876
1115.3,936.841
1116.75,919.192
1118.2,916.141
1119.65,921.986
1121.11,915.905
1122.56,899.473
1124.01,900.139
1125.46,902.385
1126.91,890.335
1128.36,893.535
1129.82,912.479
1131.27,908.423
1132.72,891.106
1134.17,878.076
1135.62,881.616
1137.07,885.685
1138.53,870.966
1139.98,866.755
1141.43,885.504
1142.88,869.985
1144.33,863.048
1145.79,868.588
1147.24,845.264
1148.69,862.287
1150.14,861.979
1151.59,817.969
1153.04,822.121
1154.5,846.808
1155.95,851.842
1157.4,850.053
1158.85,852.938
1160.3,838.534
1161.76,824.383
1163.21,840.314
1164.66,877.221
1166.11,859.821
1167.56,877.55
1169.01,864.349
1170.47,841.7
1171.92,856.499
1173.37,860.544
1174.82,852.946
1176.27,879.857
1177.72,878.227
1179.18,860.825
1180.63,868.681
1182.08,871.507
1183.53,869.586
1184.98,869.707
1186.44,869.869
1187.89,859.599
1189.34,863.7
1190.79,870.024
1192.24,871.461
1193.69,884.616
1195.15,872.949
1196.6,876.247
1198.05,888.642
1199.5,877.135
1200.95,865.955
1202.41,893.436
1203.86,858.218
1205.31,878.777
1206.76,879.683
1208.21,895.895
1209.66,903.721
1211.12,914.796
1212.57,915.379
1214.02,907.228
1215.47,902.281
1216.92,901.6
1218.37,887.157
1219.83,899.6
1221.28,910.204
1222.73,904.83
1224.18,908.312
1225.63,903.071
1227.09,895.357
1228.54,905.439
1229.99,917.43
1231.44,910.602
1232.89,891.055
1234.34,880.53
1235.8,901.861
1237.25,911.092
1238.7,921.249
1240.15,909.051
1241.6,914.851
1243.06,942.447
1244.51,931.776
1245.96,926.871
1247.41,919.096
1248.86,938.801
1250.31,967.818
1251.77,970.693
1253.22,954.449
1254.67,958.232
1256.12,970.131
1257.57,974.493
1259.02,983.273
1260.48,1003.58
1261.93,1031.49
1263.38,996.392
1264.83,1031.43
1266.28,1024.04
1267.74,1035.14
1269.19,1046.49
1270.64,1058.27
1272.09,1066.17
1273.54,1057.78
1274.99,1072.88
1276.45,1084.97
1277.9,1122.83
1279.35,1128.97
1280.8,1133.15
1282.25,1178.9
1283.71,1191.27
1285.16,1189.58
1286.61,1233.31
1288.06,1289.3
1289.51,1285.82
1290.96,1308.49
1292.42,1330.16
1293.87,1374.21
1295.32,1358.68
1296.77,1412.05
1298.22,1445.4
1299.67,1488.27
1301.13,1528.66
1302.58,1584.48
1304.03,1628.93
1305.48,1657.92
1306.93,1728.86
1308.39,1772.41
1309.84,1844.9
1311.29,1913.2
1312.74,2015.95
1314.19,2087.4
1315.64,2171.78
1317.1,2261.71
1318.55,2332.86
1320,2422.5
1321.45,2542.91
1322.9,2617.73
1324.36,2643.85
1325.81,2785.64
1327.26,2873.38
1328.71,2914.33
1330.16,2991.7
1331.61,3018.49
1333.07,3056.9
1334.52,3108.64
1335.97,3066.53
1337.42,3026.78
1338.87,2992.38
1340.33,2921.25
1341.78,2831.38
1343.23,2806.33
1344.68,2752.92
1346.13,2656.32
1347.58,2570.63
1349.04,2490.85
1350.49,2381.16
1351.94,2260.54
1353.39,2187.74
1354.84,2166.61
1356.29,2079.83
1357.75,1963.93
1359.2,1922.13
1360.65,1866.38
1362.1,1802.28
1363.55,1739.08
1365.01,1676.74
1366.46,1618.54
1367.91,1575.1
1369.36,1541.91
1370.81,1485.49
1372.26,1475.79
1373.72,1484.76
1375.17,1443.58
1376.62,1428.17
1378.07,1416.73
1379.52,1396.73
1380.98,1347.62
1382.43,1322.01
1383.88,1315.99
1385.33,1307.78
1386.78,1296.25
1388.23,1297.35
1389.69,1255.42
1391.14,1252.38
1392.59,1252.65
1394.04,1256.25
1395.49,1256.36
1396.94,1267.26
1398.4,1256.46
1399.85,1264.08
1401.3,1272.8
1402.75,1256.11
1404.2,1258.08
1405.66,1242.62
1407.11,1252.67
1408.56,1267.34
1410.01,1249.23
1411.46,1249.36
1412.91,1257.41
1414.37,1267.2
1415.82,1251.79
1417.27,1265.86
1418.72,1275.05
1420.17,1248.88
1421.63,1260.8
1423.08,1287.81
1424.53,1277.67
1425.98,1290.39
1427.43,1307.48
1428.88,1308.12
1430.34,1321.07
1431.79,1338.8
1433.24,1336.23
1434.69,1329.04
1436.14,1348.23
1437.59,1376.38
1439.05,1364.87
1440.5,1372.5
1441.95,1389.32
1443.4,1400.03
1444.85,1391.94
1446.31,1422.48
1447.76,1394.89
1449.21,1453.2
1450.66,1468.72
1452.11,1470.37
1453.56,1496.6
1455.02,1528.64
1456.47,1520.65
1457.92,1497.08
1459.37,1527.35
1460.82,1549.88
1462.28,1612.01
1463.73,1589.51
1465.18,1659.81
1466.63,1643.38
1468.08,1634.92
1469.53,1683.82
1470.99,1702.19
1472.44,1727.53
1473.89,1755.64
1475.34,1772.34
1476.79,1807.55
1478.24,1831.73
1479.7,1841.22
1481.15,1875.6
1482.6,1900.21
1484.05,1956.99
1485.5,2001.95
1486.96,2034.63
1488.41,2057.27
1489.86,2111.7
1491.31,2152.84
1492.76,2173.06
1494.21,2228.72
1495.67,2290.52
1497.12,2352.62
1498.57,2424.76
1500.02,2489.19
1501.47,2573.76
1502.93,2608.78
1504.38,2700.49
1505.83,2761.43
1507.28,2889.43
1508.73,2975.99
1510.18,3102
1511.64,3199.14
1513.09,3312.43
1514.54,3431.55
1515.99,3588.85
1517.44,3783.41
1518.89,3931.5
1520.35,4117.12
1521.8,4313.44
1523.25,4583.33
1524.7,4884.7
1526.15,5207.66
1527.61,5477.51
1529.06,5889.43
1530.51,6349.49
1531.96,6878.85
1533.41,7427.71
1534.86,8057.41
1536.32,8775.78
1537.77,9512.51
1539.22,10398.5
1540.67,11359.4
1542.12,12383.1
1543.58,13609.8
1545.03,14772
1546.48,16119.8
1547.93,17594.3
1549.38,19017.1
1550.83,20510
1552.29,22152.9
1553.74,23641
1555.19,25125.3
1556.64,26594.9
1558.09,27936.2
1559.54,29012.3
1561,29815.9
1562.45,30469.5
1563.9,30649
1565.35,30733.7
1566.8,30197
1568.26,29254.3
1569.71,28324.4
1571.16,27063.6
1572.61,25416.4
1574.06,23735
1575.51,21960.8
1576.97,20224.2
1578.42,18572.6
1579.87,16947.6
1581.32,15489.2
1582.77,14095
1584.23,12841.8
1585.68,11748
1587.13,10719.3
1588.58,9801.98
1590.03,9156.24
1591.48,8474.52
1592.94,7839.4
1594.39,7349.15
1595.84,6905.71
1597.29,6536.15
1598.74,6221.2
1600.2,5935.14
1601.65,5627.48
1603.1,5356.21
1604.55,5113.08
1606,4872.63
1607.45,4657.67
1608.91,4440.62
1610.36,4207.63
1611.81,3973.15
1613.26,3795.64
1614.71,3542.24
1616.16,3417.13
1617.62,3292.82
1619.07,3161.47
1620.52,3039.16
1621.97,2915.98
1623.42,2795.25
1624.88,2681.55
1626.33,2616.61
1627.78,2543.01
1629.23,2456.14
1630.68,2388.05
1632.13,2298.23
1633.59,2245.44
1635.04,2189.03
1636.49,2150.58
1637.94,2114.52
1639.39,2031.1
1640.85,2024.42
1642.3,1988.45
1643.75,1975.58
1645.2,1904.93
1646.65,1870.42
1648.1,1833.85
1649.56,1785.49
1651.01,1738.23
1652.46,1717.24
1653.91,1719.66
1655.36,1689.81
1656.81,1667.83
1658.27,1659.94
1659.72,1637.08
1661.17,1595.69
1662.62,1530.76
1664.07,1533.88
1665.53,1502.2
1666.98,1469.84
1668.43,1479.41
1669.88,1461.37
1671.33,1411.61
1672.78,1412.91
1674.24,1431.24
1675.69,1385.43
1677.14,1359.55
1678.59,1359.81
1680.04,1353.83
1681.5,1325.63
1682.95,1314.78
1684.4,1333.3
1685.85,1304.65
1687.3,1313.36
1688.75,1302.65
1690.21,1290.83
1691.66,1314.24
1693.11,1281.44
1694.56,1262.54
1696.01,1265.66
1697.46,1230.21
1698.92,1227.06
1700.37,1184.1
1701.82,1173.61
1703.27,1191.44
1704.72,1218.82
1706.18,1205.75
1707.63,1180.42
1709.08,1179.14
1710.53,1197.38
1711.98,1169.89
1713.43,1148.03
1714.89,1153.57
1716.34,1150.27
1717.79,1144.27
1719.24,1160.93
1720.69,1171.95
1722.15,1133.15
1723.6,1162.57
1725.05,1133.81
1726.5,1128.4
1727.95,1168.34
1729.4,1147.66
1730.86,1138.35
1732.31,1122.57
1733.76,1088.35
1735.21,1100.02
1736.66,1103.15
1738.11,1103.21
1739.57,1120.87
1741.02,1103.5
1742.47,1094.52
1743.92,1107.07
1745.37,1109.99
1746.83,1102.65
1748.28,1117.63
1749.73,1094.92
1751.18,1073.17
1752.63,1088.36
1754.08,1042.01
1755.54,1069.75
1756.99,1076.53
1758.44,1078.2
1759.89,1063.53
1761.34,1048.72
1762.8,1054.57
1764.25,1058.21
1765.7,1047.73
1767.15,1037.64
1768.6,1033.91
1770.05,1025.21
1771.51,1019.28
1772.96,1031.09
1774.41,1026.12
1775.86,1033.9
1777.31,1031.87
1778.76,999.414
1780.22,1012.28
1781.67,994.55
1783.12,1001.16
1784.57,1010.9
1786.02,995.32
1787.48,974.301
1788.93,970.068
1790.38,991.836
1791.83,1000.02
1793.28,996.581
1794.73,990.816
1796.19,979.125
1797.64,996.089
1799.09,953.896
1800.54,965.604
1801.99,975.396
1803.45,972.945
1804.9,977.045
1806.35,958.972
1807.8,978.378
1809.25,975.362
1810.7,954.826
1812.16,957.099
1813.61,965.552
1815.06,950.454
1816.51,943.719
1817.96,960.749
1819.41,987.057
1820.87,989.358
1822.32,987.926
1823.77,965.152
1825.22,953.517
1826.67,971.337
1828.13,945.275
1829.58,950.764
1831.03,973.379
1832.48,984.098
1833.93,975.904
1835.38,972.685
1836.84,994.428
1838.29,985.812
1839.74,1013.93
1841.19,996.852
1842.64,1011.21
1844.1,1005.68
1845.55,1000.7
1847,1013.07
1848.45,1045.68
1849.9,1044.19
1851.35,1033.37
1852.81,1045.42
1854.26,1048.98
1855.71,1035.67
1857.16,1043.32
1858.61,1056.81
1860.07,1043.49
1861.52,1045.07
1862.97,1057.62
1864.42,1041.31
1865.87,1028.62
1867.32,1029.4
1868.78,1056.94
1870.23,1072.69
1871.68,1008.19
1873.13,1003.51
1874.58,1047.6
1876.03,1057.07
1877.49,1040.06
1878.94,989.465
1880.39,1005.38
1881.84,994.163
1883.29,1009.69
1884.75,989.382
1886.2,982.916
1887.65,981.646
1889.1,973.829
1890.55,958.491
1892,987.806
1893.46,955.146
1894.91,947.36
1896.36,936.457
1897.81,938.628
1899.26,936.31
1900.72,931.934
1902.17,927.498
1903.62,936.944
1905.07,940.928
1906.52,929.712
1907.97,913.926
1909.43,909.538
1910.88,911.953
1912.33,901.367
1913.78,899.938
1915.23,900.8
1916.68,910.793
1918.14,900.585
1919.59,878.606
1921.04,885.13
1922.49,896.241
1923.94,879.796
1925.4,854.783
1926.85,897.569
1928.3,893.684
1929.75,882.374
1931.2,879.975
1932.65,888.025
1934.11,874.774
1935.56,879.503
1937.01,880.421
1938.46,906.422
1939.91,868.724
1941.37,889.524
1942.82,905.87
1944.27,902.61
1945.72,895.867
1947.17,893.879
1948.62,888.702
1950.08,886.649
1951.53,915.587
1952.98,885.773
1954.43,880.083
1955.88,877.469
1957.33,897.787
1958.79,913.153
1960.24,899.15
1961.69,895.212
1963.14,916.219
1964.59,927.552
1966.05,919.705
1967.5,922.884
1968.95,916.994
1970.4,915.758
1971.85,926.744
1973.3,938.787
1974.76,945.772
1976.21,943.832
1977.66,923.717
1979.11,927.714
1980.56,934.099
1982.02,934.161
1983.47,945.424
1984.92,956.596
1986.37,959.061
1987.82,943.819
1989.27,949.108
1990.73,950.353
1992.18,936.654
1993.63,952.296
1995.08,967.641
1996.53,958.356
1997.98,939.61
1999.44,963.568
2000.89,976.739
2002.34,985.903
2003.79,955.381
2005.24,973.419
2006.7,982.767
2008.15,960.689
2009.6,962.665
2011.05,962.582
2012.5,927.569
2013.95,935.626
2015.41,948.614
2016.86,947.021
2018.31,937.956
2019.76,939.233
2021.21,927
2022.67,927.237
2024.12,956.276
2025.57,935.68
2027.02,929.789
2028.47,898.965
2029.92,918.243
2031.38,922.934
2032.83,916.953
2034.28,910.676
2035.73,872.804
2037.18,898.445
2038.63,894.048
2040.09,895.737
2041.54,911.207
2042.99,903.541
2044.44,877.573
2045.89,868.404
2047.35,866.313
2048.8,868.23
2050.25,860.144
2051.7,852.161
2053.15,840.966
2054.6,824.327
2056.06,854.302
2057.51,844.935
2058.96,840.292
2060.41,861.134
2061.86,859.971
2063.32,848.624
2064.77,838.212
2066.22,845.756
2067.67,825.183
2069.12,825.541
2070.57,822.83
2072.03,820.649
2073.48,833.563
2074.93,837.499
2076.38,822.69
2077.83,833.466
2079.28,831.69
2080.74,830.541
2082.19,844.152
2083.64,817.05
2085.09,813.042
2086.54,828.595
2088,817.145
2089.45,816.198
2090.9,813.614
2092.35,824.113
2093.8,846.983
2095.25,842.181
2096.71,809.719
2098.16,803.631
2099.61,814.841
2101.06,818.133
2102.51,835.581
2103.97,814.736
2105.42,805.574
2106.87,814.284
2108.32,814.584
2109.77,813.395
2111.22,818.355
2112.68,822.628
2114.13,829.071
2115.58,808.081
2117.03,817.307
2118.48,813.644
2119.94,837.524
2121.39,834.04
2122.84,839.339
2124.29,843.117
2125.74,833.134
2127.19,822.285
2128.65,816.018
2130.1,824.753
2131.55,840.971
2133,813.287
2134.45,807.613
2135.9,838.555
2137.36,857.73
2138.81,846.24
2140.26,843.711
2141.71,862.687
2143.16,847.706
2144.62,836.726
2146.07,854.241
2147.52,833.137
2148.97,813.719
2150.42,845.344
2151.87,849.201
2153.33,846.893
2154.78,863.152
2156.23,859.58
2157.68,859.123
2159.13,862.01
2160.58,875.764
2162.04,876.303
2163.49,880.844
2164.94,873.441
2166.39,863.418
2167.84,878.927
2169.3,879.667
2170.75,878.707
2172.2,856.8
2173.65,883.308
2175.1,882.161
2176.55,908.601
2178.01,882.869
2179.46,872.251
2180.91,867.828
2182.36,890.585
2183.81,915.529
2185.27,898.902
2186.72,918.217
2188.17,888.094
2189.62,908.571
2191.07,914.647
2192.52,886.681
2193.98,918.978
2195.43,922.409
2196.88,911.619
2198.33,922.269
2199.78,917.116
2201.24,893.537
2202.69,913.109
2204.14,946.077
2205.59,925.472
2207.04,901.328
2208.49,893.578
2209.95,916.299
2211.4,919.262
2212.85,896.707
2214.3,939.067
2215.75,911.221
2217.2,926.932
2218.66,895.97
2220.11,925.29
2221.56,940.688
2223.01,902.204
2224.46,912.051
2225.92,921.304
2227.37,902.563
2228.82,936.106
2230.27,931.919
2231.72,894.412
2233.17,936.522
2234.63,919.638
2236.08,930.408
2237.53,936.568
2238.98,925.52
2240.43,939.262
2241.89,938.238
2243.34,941.807
2244.79,937.327
2246.24,949.396
2247.69,964.1
2249.14,971.526
2250.6,955.068
2252.05,940.379
2253.5,967.63
2254.95,977.14
2256.4,967.131
2257.85,981.58
2259.31,989.06
2260.76,976.944
2262.21,959.907
2263.66,956.4
2265.11,988.399
2266.57,981.08
2268.02,999.004
2269.47,1013.58
2270.92,995.241
2272.37,989.41
2273.82,1008.84
2275.28,1011.75
2276.73,993.413
2278.18,1013.83
2279.63,998.216
2281.08,1008.52
2282.54,1021.55
2283.99,1004.74
2285.44,1030.93
2286.89,1028.61
2288.34,1009.05
2289.79,1012.1
2291.25,1044.01
2292.7,1015.15
2294.15,1041.11
2295.6,1050.91
2297.05,1016.39
2298.5,1040.52
2299.96,1037.78
2301.41,1061.95
2302.86,1049.22
2304.31,1055.39
2305.76,1072.58
2307.22,1064.07
2308.67,1050.72
2310.12,1078.2
2311.57,1055.56
2313.02,1098.89
2314.47,1100.68
2315.93,1101.5
2317.38,1111.82
2318.83,1112.3
2320.28,1120.7
2321.73,1108.43
2323.19,1102.32
2324.64,1133.79
2326.09,1118.64
2327.54,1119.87
2328.99,1134.84
2330.44,1130.98
2331.9,1144.16
2333.35,1158.43
2334.8,1178.78
2336.25,1146.1
2337.7,1148.65
2339.16,1178.52
2340.61,1202.78
2342.06,1201.88
2343.51,1220.48
2344.96,1218.73
2346.41,1210.24
2347.87,1203.5
2349.32,1260.03
2350.77,1259
2352.22,1255.77
2353.67,1219.55
2355.12,1237.13
2356.58,1236.93
2358.03,1259.87
2359.48,1259.47
2360.93,1329.09
2362.38,1317.35
2363.84,1296.6
2365.29,1315.62
2366.74,1367.04
2368.19,1357.83
2369.64,1357.98
2371.09,1369.08
2372.55,1367.79
2374,1387.08
2375.45,1436.79
2376.9,1448.23
2378.35,1453.07
2379.8,1472.5
2381.26,1498.59
2382.71,1548.17
2384.16,1564.61
2385.61,1594.18
2387.06,1611.53
2388.52,1679.33
2389.97,1644.42
2391.42,1666.05
2392.87,1692.38
2394.32,1723.26
2395.77,1772.76
2397.23,1831.72
2398.68,1862.92
2400.13,1870.01
2401.58,1943.31
2403.03,1951.92
2404.49,1977.55
2405.94,2056.16
2407.39,2063.61
2408.84,2096.48
2410.29,2104.85
2411.74,2109.4
2413.2,2137.8
2414.65,2186.77
2416.1,2203.71
2417.55,2211.08
2419,2238.36
2420.46,2257.71
2421.91,2285.24
2423.36,2282.48
2424.81,2291.43
2426.26,2323.76
2427.71,2309.4
2429.17,2332.89
2430.62,2316.86
2432.07,2373.92
2433.52,2285.38
2434.97,2303.75
2436.42,2297.47
2437.88,2275.43
2439.33,2285.62
2440.78,2314.09
2442.23,2310.6
2443.68,2263.02
2445.14,2205.89
2446.59,2197
2448.04,2175.59
2449.49,2189.57
2450.94,2153.25
2452.39,2156.17
2453.85,2134.71
2455.3,2119.76
2456.75,2093.11
2458.2,2070.36
2459.65,2075.84
2461.1,2080.1
2462.56,2087.9
2464.01,2063.66
2465.46,2053.65
2466.91,2031.01
2468.36,2048.09
2469.82,2058.06
2471.27,2007.36
2472.72,1998.63
2474.17,1992.68
2475.62,1951.32
2477.07,1999.48
2478.53,1958.65
2479.98,2010.27
2481.43,1949.37
2482.88,1973.37
2484.33,1964.59
2485.79,1915.74
2487.24,1959.56
2488.69,1946.71
2490.14,1938.73
2491.59,1960.33
2493.04,1973.67
2494.5,1937.79
2495.95,1961.43
2497.4,2003.82
2498.85,1974.29
2500.3,1986.9
2501.76,2012.68
2503.21,1974.71
2504.66,2020.32
2506.11,2072.81
2507.56,2042.09
2509.01,2032.66
2510.47,2041.71
2511.92,2037.19
2513.37,2083.14
2514.82,2088.61
2516.27,2074.09
2517.72,2049.56
2519.18,2079.39
2520.63,2100.32
2522.08,2125.41
2523.53,2126.82
2524.98,2184.15
2526.44,2200.33
2527.89,2243.15
2529.34,2224.13
2530.79,2287.37
2532.24,2307.84
2533.69,2277.52
2535.15,2325.36
2536.6,2376.48
2538.05,2408.31
2539.5,2433.7
2540.95,2475.33
2542.41,2494.07
2543.86,2491.98
2545.31,2523.13
2546.76,2573.87
2548.21,2618.65
2549.66,2670.92
2551.12,2679.74
2552.57,2723.37
2554.02,2761.39
2555.47,2791.28
2556.92,2899.03
2558.37,2930.07
2559.83,3002.01
2561.28,3047.42
2562.73,3074.79
2564.18,3122.78
2565.63,3192.78
2567.09,3238.27
2568.54,3318.47
2569.99,3342.9
2571.44,3418.34
2572.89,3521.72
2574.34,3645.66
2575.8,3709.07
2577.25,3774.55
2578.7,3902.59
2580.15,4000.27
2581.6,4080.11
2583.06,4228.48
2584.51,4307.11
2585.96,4429.77
2587.41,4485.74
2588.86,4663.54
2590.31,4817.05
2591.77,4952.89
2593.22,5128.55
2594.67,5295.68
2596.12,5479.7
2597.57,5673.64
2599.02,5887.53
2600.48,6101.9
2601.93,6255.59
2603.38,6494.11
2604.83,6792.01
2606.28,6981.27
2607.74,7309.32
2609.19,7569.15
2610.64,7882.78
2612.09,8216.23
2613.54,8498.19
2614.99,8817.88
2616.45,9144.03
2617.9,9535.7
2619.35,9933.12
2620.8,10327.1
2622.25,10795.4
2623.71,11251.6
2625.16,11745.7
2626.61,12245.2
2628.06,12666.4
2629.51,13126.8
2630.96,13575.9
2632.42,14181.5
2633.87,14764.4
2635.32,15135.4
2636.77,15581.9
2638.22,16175.7
2639.68,16714.7
2641.13,17159.2
2642.58,17639.4
2644.03,18126.8
2645.48,18564.3
2646.93,18876.6
2648.39,19270.1
2649.84,19682.3
2651.29,19802
2652.74,20146.2
2654.19,20224
2655.64,20389.2
2657.1,20397.3
2658.55,20503.3
2660,20475.8
2661.45,20353.3
2662.9,20113.9
2664.36,19951.5
2665.81,19686.9
2667.26,19481.3
2668.71,19119.1
2670.16,18707.8
2671.61,18244.5
2673.07,17807.6
2674.52,17304.6
2675.97,16895.1
2677.42,16369.9
2678.87,15909.7
2680.32,15407.7
2681.78,14846
2683.23,14278.4
2684.68,13754.2
2686.13,13245.4
2687.58,12713.4
2689.04,12174.1
2690.49,11743.2
2691.94,11232
2693.39,10804.2
2694.84,10306.6
2696.29,9874.92
2697.75,9501.71
2699.2,9115.56
2700.65,8706.46
2702.1,8367.65
2703.55,7947.12
2705.01,7629.56
2706.46,7339.86
2707.91,6953.28
2709.36,6718.59
2710.81,6365.85
2712.26,6218.31
2713.72,6007.64
2715.17,5752.37
2716.62,5537.26
2718.07,5347.86
2719.52,5126.95
2720.98,4980.32
2722.43,4770.55
2723.88,4579.51
2725.33,4428.56
2726.78,4261.48
2728.23,4126.93
2729.69,4018.1
2731.14,3912.12
2732.59,3773.39
2734.04,3689.04
2735.49,3584.61
2736.94,3519.2
2738.4,3418.4
2739.85,3375.92
2741.3,3274.04
2742.75,3174.26
2744.2,3092.66
2745.66,3031.01
2747.11,2950.21
2748.56,2883.11
2750.01,2799.52
2751.46,2757.7
2752.91,2714.85
2754.37,2658.34
2755.82,2638.16
2757.27,2584.59
2758.72,2505.91
2760.17,2494.75
2761.63,2475.59
2763.08,2367.16
2764.53,2354.89
2765.98,2324.09
2767.43,2261.45
2768.88,2226.46
2770.34,2219.69
2771.79,2206.95
2773.24,2176.42
2774.69,2117.77
2776.14,2117.8
2777.59,2093.27
2779.05,2059.43
2780.5,1985.26
2781.95,1980.85
2783.4,1962.1
2784.85,1992.12
2786.31,1955.75
2787.76,1933.91
2789.21,1923.48
2790.66,1876.69
2792.11,1875.53
2793.56,1854.28
2795.02,1796.94
2796.47,1810.08
2797.92,1823.24
2799.37,1780.58
2800.82,1765.51
2802.28,1755.85
2803.73,1739.66
2805.18,1738.93
2806.63,1711.12
2808.08,1724.15
2809.53,1704.26
2810.99,1660.46
2812.44,1625.85
2813.89,1628.33
2815.34,1640.59
2816.79,1617.94
2818.24,1627.75
2819.7,1624.4
2821.15,1602.7
2822.6,1577.93
2824.05,1580.09
2825.5,1568.58
2826.96,1545.17
2828.41,1566.63
2829.86,1579.06
2831.31,1541.68
2832.76,1533.48
2834.21,1520.93
2835.67,1488.99
2837.12,1475.61
2838.57,1483.82
2840.02,1471.41
2841.47,1509.6
2842.93,1469.33
2844.38,1482.22
2845.83,1458.98
2847.28,1455.71
2848.73,1477.55
2850.18,1482.46
2851.64,1459.66
2853.09,1438.61
2854.54,1456.75
2855.99,1441.24
2857.44,1430.33
2858.9,1448.21
2860.35,1418.52
2861.8,1437.11
2863.25,1426.7
2864.7,1409.23
2866.15,1432.39
2867.61,1401.86
2869.06,1409.53
2870.51,1412.86
2871.96,1441.8
2873.41,1380.88
2874.86,1387.47
2876.32,1386.86
2877.77,1395.66
2879.22,1386.61
2880.67,1406.41
2882.12,1430.71
2883.58,1420.86
2885.03,1406.5
2886.48,1384.93
2887.93,1390.25
2889.38,1423.76
2890.83,1395.8
2892.29,1422.01
2893.74,1414.19
2895.19,1372.05
2896.64,1364.77
2898.09,1376.99
2899.54,1392.77
2901,1425.16
2902.45,1370.51
2903.9,1397.45
2905.35,1374.49
2906.8,1368.29
2908.26,1353.98
2909.71,1350.51
2911.16,1355.03
2912.61,1333.42
2914.06,1367.08
2915.51,1359.88
2916.97,1327.11
2918.42,1354.13
2919.87,1353.05
2921.32,1312.82
2922.77,1302.6
2924.23,1287.95
2925.68,1280.13
2927.13,1284.21
2928.58,1277.35
2930.03,1265.8
2931.48,1303.6
2932.94,1297.12
2934.39,1275.55
2935.84,1229.19
2937.29,1213.85
2938.74,1186.73
2940.2,1175.78
2941.65,1155.76
2943.1,1197.87
2944.55,1187.65
2946,1179.39
2947.45,1154.43
2948.91,1157.61
2950.36,1137.1
2951.81,1149.22
2953.26,1122.42
2954.71,1097.61
2956.16,1108.62
2957.62,1089.81
2959.07,1059.55
2960.52,1096.43
2961.97,1097.14
2963.42,1065.55
2964.88,1087.71
2966.33,1088.94
2967.78,1077.78
2969.23,1032.39
2970.68,1042.56
2972.13,1046.48
2973.59,1042.49
2975.04,1026.93
2976.49,1014.98
2977.94,995.604
2979.39,1040.69
2980.84,1058.79
2982.3,999.836
2983.75,1001
2985.2,989.851
2986.65,978.159
2988.1,993.289
2989.56,961.583
2991.01,989.407
2992.46,972.092
2993.91,968.574
2995.36,997.314
2996.81,952.855
2998.27,960.81
2999.72,957.494
3001.17,932.368
3002.62,932.063
3004.07,944.656
3005.53,986.831
3006.98,974.008
3008.43,956.638
3009.88,953.773
3011.33,958.354
3012.78,949.367
3014.24,954.673
3015.69,966.572
3017.14,943.069
3018.59,969.935
3020.04,943.629
3021.5,942.746
3022.95,959.726
3024.4,941.168
3025.85,926.771
3027.3,955.361
3028.75,952.305
3030.21,952.971
3031.66,974.401
3033.11,920.519
3034.56,954.328
3036.01,948.694
3037.46,932.391
3038.92,958.002
3040.37,926.356
3041.82,953.272
3043.27,946.993
3044.72,961.264
3046.18,944.605
3047.63,937.794
3049.08,933.993
3050.53,916.325
3051.98,956.132
3053.43,938.822
3054.89,967.293
3056.34,977.535
3057.79,943.958
3059.24,967.334
3060.69,959.398
3062.15,928.452
3063.6,947.32
3065.05,977.092
3066.5,961.703
3067.95,992.444
3069.4,975.639
3070.86,956.99
3072.31,994.922
3073.76,1006.61
3075.21,1017.95
3076.66,1005.19
3078.11,987.408
3079.57,1009.73
3081.02,1014.21
3082.47,999.86
3083.92,1033.27
3085.37,1023.32
3086.83,1068.55
3088.28,1106.75
3089.73,1078.91
3091.18,1096.37
3092.63,1100.81
3094.08,1115.9
3095.54,1126.67
3096.99,1128.47
3098.44,1127.87
3099.89,1172.78
3101.34,1195.87
3102.8,1228.01
3104.25,1214.84
3105.7,1227.22
3107.15,1245.78
3108.6,1274.04
3110.05,1307.48
3111.51,1307.97
3112.96,1306.93
3114.41,1323.43
3115.86,1385.95
3117.31,1388.65
3118.76,1413.64
3120.22,1389.73
3121.67,1448.14
3123.12,1468.3
3124.57,1446.87
3126.02,1455.18
3127.48,1492.49
3128.93,1526.15
3130.38,1513.53
3131.83,1527.95
3133.28,1555.32
3134.73,1586.42
3136.19,1566.43
3137.64,1596.11
3139.09,1588.76
3140.54,1591.8
3141.99,1598.43
3143.45,1609.49
3144.9,1610.34
3146.35,1610.44
3147.8,1604.08
3149.25,1588.8
3150.7,1614.5
3152.16,1601.05
3153.61,1599.99
3155.06,1625.47
3156.51,1625.5
3157.96,1593.48
3159.42,1599.74
3160.87,1665.07
3162.32,1655.67
3163.77,1662.08
3165.22,1652.89
3166.67,1668.08
3168.13,1696.05
3169.58,1678.78
3171.03,1690.36
3172.48,1756.26
3173.93,1703.67
3175.38,1713.16
3176.84,1767.71
3178.29,1809.64
3179.74,1779.77
3181.19,1806.47
3182.64,1862.7
3184.1,1881.14
3185.55,1908.74
3187,1913.21
3188.45,1909.95
3189.9,1955.48
3191.35,1970.6
3192.81,1985.97
3194.26,2005.88
3195.71,2004.68
3197.16,2018.27
3198.61,2000.05
3200.06,2036.02
3201.52,2033.08
3202.97,2005.54
3204.42,2016.19
3205.87,1965.9
3207.32,1955.8
3208.78,1945.67
3210.23,1906.65
3211.68,1876.68
3213.13,1867.82
3214.58,1823.86
3216.03,1766.42
3217.49,1708.27
3218.94,1658.62
3220.39,1652.15
3221.84,1617.46
3223.29,1534.96
3224.75,1505.57
3226.2,1477.44
3227.65,1428.3
3229.1,1354.16
3230.55,1357.4
3232,1324.53
3233.46,1259.98
3234.91,1235.15
3236.36,1200.14
3237.81,1156.58
3239.26,1134.53
3240.72,1110.36
3242.17,1104
3243.62,1052.8
3245.07,1025.21
3246.52,1035.13
3247.97,983.646
3249.43,972.521
3250.88,946.503
3252.33,928.063
3253.78,932.146
3255.23,927.26
3256.68,908.419
3258.14,909.364
3259.59,928.458
3261.04,874.977
3262.49,852.056
3263.94,853.333
3265.4,868.609
3266.85,887.707
3268.3,847.745
3269.75,858.709
3271.2,826.624
3272.65,831.17
3274.11,805.315
3275.56,824.969
3277.01,800.686
3278.46,844.054
3279.91,841.579
3281.37,815.995
3282.82,822.383
3284.27,822.914
3285.72,817.103
3287.17,806.781
3288.62,798.411
3290.08,794.381
3291.53,817.401
3292.98,788.502
3294.43,772.405
3295.88,805.437
3297.33,777.984
3298.79,781.38
3300.24,796.992
3301.69,785.14
3303.14,751.554
3304.59,776.664
3306.05,782.003
3307.5,765.3
3308.95,786.889
3310.4,769.233
3311.85,772.23
3313.3,781.51
3314.76,798.825
3316.21,772.069
3317.66,763.771
3319.11,781.401
3320.56,755.089
3322.02,765.734
3323.47,765.962
3324.92,762.575
3326.37,755.777
3327.82,758.545
3329.27,762.933
3330.73,780.056
3332.18,752.032
3333.63,772.395
3335.08,763.034
3336.53,758.467
3337.98,752.862
3339.44,753.546
3340.89,754.912
3342.34,755.453
3343.79,754.273
3345.24,772.924
3346.7,739.872
3348.15,777.168
3349.6,737.98
3351.05,738.765
3352.5,753.908
3353.95,749.119
3355.41,768.584
3356.86,741.013
3358.31,733.999
3359.76,768.34
3361.21,763.474
3362.67,762.386
3364.12,735.623
3365.57,721.047
3367.02,756.321
3368.47,758.039
3369.92,751.301
3371.38,720.027
3372.83,752.49
3374.28,738.513
3375.73,744.08
3377.18,738.195
3378.63,744.417
3380.09,736.55
3381.54,733.816
3382.99,718.99
3384.44,738.822
3385.89,739.456
3387.35,740.374
3388.8,740.109
3390.25,764.758
3391.7,767.776
3393.15,741.079
3394.6,739.452
3396.06,758.544
3397.51,742.144
3398.96,745.099
3400.41,728.934
3401.86,744.48
3403.32,752.196
3404.77,780.551
3406.22,756.093
3407.67,734.159
3409.12,754.67
3410.57,758.111
3412.03,740.927
3413.48,781.565
3414.93,736.096
3416.38,753.558
3417.83,747.374
3419.28,705.933
3420.74,746.298
3422.19,741.373
3423.64,740.907
3425.09,748.63
3426.54,771.25
3428,726.462
3429.45,737.234
3430.9,741.549
3432.35,764.955
3433.8,760.749
3435.25,745.455
3436.71,737.695
3438.16,722.772
3439.61,754.276
3441.06,737.659
3442.51,745.217
3443.97,738.568
3445.42,707.51
3446.87,724.872
3448.32,752.497
3449.77,739.853
3451.22,731.022
3452.68,731.034
3454.13,737.108
3455.58,743.352
3457.03,725.791
3458.48,720.275
3459.94,723.06
3461.39,719.706
3462.84,725.964
3464.29,751.795
3465.74,751.083
3467.19,737.464
3468.65,714.747
3470.1,745.13
3471.55,730.938
3473,736.224
3474.45,735.808
3475.9,746.03
3477.36,753.036
3478.81,725.844
3480.26,705.045
3481.71,741.318
3483.16,738.398
3484.62,737.17
3486.07,754.792
3487.52,757.435
3488.97,751.434
3490.42,718.519
3491.87,760.014
3493.33,757.849
3494.78,743.485
3496.23,735.498
3497.68,771.447
3499.13,757.27
3500.58,752.636
3502.04,751.476
3503.49,738.393
3504.94,764.199
3506.39,751.272
3507.84,739.84
3509.3,740.437
3510.75,769.151
3512.2,745.421
3513.65,761.699
3515.1,760.633
3516.55,754.446
3518.01,746.849
3519.46,726.51
3520.91,751.012
3522.36,746.467
3523.81,759.244
3525.27,762.457
3526.72,755.545
3528.17,779.627
3529.62,745.128
3531.07,757.587
3532.52,765.222
3533.98,770.493
3535.43,724.745
3536.88,751.385
3538.33,763.911
3539.78,757.875
3541.24,722.856
3542.69,740.145
3544.14,743.64
3545.59,761.398
3547.04,772.026
3548.49,737.956
3549.95,731.764
3551.4,755.455
3552.85,744.036
3554.3,748.545
3555.75,718.416
3557.2,755.383
3558.66,732.414
3560.11,755.642
3561.56,749.305
3563.01,724.249
3564.46,743.643
3565.92,745.977
3567.37,732.709
3568.82,746.104
3570.27,737.223
3571.72,750.476
3573.17,751.013
3574.63,727.318
3576.08,751.014
3577.53,735.823
3578.98,736.961
3580.43,746.397
3581.89,757.672
3583.34,748.131
3584.79,743.948
3586.24,733.268
3587.69,733.077
3589.14,735.751
3590.6,741.535
3592.05,750.911
3593.5,744.2
3594.95,722.656
3596.4,752.024
3597.85,753.263
3599.31,732.839
3600.76,739.55
3602.21,723.276
3603.66,724.557
3605.11,750.385
3606.57,738.733
3608.02,768.909
3609.47,771.103
3610.92,746.474
3612.37,774.009
3613.82,727.075
3615.28,728.695
3616.73,750.287
3618.18,753.233
3619.63,739.706
3621.08,764.053
3622.54,754.588
3623.99,737.198
3625.44,743.086
3626.89,742.239
3628.34,761.933
3629.79,748.941
3631.25,764.381
3632.7,703.402
3634.15,746.4
3635.6,750.106
3637.05,761.879
3638.5,761.839
3639.96,772.12
3641.41,757.003
3642.86,753.201
3644.31,778.464
3645.76,742.362
3647.22,769.712
3648.67,742.435
3650.12,766.612
3651.57,743.99
3653.02,774.792
3654.47,752.634
3655.93,770.457
3657.38,779.541
3658.83,767.456
3660.28,780.682
3661.73,745.242
3663.19,757.226
3664.64,777.563
3666.09,761.678
3667.54,794.354
3668.99,768.899
3670.44,784.698
3671.9,744.063
3673.35,771.863
3674.8,775.877
3676.25,782.521
3677.7,771.584
3679.16,771.715
3680.61,761.355
3682.06,776.617
3683.51,759.137
3684.96,747.315
3686.41,760.349
3687.87,791.974
3689.32,792.112
3690.77,770.066
3692.22,798.896
3693.67,778.883
3695.12,795.692
3696.58,767.953
3698.03,801.199
3699.48,764.972
3700.93,765.855
3702.38,768.038
3703.84,796.707
3705.29,776.785
3706.74,789.395
3708.19,781.542
3709.64,784.357
3711.09,762.681
3712.55,764.093
3714,774.419
3715.45,772.304
3716.9,794.728
3718.35,770.25
3719.8,782.178
3721.26,786.969
3722.71,777.726
3724.16,799.663
3725.61,781.61
3727.06,772.019
3728.52,791.99
3729.97,780.704
3731.42,791.461
3732.87,816.97
3734.32,817.64
3735.77,779.675
3737.23,775.865
3738.68,801.081
3740.13,773.136
3741.58,778.45
3743.03,801.186
3744.49,800.792
3745.94,793.376
3747.39,796.558
3748.84,797.28
3750.29,762.567
3751.74,801.548
3753.2,820.74
3754.65,794.255
3756.1,786.223
3757.55,804.208
3759,781.661
3760.46,774.186
3761.91,801.621
3763.36,788.065
3764.81,803.385
3766.26,807.373
3767.71,817.314
3769.17,819.74
3770.62,790.576
3772.07,769.744
3773.52,805.87
3774.97,829.85
3776.42,835.927
3777.88,828.248
3779.33,798.527
3780.78,817.055
3782.23,793.51
3783.68,789.183
3785.14,802.962
3786.59,807.233
3788.04,789.566
3789.49,812.598
3790.94,788.684
3792.39,810.237
3793.85,819.969
3795.3,815.891
3796.75,817.365
3798.2,819.501
3799.65,829.673
3801.1,826.839
3802.56,786.833
3804.01,822.393
3805.46,825.639
3806.91,819.722
3808.36,812.731
3809.82,812.573
3811.27,802.854
3812.72,809.012
3814.17,796.125
3815.62,825.523
3817.07,843.338
3818.53,833.128
3819.98,843.687
3821.43,837.265
3822.88,823.547
3824.33,811.374
3825.79,825.338
3827.24,825.199
3828.69,843.867
3830.14,834.791
3831.59,854.763
3833.04,844.248
3834.5,825.99
3835.95,838.763
3837.4,838.26
3838.85,838.595
3840.3,838.033
3841.76,852.32
3843.21,861.374
3844.66,854.951
3846.11,814.553
3847.56,828.866
3849.01,836.654
3850.47,838.472
3851.92,847.614
3853.37,852.776
3854.82,857.406
3856.27,839.699
3857.72,817.927
3859.18,867.768
3860.63,846.317
3862.08,859.689
3863.53,858.167
3864.98,852.768
3866.44,848.937
3867.89,864.818
3869.34,868.291
3870.79,877.476
3872.24,843.807
3873.69,866.381
3875.15,850.394
3876.6,878.62
3878.05,864.662
3879.5,860.416
3880.95,885.696
3882.41,882.328
3883.86,909.141
3885.31,881.447
3886.76,878.73
3888.21,886.538
3889.66,901.546
3891.12,873.212
3892.57,903.444
3894.02,884.055
3895.47,900.695
3896.92,906.628
3898.37,900.959
3899.83,909.088
3901.28,909.023
3902.73,887.854
3904.18,901.082
3905.63,903.331
3907.09,917.861
3908.54,912.713
3909.99,909.381
3911.44,901.874
3912.89,945.198
3914.34,930.716
3915.8,917.33
3917.25,947.158
3918.7,916.482
3920.15,943.723
3921.6,923.274
3923.06,914.989
3924.51,949.098
3925.96,966.596
3927.41,921.566
3928.86,954.543
3930.31,948.874
3931.77,964.441
3933.22,949.511
3934.67,969.035
3936.12,960.705
3937.57,960.528
3939.02,988.625
3940.48,949.563
3941.93,969.89
3943.38,973.087
3944.83,983.585
3946.28,973.745
3947.74,988.71
3949.19,1003.98
3950.64,998.367
3952.09,999.823
3953.54,992.546
3954.99,994.62
3956.45,1012.2
3957.9,1011.81
3959.35,1040.99
3960.8,1006.05
3962.25,1016.31
3963.71,1030.12
3965.16,1025.95
3966.61,1044.54
3968.06,1008.86
3969.51,1032.37
3970.96,1014.81
3972.42,1001.18
3973.87,1022.36
3975.32,1070.33
3976.77,1040.26
3978.22,1049.22
3979.68,1057.74
3981.13,1076.48
3982.58,1057.37
3984.03,1045.2
3985.48,1078.74
3986.93,1107.44
3988.39,1093.76
3989.84,1057.24
3991.29,1056.98
3992.74,1088.85
3994.19,1055.89
3995.64,1077.79
3997.1,1124.56
3998.55,1086.19
4000,1082.14
