-20,21.3635
-18.5482,25.4689
-17.0964,30.4191
-15.6446,34.4982
-14.1928,43.2941
-12.7411,49.6981
-11.2893,57.5671
-9.83749,63.0333
-8.3857,100.464
-6.93391,165.317
-5.48212,1628.17
-4.03034,10828.3
-2.57855,34203.6
-1.12676,54144.1
0.325027,62945.6
1.77681,51434.4
3.2286,33714.9
4.68039,9479.31
6.13218,1517.47
7.58397,253.215
9.03575,152.172
10.4875,149.38
11.9393,137.356
13.3911,132.88
14.8429,126.088
16.2947,118.764
17.7465,114.364
19.1983,101.414
20.6501,85.5407
22.1018,69.8132
23.5536,65.7489
25.0054,44.4631
26.4572,36.3038
27.909,32.2612
29.3608,28.9874
30.8126,23.597
32.2644,16.6895
33.7161,12.3535
35.1679,13.9759
36.6197,16.7366
38.0715,15.5294
39.5233,13.4624
40.9751,12.3924
42.4269,11.7715
43.8787,12.7867
45.3304,13.8709
46.7822,36.0278
48.234,65.2665
49.6858,114.82
51.1376,212.654
52.5894,411.015
54.0412,687.262
55.493,1029.16
56.9447,1418.13
58.3965,1806.89
59.8483,2144.09
61.3001,2428.66
62.7519,2678.83
64.2037,2894.64
65.6555,3043.01
67.1073,3107.68
68.559,3161.61
70.0108,3193.98
71.4626,3189.05
72.9144,3167.01
74.3662,3182.1
75.818,3229.34
77.2698,3299.2
78.7216,3344.45
80.1733,3438.9
81.6251,3499.93
83.0769,3558.93
84.5287,3630.77
85.9805,3616.56
87.4323,3598.03
88.8841,3495.47
90.3359,3337.82
91.7877,3181.43
93.2394,2970.86
94.6912,2810.66
96.143,2675.02
97.5948,2568.3
99.0466,2500.81
100.498,2424.24
101.95,2369.97
103.402,2337.92
104.854,2290.62
106.306,2241.31
107.757,2173.6
109.209,2122.23
110.661,2083.93
112.113,2069.13
113.564,2054.74
115.016,2034.07
116.468,2027.43
117.92,2000.39
119.372,1935.7
120.823,1901.89
122.275,1897.23
123.727,1870.77
125.179,1853.82
126.631,1833.71
128.082,1807.81
129.534,1797.37
130.986,1761.74
132.438,1706.92
133.889,1674.26
135.341,1646.77
136.793,1615.63
138.245,1592.91
139.697,1573.86
141.148,1517.91
142.6,1501.36
144.052,1469.9
145.504,1449.51
146.956,1434.03
148.407,1399.05
149.859,1419.08
151.311,1421.25
152.763,1391.19
154.215,1347.82
155.666,1363.11
157.118,1352.28
158.57,1327.14
160.022,1324.47
161.473,1339.39
162.925,1345.68
164.377,1347.96
165.829,1358.62
167.281,1352.41
168.732,1337.75
170.184,1373.04
171.636,1415.95
173.088,1437.16
174.54,1451.09
175.991,1460.29
177.443,1446.38
178.895,1422.32
180.347,1388.8
181.798,1341.18
183.25,1280.81
184.702,1243.66
186.154,1230.13
187.606,1189.77
189.057,1157.97
190.509,1137.8
191.961,1122.11
193.413,1104.07
194.865,1115.78
196.316,1110.88
197.768,1087.45
199.22,1085.61
200.672,1084.54
202.124,1099.07
203.575,1087.63
205.027,1077.19
206.479,1073.39
207.931,1068.68
209.382,1085.19
210.834,1091.42
212.286,1084.34
213.738,1072.97
215.19,1087.67
216.641,1072.93
218.093,1053.32
219.545,1052.29
220.997,1078.29
222.449,1043.8
223.9,1057.05
225.352,1067.83
226.804,1073.22
228.256,1078.72
229.707,1078.87
231.159,1075.24
232.611,1067.18
234.063,1066.19
235.515,1046.44
236.966,1044.21
238.418,1045.65
239.87,1044.31
241.322,1039.53
242.774,1029.35
244.225,1025.6
245.677,1039.14
247.129,1044.99
248.581,1034.75
250.033,1018.32
251.484,1017.4
252.936,1012.65
254.388,1003.51
255.84,1007.49
257.291,1036.25
258.743,1012.98
260.195,984.622
261.647,995.844
263.099,1007.85
264.55,980.502
266.002,966.73
267.454,986.365
268.906,975.118
270.358,972.801
271.809,997.929
273.261,970.264
274.713,973.794
276.165,955.056
277.616,942.224
279.068,934.188
280.52,937.486
281.972,948.222
283.424,918.005
284.875,891.247
286.327,895.37
287.779,926.331
289.231,910.879
290.683,897.998
292.134,870.156
293.586,853.365
295.038,864.93
296.49,887.682
297.941,859.63
299.393,864.999
300.845,870.228
302.297,848.531
303.749,827.216
305.2,823.991
306.652,820.419
308.104,816.155
309.556,813.142
311.008,814.308
312.459,817.582
313.911,821.714
315.363,805.311
316.815,784.627
318.267,801.252
319.718,786.213
321.17,787.815
322.622,804.374
324.074,810.832
325.525,781.966
326.977,774.964
328.429,764.791
329.881,770.33
331.333,781.218
332.784,773.043
334.236,759.939
335.688,752.58
337.14,766.835
338.592,763.884
340.043,754.214
341.495,773.519
342.947,737.49
344.399,748.489
345.85,762.72
347.302,769.007
348.754,756.212
350.206,770.96
351.658,752.326
353.109,743.407
354.561,738.004
356.013,732.511
357.465,745.863
358.917,741.727
360.368,729.146
361.82,720.277
363.272,716.888
364.724,701.155
366.176,739.073
367.627,747.949
369.079,743.238
370.531,736.075
371.983,724.825
373.434,711.458
374.886,718.214
376.338,717.103
377.79,711.02
379.242,702.192
380.693,703.406
382.145,709.306
383.597,708.209
385.049,702.602
386.501,704.302
387.952,706.684
389.404,713.875
390.856,722.308
392.308,723.314
393.759,728.811
395.211,734.288
396.663,737.026
398.115,707.67
399.567,730.069
401.018,726.802
402.47,700.268
403.922,699.719
405.374,707.175
406.826,722.901
408.277,708.069
409.729,706.882
411.181,732.753
412.633,708.061
414.085,703.956
415.536,711.153
416.988,714.451
418.44,714.021
419.892,730.382
421.343,698.488
422.795,707.243
424.247,714.609
425.699,709.072
427.151,695.029
428.602,687.969
430.054,695.558
431.506,694.499
432.958,694.994
434.41,681.717
435.861,655.712
437.313,682.312
438.765,700.05
440.217,704.465
441.668,699.342
443.12,694.746
444.572,690.448
446.024,694.502
447.476,679.258
448.927,672.44
450.379,671.541
451.831,667.698
453.283,682.248
454.735,685.936
456.186,675.932
457.638,678.289
459.09,687.833
460.542,685.594
461.993,696.847
463.445,674.092
464.897,693.903
466.349,696.372
467.801,673.572
469.252,682.938
470.704,687.536
472.156,686.108
473.608,687.94
475.06,696.222
476.511,697.636
477.963,699.01
479.415,665.969
480.867,680.937
482.319,695.009
483.77,683.247
485.222,662.791
486.674,662.63
488.126,675.489
489.577,681.04
491.029,681.8
492.481,680.582
493.933,687.691
495.385,682.255
496.836,663.207
498.288,660.371
499.74,667.131
501.192,672.713
502.644,675.49
504.095,691.103
505.547,678.219
506.999,671.422
508.451,660.906
509.902,654.939
511.354,681.737
512.806,665.518
514.258,660.446
515.71,648.071
517.161,645.485
518.613,662.403
520.065,666.276
521.517,638.205
522.969,651.967
524.42,661.935
525.872,668.317
527.324,668.541
528.776,663.31
530.228,670.024
531.679,665.891
533.131,655.699
534.583,652.177
536.035,659.235
537.486,683.279
538.938,665.143
540.39,668.673
541.842,674.73
543.294,676.076
544.745,666.756
546.197,672.235
547.649,682.599
549.101,672.558
550.553,661.926
552.004,659.534
553.456,672.003
554.908,661.868
556.36,649.933
557.811,654.106
559.263,662.341
560.715,663.006
562.167,667.141
563.619,634.577
565.07,661.308
566.522,670.719
567.974,672.21
569.426,673.148
570.878,676.626
572.329,678.36
573.781,664.311
575.233,654.589
576.685,655.149
578.137,656.341
579.588,646.496
581.04,637.473
582.492,633.951
583.944,648.421
585.395,657.391
586.847,660.798
588.299,671.236
589.751,652.338
591.203,637.661
592.654,640.186
594.106,642.958
595.558,648.352
597.01,641.617
598.462,655.86
599.913,660.239
601.365,669.014
602.817,664.752
604.269,656.916
605.72,665.29
607.172,657.595
608.624,664.303
610.076,665.897
611.528,651.033
612.979,648.249
614.431,659.832
615.883,659.644
617.335,672.694
618.787,652.657
620.238,653.304
621.69,654.022
623.142,647.157
624.594,629.446
626.046,652.674
627.497,675.591
628.949,674.454
630.401,680.431
631.853,685.536
633.304,674.476
634.756,677.533
636.208,673.975
637.66,682.293
639.112,675.953
640.563,661.424
642.015,670.673
643.467,697.522
644.919,677.479
646.371,658.533
647.822,652.431
649.274,652.793
650.726,672.087
652.178,679.112
653.629,684.517
655.081,693.506
656.533,693.494
657.985,688.168
659.437,688.356
660.888,702.39
662.34,670.182
663.792,678.684
665.244,679.973
666.696,682.838
668.147,687.018
669.599,691.425
671.051,692.115
672.503,703.87
673.954,702.958
675.406,700.398
676.858,710.951
678.31,715.783
679.762,702.228
681.213,696.466
682.665,681.76
684.117,675.683
685.569,683.678
687.021,687.678
688.472,732.912
689.924,693.064
691.376,692.182
692.828,707.412
694.28,708.334
695.731,701.478
697.183,716.893
698.635,684.098
700.087,711.328
701.538,736.002
702.99,724.502
704.442,708.977
705.894,709.252
707.346,713.181
708.797,704.969
710.249,720.3
711.701,721.22
713.153,713.785
714.605,708.132
716.056,710.709
717.508,720.968
718.96,719.636
720.412,717.657
721.863,727.888
723.315,716.842
724.767,692.215
726.219,706.215
727.671,744.259
729.122,720.58
730.574,724.768
732.026,733.243
733.478,734.622
734.93,731.429
736.381,719.721
737.833,709.107
739.285,735.312
740.737,720.143
742.189,722.257
743.64,733.594
745.092,738.63
746.544,722.669
747.996,725.997
749.447,711.066
750.899,713.554
752.351,723.421
753.803,720.436
755.255,710.221
756.706,702.37
758.158,712.757
759.61,724.694
761.062,729.004
762.514,726.776
763.965,732.007
765.417,746.376
766.869,712.693
768.321,713.094
769.772,718.698
771.224,726.387
772.676,724.432
774.128,708.446
775.58,709.224
777.031,727.735
778.483,745.081
779.935,738.433
781.387,741.518
782.839,741.036
784.29,736.364
785.742,728.917
787.194,723.716
788.646,730.216
790.098,727.925
791.549,726.17
793.001,730.866
794.453,724.045
795.905,742.625
797.356,760.958
798.808,737.323
800.26,745.623
801.712,750.412
803.164,726.361
804.615,725.766
806.067,745.492
807.519,768.279
808.971,760.159
810.423,764.386
811.874,758.498
813.326,755.392
814.778,750.744
816.23,768.076
817.681,750.189
819.133,760.909
820.585,768.961
822.037,762.241
823.489,744.144
824.94,752.747
826.392,787.208
827.844,743.266
829.296,767.26
830.748,765.877
832.199,758.137
833.651,764.459
835.103,762.745
836.555,793.925
838.007,777.24
839.458,775.913
840.91,785.924
842.362,790.434
843.814,791.388
845.265,765.127
846.717,784.389
848.169,801.72
849.621,810.942
851.073,795.826
852.524,808.91
853.976,811.505
855.428,799.265
856.88,822.461
858.332,788.668
859.783,808.035
861.235,822.723
862.687,826.844
864.139,816.27
865.59,801.37
867.042,783.234
868.494,808.574
869.946,781.281
871.398,790.691
872.849,792.961
874.301,787.844
875.753,799.412
877.205,780.363
878.657,800.987
880.108,812.288
881.56,813.194
883.012,795.195
884.464,796.298
885.915,792.226
887.367,785.125
888.819,799.482
890.271,823.205
891.723,804.482
893.174,817.092
894.626,822.766
896.078,808.805
897.53,808.136
898.982,810.668
900.433,827.373
901.885,822.398
903.337,825.146
904.789,827.064
906.241,826.972
907.692,833.879
909.144,824.668
910.596,815.958
912.048,838.541
913.499,831.208
914.951,833.038
916.403,853.766
917.855,858.019
919.307,856.955
920.758,876.994
922.21,856.069
923.662,862.76
925.114,863.819
926.566,870.541
928.017,870.719
929.469,847.288
930.921,844.605
932.373,859.735
933.824,853.895
935.276,879.302
936.728,865.576
938.18,875.857
939.632,876.623
941.083,848.534
942.535,835.2
943.987,852.868
945.439,862.044
946.891,878.621
948.342,861.404
949.794,844.168
951.246,855.226
952.698,865.944
954.15,838.895
955.601,841.78
957.053,839.674
958.505,875.868
959.957,869.085
961.408,863.034
962.86,853.277
964.312,847.077
965.764,878.213
967.216,858.165
968.667,867.896
970.119,872.257
971.571,885.556
973.023,879.302
974.475,860.982
975.926,873.507
977.378,886.416
978.83,877.123
980.282,850.961
981.733,874.227
983.185,883.381
984.637,877.403
986.089,878.007
987.541,894.519
988.992,858.581
990.444,869.181
991.896,892.173
993.348,894.175
994.8,894.976
996.251,892.987
997.703,891.783
999.155,919.821
1000.61,893.156
1002.06,895.307
1003.51,917.575
1004.96,919.072
1006.41,924.295
1007.87,937.126
1009.32,938.755
1010.77,922.848
1012.22,916.134
1013.67,920.018
1015.12,956.521
1016.58,963.235
1018.03,954.042
1019.48,953.473
1020.93,967.033
1022.38,960.212
1023.84,963.883
1025.29,959.132
1026.74,956.372
1028.19,969.332
1029.64,979.017
1031.09,988.817
1032.55,1006.99
1034,1021.54
1035.45,1011.92
1036.9,1027.01
1038.35,1020.32
1039.8,1029.37
1041.26,1051.24
1042.71,1042.06
1044.16,1043.71
1045.61,1059.79
1047.06,1059.86
1048.52,1072.26
1049.97,1114.53
1051.42,1108.11
1052.87,1102.81
1054.32,1119.48
1055.77,1137.52
1057.23,1149.85
1058.68,1176.37
1060.13,1183.33
1061.58,1187.67
1063.03,1182.8
1064.49,1200.47
1065.94,1201.42
1067.39,1202.13
1068.84,1212.51
1070.29,1213.09
1071.74,1253.05
1073.2,1269.75
1074.65,1256.41
1076.1,1278.6
1077.55,1285.35
1079,1291.52
1080.46,1297.3
1081.91,1301.23
1083.36,1309.04
1084.81,1279.98
1086.26,1273.14
1087.71,1294.89
1089.17,1329.75
1090.62,1302.69
1092.07,1289.97
1093.52,1298.11
1094.97,1295.12
1096.42,1281.25
1097.88,1294.79
1099.33,1292.92
1100.78,1296.25
1102.23,1296.13
1103.68,1280.59
1105.14,1256.29
1106.59,1238.8
1108.04,1242.48
1109.49,1252.01
1110.94,1256.21
1112.39,1233.75
1113.85,1251.03
1115.3,1255.11
1116.75,1245.43
1118.2,1230.47
1119.65,1214.44
1121.11,1201.44
1122.56,1206.57
1124.01,1183.54
1125.46,1186.43
1126.91,1197.77
1128.36,1176.17
1129.82,1173
1131.27,1179.44
1132.72,1182.37
1134.17,1195.75
1135.62,1171.98
1137.07,1171.07
1138.53,1156.64
1139.98,1137.42
1141.43,1136.18
1142.88,1149.83
1144.33,1149.88
1145.79,1141.73
1147.24,1150.81
1148.69,1136.46
1150.14,1125.08
1151.59,1150
1153.04,1130.99
1154.5,1153.89
1155.95,1165.37
1157.4,1150.48
1158.85,1130.85
1160.3,1145.25
1161.76,1140.01
1163.21,1121.32
1164.66,1138.79
1166.11,1143.54
1167.56,1116.62
1169.01,1132.15
1170.47,1136.39
1171.92,1136.03
1173.37,1151.61
1174.82,1154.74
1176.27,1157.84
1177.72,1157.59
1179.18,1135.37
1180.63,1153.46
1182.08,1159.76
1183.53,1168.38
1184.98,1172.78
1186.44,1163.17
1187.89,1155
1189.34,1152.23
1190.79,1203.18
1192.24,1174.9
1193.69,1162.61
1195.15,1163.93
1196.6,1175.72
1198.05,1190.74
1199.5,1203.83
1200.95,1194.68
1202.41,1179.94
1203.86,1185.17
1205.31,1188.66
1206.76,1210.57
1208.21,1220.69
1209.66,1192.01
1211.12,1179.69
1212.57,1191.3
1214.02,1217.55
1215.47,1233.63
1216.92,1221.21
1218.37,1208.92
1219.83,1243.1
1221.28,1224.38
1222.73,1235.43
1224.18,1243.42
1225.63,1235.37
1227.09,1234.07
1228.54,1247.52
1229.99,1241.72
1231.44,1244.67
1232.89,1227.35
1234.34,1243.66
1235.8,1248.49
1237.25,1237.95
1238.7,1231.14
1240.15,1244.57
1241.6,1271.57
1243.06,1303.11
1244.51,1289.8
1245.96,1305.57
1247.41,1281.91
1248.86,1300.53
1250.31,1322.51
1251.77,1315.77
1253.22,1310.36
1254.67,1312.77
1256.12,1336.47
1257.57,1369.47
1259.02,1368.42
1260.48,1379.31
1261.93,1378.24
1263.38,1408.51
1264.83,1419.99
1266.28,1416.04
1267.74,1431.82
1269.19,1439.73
1270.64,1443.03
1272.09,1454.39
1273.54,1468.54
1274.99,1476.69
1276.45,1518.6
1277.9,1540.15
1279.35,1566.44
1280.8,1612.91
1282.25,1624.03
1283.71,1664.78
1285.16,1689.57
1286.61,1716.04
1288.06,1754.13
1289.51,1774.34
1290.96,1825.16
1292.42,1893.81
1293.87,1968.7
1295.32,1979
1296.77,2011.97
1298.22,2034.28
1299.67,2086
1301.13,2161.42
1302.58,2232.18
1304.03,2294.1
1305.48,2354.23
1306.93,2470.55
1308.39,2577.41
1309.84,2660.55
1311.29,2782.28
1312.74,2881.02
1314.19,3022.09
1315.64,3157.16
1317.1,3276.34
1318.55,3419.2
1320,3550.11
1321.45,3642.91
1322.9,3760.15
1324.36,3994.42
1325.81,4156.21
1327.26,4341.91
1328.71,4465.63
1330.16,4544.09
1331.61,4651.09
1333.07,4736.08
1334.52,4755.19
1335.97,4773.39
1337.42,4735.06
1338.87,4691.95
1340.33,4676.02
1341.78,4569.06
1343.23,4517.54
1344.68,4384.35
1346.13,4250.85
1347.58,4078.49
1349.04,3876.94
1350.49,3730.95
1351.94,3601.4
1353.39,3440.07
1354.84,3290.35
1356.29,3104.92
1357.75,3024.82
1359.2,2926.59
1360.65,2787
1362.1,2668.69
1363.55,2572.21
1365.01,2472.48
1366.46,2400.09
1367.91,2337.06
1369.36,2279.42
1370.81,2197.73
1372.26,2114.76
1373.72,2068.58
1375.17,2042.07
1376.62,2002.03
1378.07,1946.5
1379.52,1911.99
1380.98,1869.61
1382.43,1855.66
1383.88,1856.34
1385.33,1845.39
1386.78,1815.57
1388.23,1791.31
1389.69,1793.62
1391.14,1738.68
1392.59,1729.35
1394.04,1766.39
1395.49,1742.3
1396.94,1727.04
1398.4,1724.02
1399.85,1724.94
1401.3,1705.66
1402.75,1689.35
1404.2,1701.85
1405.66,1713.6
1407.11,1709.5
1408.56,1701.55
1410.01,1694.72
1411.46,1698.39
1412.91,1679.22
1414.37,1663.69
1415.82,1674.91
1417.27,1698.38
1418.72,1692.92
1420.17,1703.63
1421.63,1700.58
1423.08,1687.04
1424.53,1703.84
1425.98,1753.91
1427.43,1740.5
1428.88,1753.62
1430.34,1712.45
1431.79,1729.58
1433.24,1738.54
1434.69,1751.19
1436.14,1778.98
1437.59,1770.84
1439.05,1781.94
1440.5,1795.9
1441.95,1789.53
1443.4,1813.48
1444.85,1832.79
1446.31,1834.43
1447.76,1836.83
1449.21,1848.19
1450.66,1854.81
1452.11,1892.48
1453.56,1912.79
1455.02,1915.15
1456.47,1932.92
1457.92,1936.25
1459.37,1956.04
1460.82,1964.07
1462.28,2038.93
1463.73,2036.45
1465.18,2045.7
1466.63,2079.91
1468.08,2108.26
1469.53,2125.51
1470.99,2141.22
1472.44,2167.88
1473.89,2193.56
1475.34,2221.06
1476.79,2241.47
1478.24,2274.75
1479.7,2330.1
1481.15,2394.91
1482.6,2397.88
1484.05,2412
1485.5,2466.26
1486.96,2498.21
1488.41,2531.28
1489.86,2582.88
1491.31,2665.4
1492.76,2720.79
1494.21,2765.79
1495.67,2843.31
1497.12,2932.21
1498.57,2951.67
1500.02,3045
1501.47,3130.88
1502.93,3185.2
1504.38,3281.13
1505.83,3401.21
1507.28,3501.05
1508.73,3588.3
1510.18,3697.44
1511.64,3860.06
1513.09,4010.32
1514.54,4142.17
1515.99,4298.5
1517.44,4489.41
1518.89,4704.99
1520.35,4982.47
1521.8,5250.5
1523.25,5521.03
1524.7,5807.06
1526.15,6154.9
1527.61,6573.68
1529.06,6980.88
1530.51,7560.63
1531.96,8164.48
1533.41,8770.78
1534.86,9472.28
1536.32,10291.8
1537.77,11156
1539.22,12047.2
1540.67,13202.5
1542.12,14409
1543.58,15763.9
1545.03,17340.3
1546.48,18717.6
1547.93,20313.3
1549.38,21988.6
1550.83,23939.6
1552.29,25853.4
1553.74,27683.5
1555.19,29524.2
1556.64,31325.7
1558.09,33158.6
1559.54,34796.3
1561,36149.2
1562.45,37171.1
1563.9,37728.7
1565.35,38115.7
1566.8,37852.7
1568.26,37243.6
1569.71,36206.7
1571.16,34730.6
1572.61,33012.1
1574.06,31199.3
1575.51,29110.9
1576.97,26949.5
1578.42,24941.5
1579.87,22970.3
1581.32,20926.9
1582.77,19058.1
1584.23,17373.1
1585.68,15870.3
1587.13,14474.8
1588.58,13268.1
1590.03,12140.8
1591.48,11156.4
1592.94,10419.9
1594.39,9651.38
1595.84,8955.63
1597.29,8462.95
1598.74,8041.13
1600.2,7656.5
1601.65,7278.39
1603.1,6886.22
1604.55,6576.78
1606,6301.28
1607.45,6021.67
1608.91,5718.88
1610.36,5433.67
1611.81,5092
1613.26,4926.75
1614.71,4623.55
1616.16,4434.47
1617.62,4142.55
1619.07,3957.69
1620.52,3827.18
1621.97,3643.2
1623.42,3527.88
1624.88,3448.16
1626.33,3280.36
1627.78,3162.14
1629.23,3081.84
1630.68,3022.49
1632.13,2915.34
1633.59,2788.72
1635.04,2742.88
1636.49,2706.54
1637.94,2608.75
1639.39,2522.43
1640.85,2493.82
1642.3,2495.4
1643.75,2431.46
1645.2,2368.58
1646.65,2334.63
1648.1,2254.6
1649.56,2198.47
1651.01,2195.64
1652.46,2177.92
1653.91,2116.34
1655.36,2081.2
1656.81,2057.56
1658.27,2016.4
1659.72,2028.25
1661.17,1962.42
1662.62,1918.13
1664.07,1922.62
1665.53,1893.3
1666.98,1864.73
1668.43,1863.86
1669.88,1861.09
1671.33,1828.33
1672.78,1796.28
1674.24,1766.13
1675.69,1747.76
1677.14,1733.73
1678.59,1716.33
1680.04,1695.05
1681.5,1683.94
1682.95,1681.11
1684.4,1640.81
1685.85,1629.13
1687.3,1645.33
1688.75,1612.32
1690.21,1617.79
1691.66,1557.92
1693.11,1599.83
1694.56,1570.28
1696.01,1539.74
1697.46,1561.91
1698.92,1546.34
1700.37,1536.02
1701.82,1530.35
1703.27,1538.28
1704.72,1507.36
1706.18,1510.72
1707.63,1503.88
1709.08,1473.14
1710.53,1481.42
1711.98,1501.73
1713.43,1475.25
1714.89,1479.29
1716.34,1494.91
1717.79,1487.06
1719.24,1478.41
1720.69,1460.88
1722.15,1491.16
1723.6,1500.71
1725.05,1499.91
1726.5,1513.5
1727.95,1461.2
1729.4,1500.83
1730.86,1484.99
1732.31,1458.57
1733.76,1448.02
1735.21,1464.15
1736.66,1475.05
1738.11,1446.33
1739.57,1443.77
1741.02,1439.34
1742.47,1438.91
1743.92,1449.8
1745.37,1468.54
1746.83,1428.89
1748.28,1410.55
1749.73,1417.65
1751.18,1400.82
1752.63,1382.56
1754.08,1377.42
1755.54,1353.1
1756.99,1384.89
1758.44,1371.53
1759.89,1364.54
1761.34,1347.19
1762.8,1345.92
1764.25,1355.92
1765.7,1351.64
1767.15,1312.22
1768.6,1333.62
1770.05,1339.41
1771.51,1297.11
1772.96,1301.83
1774.41,1312.99
1775.86,1286.61
1777.31,1287.1
1778.76,1289.45
1780.22,1262.37
1781.67,1246.84
1783.12,1263.97
1784.57,1304.91
1786.02,1268.31
1787.48,1288.26
1788.93,1273.32
1790.38,1254.33
1791.83,1261.28
1793.28,1260.19
1794.73,1257.75
1796.19,1245.86
1797.64,1258.27
1799.09,1256
1800.54,1231.37
1801.99,1228.58
1803.45,1244.56
1804.9,1238
1806.35,1236.67
1807.8,1226.22
1809.25,1250.49
1810.7,1241
1812.16,1230.83
1813.61,1218.39
1815.06,1218.62
1816.51,1220.62
1817.96,1222.28
1819.41,1220.71
1820.87,1213.84
1822.32,1228.81
1823.77,1199.13
1825.22,1194.29
1826.67,1214.36
1828.13,1209.82
1829.58,1221.8
1831.03,1245.04
1832.48,1235.61
1833.93,1250.46
1835.38,1242.95
1836.84,1222.61
1838.29,1238.78
1839.74,1234.59
1841.19,1240.33
1842.64,1241.29
1844.1,1288.91
1845.55,1277.47
1847,1271.18
1848.45,1293.07
1849.9,1306.76
1851.35,1311.8
1852.81,1290.72
1854.26,1284.81
1855.71,1305.42
1857.16,1321.93
1858.61,1303.03
1860.07,1273.69
1861.52,1318.07
1862.97,1308.34
1864.42,1323.51
1865.87,1316.51
1867.32,1330.84
1868.78,1318.55
1870.23,1322.27
1871.68,1301.79
1873.13,1287.31
1874.58,1307.48
1876.03,1274.34
1877.49,1281.4
1878.94,1236.87
1880.39,1258.64
1881.84,1245.78
1883.29,1262.82
1884.75,1274.29
1886.2,1269.2
1887.65,1268.4
1889.1,1246.68
1890.55,1233.84
1892,1220.83
1893.46,1213.41
1894.91,1186.33
1896.36,1170.43
1897.81,1160.61
1899.26,1163.89
1900.72,1184.06
1902.17,1183.53
1903.62,1188.7
1905.07,1182.02
1906.52,1161.41
1907.97,1148.86
1909.43,1151.01
1910.88,1163.1
1912.33,1146.02
1913.78,1145.86
1915.23,1143.07
1916.68,1130.18
1918.14,1127.06
1919.59,1156.27
1921.04,1158.55
1922.49,1133.57
1923.94,1149.38
1925.4,1164.47
1926.85,1167.59
1928.3,1120.66
1929.75,1143.61
1931.2,1117.79
1932.65,1128.11
1934.11,1128.84
1935.56,1100.11
1937.01,1152.88
1938.46,1114.57
1939.91,1143.95
1941.37,1129.37
1942.82,1155.27
1944.27,1134.59
1945.72,1148.43
1947.17,1146.96
1948.62,1124.41
1950.08,1130.07
1951.53,1144.23
1952.98,1155.69
1954.43,1126.77
1955.88,1130.46
1957.33,1154.36
1958.79,1172.69
1960.24,1151.54
1961.69,1141.83
1963.14,1158.17
1964.59,1162.88
1966.05,1165.27
1967.5,1158.06
1968.95,1167.25
1970.4,1174.16
1971.85,1176.29
1973.3,1176.99
1974.76,1193.92
1976.21,1175.56
1977.66,1152.38
1979.11,1176.16
1980.56,1198.58
1982.02,1198.19
1983.47,1193.45
1984.92,1177.07
1986.37,1199.51
1987.82,1212.35
1989.27,1204.47
1990.73,1183.27
1992.18,1184.32
1993.63,1198.48
1995.08,1198.55
1996.53,1205.28
1997.98,1200.36
1999.44,1180.01
2000.89,1205.49
2002.34,1189.9
2003.79,1219.68
2005.24,1205.53
2006.7,1195.03
2008.15,1193.71
2009.6,1223.66
2011.05,1225.62
2012.5,1213.02
2013.95,1172.64
2015.41,1188.58
2016.86,1175.88
2018.31,1177.06
2019.76,1156.83
2021.21,1193.62
2022.67,1176.58
2024.12,1159.55
2025.57,1160.51
2027.02,1115.31
2028.47,1142.79
2029.92,1156.02
2031.38,1143
2032.83,1148.55
2034.28,1146.85
2035.73,1162.94
2037.18,1156.04
2038.63,1106.87
2040.09,1128.38
2041.54,1123.43
2042.99,1104.77
2044.44,1070.24
2045.89,1104.18
2047.35,1093.71
2048.8,1081.21
2050.25,1108.45
2051.7,1095.12
2053.15,1089.29
2054.6,1095.5
2056.06,1063.29
2057.51,1079.6
2058.96,1095.68
2060.41,1118.93
2061.86,1084.69
2063.32,1078.68
2064.77,1052.04
2066.22,1040.83
2067.67,1058.14
2069.12,1067.47
2070.57,1051.51
2072.03,1041.3
2073.48,1038.2
2074.93,1035.07
2076.38,1026.71
2077.83,1029.36
2079.28,1036.45
2080.74,1048.99
2082.19,1050.84
2083.64,1032.1
2085.09,1043.63
2086.54,1030.5
2088,1025.99
2089.45,1049.24
2090.9,1045.17
2092.35,1030.1
2093.8,1025.6
2095.25,1045.28
2096.71,1061.68
2098.16,1034.17
2099.61,1021.76
2101.06,1043.52
2102.51,1071.47
2103.97,1059.41
2105.42,1041.41
2106.87,1041.8
2108.32,1075.44
2109.77,1074.37
2111.22,1061.71
2112.68,1041.04
2114.13,1028.15
2115.58,1052.82
2117.03,1060.38
2118.48,1052.53
2119.94,1051.71
2121.39,1061.91
2122.84,1071.71
2124.29,1075.97
2125.74,1084.68
2127.19,1075.85
2128.65,1057.58
2130.1,1041.9
2131.55,1054.93
2133,1049.38
2134.45,1045.14
2135.9,1068.44
2137.36,1087.87
2138.81,1073.43
2140.26,1060.27
2141.71,1074.39
2143.16,1081.77
2144.62,1066.63
2146.07,1083.03
2147.52,1086.1
2148.97,1076.62
2150.42,1052.2
2151.87,1062.67
2153.33,1062.7
2154.78,1065.43
2156.23,1077.94
2157.68,1101.01
2159.13,1073.04
2160.58,1084.01
2162.04,1079.02
2163.49,1074.98
2164.94,1091.65
2166.39,1088.46
2167.84,1121.09
2169.3,1094.36
2170.75,1091.65
2172.2,1101.55
2173.65,1110.71
2175.1,1121.25
2176.55,1117.25
2178.01,1132.72
2179.46,1120.52
2180.91,1122.97
2182.36,1111.9
2183.81,1147.17
2185.27,1127.72
2186.72,1098.15
2188.17,1118.6
2189.62,1122.46
2191.07,1134.18
2192.52,1120.09
2193.98,1142.76
2195.43,1121.59
2196.88,1119.8
2198.33,1174
2199.78,1140.67
2201.24,1136.71
2202.69,1136.82
2204.14,1122.73
2205.59,1147.74
2207.04,1124.55
2208.49,1133.05
2209.95,1131.76
2211.4,1169.44
2212.85,1139.56
2214.3,1152.22
2215.75,1169.57
2217.2,1115.39
2218.66,1153.64
2220.11,1129.66
2221.56,1166.99
2223.01,1150.27
2224.46,1134.41
2225.92,1150.48
2227.37,1153.98
2228.82,1144.49
2230.27,1156.59
2231.72,1163.93
2233.17,1175.26
2234.63,1170.64
2236.08,1157.04
2237.53,1162.43
2238.98,1181.21
2240.43,1166.31
2241.89,1167.18
2243.34,1148.47
2244.79,1178.48
2246.24,1183.65
2247.69,1162.07
2249.14,1184.83
2250.6,1171.43
2252.05,1186.58
2253.5,1191.43
2254.95,1201.29
2256.4,1210.11
2257.85,1188.05
2259.31,1199.98
2260.76,1219.05
2262.21,1218.51
2263.66,1211.09
2265.11,1210.82
2266.57,1218.53
2268.02,1239.81
2269.47,1251.56
2270.92,1220.25
2272.37,1230.57
2273.82,1234.8
2275.28,1256.06
2276.73,1265.43
2278.18,1248.94
2279.63,1248.57
2281.08,1254.88
2282.54,1257.33
2283.99,1263.98
2285.44,1237.51
2286.89,1235.23
2288.34,1262.22
2289.79,1297.24
2291.25,1280.97
2292.7,1281.25
2294.15,1271.49
2295.6,1292.47
2297.05,1270.62
2298.5,1259.48
2299.96,1285.29
2301.41,1299.52
2302.86,1303.49
2304.31,1323.52
2305.76,1320.81
2307.22,1309.95
2308.67,1310.69
2310.12,1320.55
2311.57,1333.72
2313.02,1321.29
2314.47,1347.02
2315.93,1344.26
2317.38,1347.32
2318.83,1362.07
2320.28,1362.85
2321.73,1329.02
2323.19,1350.66
2324.64,1358.13
2326.09,1377.05
2327.54,1415.21
2328.99,1390.92
2330.44,1385.44
2331.9,1399.82
2333.35,1420.92
2334.8,1399.35
2336.25,1421.92
2337.7,1432.24
2339.16,1432.5
2340.61,1424.4
2342.06,1428.1
2343.51,1430.19
2344.96,1595.96
2346.41,3506.54
2347.87,2270.82
2349.32,1486.63
2350.77,1450.56
2352.22,1491.98
2353.67,1527.76
2355.12,1506.64
2356.58,1533.58
2358.03,1530.03
2359.48,1525.75
2360.93,1561.36
2362.38,1558.52
2363.84,1601.8
2365.29,1623.2
2366.74,1596.66
2368.19,1625.62
2369.64,1633.14
2371.09,1640.25
2372.55,1646.45
2374,1684.22
2375.45,1717.57
2376.9,1724.29
2378.35,1742.38
2379.8,1757.08
2381.26,1787.03
2382.71,1809.33
2384.16,1824.82
2385.61,1850.88
2387.06,1900.9
2388.52,1919.71
2389.97,1916.14
2391.42,1950.32
2392.87,2012.37
2394.32,2034.86
2395.77,2074.05
2397.23,2127.26
2398.68,2174.6
2400.13,2208.6
2401.58,2217.51
2403.03,2276.89
2404.49,2313.74
2405.94,2319.06
2407.39,2350.71
2408.84,2397.55
2410.29,2436.44
2411.74,2494.7
2413.2,2518.37
2414.65,2562.67
2416.1,2592.92
2417.55,2644.01
2419,2658.86
2420.46,2661.94
2421.91,2687.72
2423.36,2663.41
2424.81,2676.71
2426.26,2715.92
2427.71,2715.19
2429.17,2700.27
2430.62,2705.45
2432.07,2761.7
2433.52,2716.52
2434.97,2774.44
2436.42,2771.23
2437.88,2705.39
2439.33,2669.52
2440.78,2683.08
2442.23,2602.46
2443.68,2621.95
2445.14,2609.59
2446.59,2589.96
2448.04,2623.07
2449.49,2597.92
2450.94,2577.54
2452.39,2557.58
2453.85,2529.34
2455.3,2501.74
2456.75,2499.41
2458.2,2510.09
2459.65,2486.65
2461.1,2455.66
2462.56,2451.64
2464.01,2396.36
2465.46,2463.16
2466.91,2413.49
2468.36,2381.17
2469.82,2331.14
2471.27,2322.12
2472.72,2371.1
2474.17,2330.19
2475.62,2336.32
2477.07,2338.35
2478.53,2287.93
2479.98,2306.36
2481.43,2327.69
2482.88,2293.64
2484.33,2349.17
2485.79,2353.75
2487.24,2301.85
2488.69,2336.68
2490.14,2327.06
2491.59,2335.54
2493.04,2343.27
2494.5,2304.61
2495.95,2297.1
2497.4,2369.8
2498.85,2356.73
2500.3,2349.65
2501.76,2363.9
2503.21,2368.96
2504.66,2400.11
2506.11,2417.45
2507.56,2393.47
2509.01,2404.07
2510.47,2377.22
2511.92,2393.75
2513.37,2395.75
2514.82,2415.98
2516.27,2414.79
2517.72,2472.73
2519.18,2481.97
2520.63,2482.32
2522.08,2507.65
2523.53,2552.3
2524.98,2604.99
2526.44,2585.24
2527.89,2577.68
2529.34,2616.82
2530.79,2634.1
2532.24,2588.44
2533.69,2705.96
2535.15,2705.37
2536.6,2757.42
2538.05,2751.33
2539.5,2796.81
2540.95,2821.19
2542.41,2854.8
2543.86,2915.15
2545.31,2903.77
2546.76,2939.37
2548.21,2982.59
2549.66,3102.08
2551.12,3087.7
2552.57,3068.55
2554.02,3206.78
2555.47,3264.31
2556.92,3324.01
2558.37,3351.64
2559.83,3373.46
2561.28,3413.06
2562.73,3497.34
2564.18,3589.38
2565.63,3662.95
2567.09,3682.04
2568.54,3799.24
2569.99,3891.98
2571.44,3956.84
2572.89,4033.1
2574.34,4109.58
2575.8,4166.76
2577.25,4300.66
2578.7,4426.05
2580.15,4464.7
2581.6,4626.33
2583.06,4743.66
2584.51,4819.38
2585.96,4948.18
2587.41,5013.87
2588.86,5257.31
2590.31,5410.83
2591.77,5568.93
2593.22,5707.45
2594.67,5929.13
2596.12,6169.3
2597.57,6312.38
2599.02,6504.82
2600.48,6766.68
2601.93,7061.69
2603.38,7297.73
2604.83,7568.32
2606.28,7800.07
2607.74,8036.5
2609.19,8365.43
2610.64,8739.64
2612.09,9023.7
2613.54,9366.29
2614.99,9803.64
2616.45,10119.5
2617.9,10569.8
2619.35,11016.7
2620.8,11467.7
2622.25,11965.1
2623.71,12453.3
2625.16,12925.9
2626.61,13494.5
2628.06,13934.2
2629.51,14553.6
2630.96,15048.7
2632.42,15669.9
2633.87,16299.7
2635.32,16924.7
2636.77,17449
2638.22,18055.4
2639.68,18548.1
2641.13,19100.4
2642.58,19689.7
2644.03,20193.1
2645.48,20530.6
2646.93,21049.1
2648.39,21494.7
2649.84,21891.9
2651.29,22018.9
2652.74,22401.5
2654.19,22620.8
2655.64,22792.6
2657.1,22933.4
2658.55,23020.2
2660,23088.8
2661.45,23000.2
2662.9,22840.2
2664.36,22610.7
2665.81,22361.1
2667.26,22140.9
2668.71,21696.3
2670.16,21464.2
2671.61,20991.3
2673.07,20521.2
2674.52,19974.9
2675.97,19419.7
2677.42,18991.7
2678.87,18321.2
2680.32,17706.1
2681.78,17239.6
2683.23,16699.7
2684.68,16042.1
2686.13,15384.6
2687.58,14903.2
2689.04,14237.8
2690.49,13610.2
2691.94,13088.6
2693.39,12598.1
2694.84,12044.6
2696.29,11594.2
2697.75,11078.9
2699.2,10589.2
2700.65,10170.6
2702.1,9726.4
2703.55,9274.75
2705.01,8908.93
2706.46,8485.66
2707.91,8203.88
2709.36,7832.59
2710.81,7565.44
2712.26,7263.36
2713.72,7022.88
2715.17,6686.1
2716.62,6440.79
2718.07,6176.42
2719.52,5996.24
2720.98,5794.27
2722.43,5619.05
2723.88,5387.51
2725.33,5168.27
2726.78,5031.52
2728.23,4952.28
2729.69,4746.81
2731.14,4557.52
2732.59,4441.74
2734.04,4346.49
2735.49,4212.37
2736.94,4135.49
2738.4,4000.04
2739.85,3880.69
2741.3,3774.61
2742.75,3702.05
2744.2,3596.55
2745.66,3579.58
2747.11,3433.31
2748.56,3414.33
2750.01,3274.91
2751.46,3225.45
2752.91,3166.44
2754.37,3112.29
2755.82,3062.09
2757.27,3008.65
2758.72,2941.88
2760.17,2894.21
2761.63,2855.12
2763.08,2751.07
2764.53,2758.86
2765.98,2728.85
2767.43,2705.16
2768.88,2632.39
2770.34,2628.93
2771.79,2599.76
2773.24,2571.66
2774.69,2548.64
2776.14,2491.15
2777.59,2435.8
2779.05,2460.61
2780.5,2357.35
2781.95,2363.82
2783.4,2359.04
2784.85,2306.95
2786.31,2296.73
2787.76,2275.26
2789.21,2279.8
2790.66,2204.92
2792.11,2187.85
2793.56,2187.07
2795.02,2168.81
2796.47,2158.19
2797.92,2122.2
2799.37,2114.93
2800.82,2068.66
2802.28,2106.55
2803.73,2060.97
2805.18,2035.69
2806.63,2031.73
2808.08,2023.53
2809.53,1999.87
2810.99,1957.36
2812.44,1964.68
2813.89,1988.03
2815.34,1916.59
2816.79,1929.89
2818.24,1938
2819.7,1924.8
2821.15,1894.84
2822.6,1901.09
2824.05,1912.99
2825.5,1854.24
2826.96,1914.02
2828.41,1862.51
2829.86,1842.44
2831.31,1844.34
2832.76,1849.24
2834.21,1831.92
2835.67,1817.47
2837.12,1787.86
2838.57,1766.88
2840.02,1773.17
2841.47,1764.79
2842.93,1780.13
2844.38,1769.92
2845.83,1743.31
2847.28,1766.17
2848.73,1738.73
2850.18,1754.04
2851.64,1747.55
2853.09,1731.17
2854.54,1727.12
2855.99,1734.21
2857.44,1734.72
2858.9,1769
2860.35,1705.79
2861.8,1720.15
2863.25,1721.13
2864.7,1743.67
2866.15,1718.6
2867.61,1707.42
2869.06,1708.59
2870.51,1700.74
2871.96,1729.27
2873.41,1731.15
2874.86,1743.71
2876.32,1737.41
2877.77,1707.37
2879.22,1723.58
2880.67,1736.69
2882.12,1728.31
2883.58,1688.65
2885.03,1725.07
2886.48,1736.66
2887.93,1734.83
2889.38,1771.87
2890.83,1731.73
2892.29,1696.11
2893.74,1715.63
2895.19,1718.78
2896.64,1740.98
2898.09,1724.2
2899.54,1746.99
2901,1750.67
2902.45,1693.51
2903.9,1754.1
2905.35,1751.13
2906.8,1741.32
2908.26,1726.42
2909.71,1713.71
2911.16,1700.08
2912.61,1724.69
2914.06,1693.85
2915.51,1685.05
2916.97,1704.06
2918.42,1697.55
2919.87,1705.16
2921.32,1666.48
2922.77,1649.51
2924.23,1630.21
2925.68,1624.78
2927.13,1600.91
2928.58,1626.8
2930.03,1583.71
2931.48,1579.93
2932.94,1571.39
2934.39,1561.71
2935.84,1540.86
2937.29,1554.38
2938.74,1530.58
2940.2,1524.77
2941.65,1475.2
2943.1,1496.91
2944.55,1473.18
2946,1485.93
2947.45,1438.99
2948.91,1444.57
2950.36,1425.49
2951.81,1389.6
2953.26,1366.82
2954.71,1382.46
2956.16,1365.43
2957.62,1353.21
2959.07,1373.07
2960.52,1333.04
2961.97,1336.11
2963.42,1352.83
2964.88,1330.95
2966.33,1308.54
2967.78,1279.57
2969.23,1302.09
2970.68,1290.65
2972.13,1295.17
2973.59,1271.55
2975.04,1233.62
2976.49,1225.18
2977.94,1249.54
2979.39,1223.07
2980.84,1232.36
2982.3,1234.16
2983.75,1220.41
2985.2,1208.22
2986.65,1226.34
2988.1,1224.02
2989.56,1213.88
2991.01,1209.84
2992.46,1197.08
2993.91,1198.24
2995.36,1186.47
2996.81,1195.76
2998.27,1184.83
2999.72,1170.76
3001.17,1171.91
3002.62,1160.83
3004.07,1173.64
3005.53,1161.5
3006.98,1163.54
3008.43,1149.77
3009.88,1156.3
3011.33,1162.64
3012.78,1151
3014.24,1132.53
3015.69,1144.01
3017.14,1119.85
3018.59,1148.49
3020.04,1134.87
3021.5,1158.77
3022.95,1152.9
3024.4,1158.6
3025.85,1125.52
3027.3,1138.47
3028.75,1133.95
3030.21,1139.91
3031.66,1160.93
3033.11,1156.09
3034.56,1131.99
3036.01,1155.26
3037.46,1144.87
3038.92,1108.74
3040.37,1133.74
3041.82,1119.21
3043.27,1130.03
3044.72,1143.11
3046.18,1144.98
3047.63,1117.86
3049.08,1124.87
3050.53,1152.08
3051.98,1128.2
3053.43,1136.19
3054.89,1140.46
3056.34,1130.98
3057.79,1131.96
3059.24,1108.17
3060.69,1134.93
3062.15,1136.68
3063.6,1162.15
3065.05,1168.97
3066.5,1166.03
3067.95,1174.8
3069.4,1157.01
3070.86,1160.69
3072.31,1174.81
3073.76,1169.02
3075.21,1199.48
3076.66,1189.15
3078.11,1204.09
3079.57,1195.2
3081.02,1217.46
3082.47,1211.46
3083.92,1226.67
3085.37,1227.35
3086.83,1218.7
3088.28,1228.09
3089.73,1256.86
3091.18,1265.21
3092.63,1277.68
3094.08,1302.31
3095.54,1306.81
3096.99,1340.97
3098.44,1375.72
3099.89,1403.2
3101.34,1377.53
3102.8,1379.58
3104.25,1381.26
3105.7,1407.51
3107.15,1428.27
3108.6,1448.53
3110.05,1461.18
3111.51,1498.16
3112.96,1518.28
3114.41,1547.54
3115.86,1570.47
3117.31,1564.44
3118.76,1616.72
3120.22,1659.55
3121.67,1648.97
3123.12,1656.45
3124.57,1679.33
3126.02,1696.74
3127.48,1725.27
3128.93,1772.55
3130.38,1768.6
3131.83,1778.55
3133.28,1819.08
3134.73,1823.75
3136.19,1805.17
3137.64,1812.61
3139.09,1830.86
3140.54,1856.12
3141.99,1835.48
3143.45,1865.57
3144.9,1882.54
3146.35,1854.34
3147.8,1843.33
3149.25,1867.62
3150.7,1833.45
3152.16,1921.86
3153.61,1889.66
3155.06,1885.53
3156.51,1862.6
3157.96,1879.5
3159.42,1878.77
3160.87,1921
3162.32,1892.56
3163.77,1941.68
3165.22,1913.84
3166.67,1921.37
3168.13,1917.29
3169.58,1923.81
3171.03,1940.69
3172.48,1981.34
3173.93,1972.98
3175.38,1959.72
3176.84,1988.84
3178.29,2044.27
3179.74,2068.67
3181.19,2069.67
3182.64,2105.73
3184.1,2133.42
3185.55,2151.02
3187,2129.3
3188.45,2121.7
3189.9,2175.92
3191.35,2203.16
3192.81,2211.27
3194.26,2233.86
3195.71,2249.96
3197.16,2261.86
3198.61,2270.84
3200.06,2286.66
3201.52,2281.68
3202.97,2284.09
3204.42,2278.65
3205.87,2259.28
3207.32,2230.71
3208.78,2216.47
3210.23,2185.4
3211.68,2162.81
3213.13,2135.86
3214.58,2074.96
3216.03,2055.62
3217.49,2023.54
3218.94,1987.07
3220.39,1917.95
3221.84,1879.7
3223.29,1828.48
3224.75,1794.28
3226.2,1747.12
3227.65,1698.37
3229.1,1621.21
3230.55,1581.6
3232,1562.37
3233.46,1528.56
3234.91,1454.21
3236.36,1409.82
3237.81,1382.36
3239.26,1377.3
3240.72,1357.02
3242.17,1319.01
3243.62,1279.3
3245.07,1242.39
3246.52,1218.6
3247.97,1184.95
3249.43,1155.72
3250.88,1182.95
3252.33,1113.66
3253.78,1129.39
3255.23,1106.39
3256.68,1097.88
3258.14,1103.24
3259.59,1060.34
3261.04,1026.68
3262.49,1049.68
3263.94,1020.64
3265.4,1039.85
3266.85,1012.94
3268.3,980.721
3269.75,1003.76
3271.2,1018.36
3272.65,1005.58
3274.11,986.411
3275.56,976.558
3277.01,992.04
3278.46,994.01
3279.91,956.257
3281.37,943.609
3282.82,960.905
3284.27,965.994
3285.72,936.992
3287.17,966.28
3288.62,972.168
3290.08,935.746
3291.53,947.877
3292.98,947.312
3294.43,946.954
3295.88,942.07
3297.33,958.196
3298.79,954.728
3300.24,930.401
3301.69,942.483
3303.14,933.709
3304.59,959.227
3306.05,944.701
3307.5,922.861
3308.95,919.023
3310.4,927.803
3311.85,911.297
3313.3,945.646
3314.76,932.233
3316.21,944.24
3317.66,917.804
3319.11,916.983
3320.56,923.594
3322.02,920.75
3323.47,905.08
3324.92,895.466
3326.37,913.866
3327.82,909.342
3329.27,897.466
3330.73,934.077
3332.18,918.658
3333.63,925.34
3335.08,920.241
3336.53,911.845
3337.98,892.582
3339.44,906.926
3340.89,886.022
3342.34,920.984
3343.79,904.56
3345.24,897.08
3346.7,894.227
3348.15,897.079
3349.6,897.721
3351.05,903.53
3352.5,910.22
3353.95,894.106
3355.41,885.719
3356.86,898.349
3358.31,895.317
3359.76,901.657
3361.21,901.98
3362.67,892.897
3364.12,894.265
3365.57,884.182
3367.02,893.64
3368.47,901.955
3369.92,896.933
3371.38,899.255
3372.83,873.91
3374.28,906.353
3375.73,892.049
3377.18,876.575
3378.63,890.388
3380.09,874.378
3381.54,875.979
3382.99,881.755
3384.44,900.271
3385.89,899.003
3387.35,893.099
3388.8,905.858
3390.25,886.438
3391.7,903.197
3393.15,890.992
3394.6,876.464
3396.06,897.942
3397.51,887.75
3398.96,885.114
3400.41,872.883
3401.86,864.241
3403.32,895.583
3404.77,909.805
3406.22,872.961
3407.67,869.313
3409.12,893.084
3410.57,880.087
3412.03,886.493
3413.48,877.038
3414.93,853.765
3416.38,903.838
3417.83,909.336
3419.28,902.418
3420.74,895.295
3422.19,876.274
3423.64,875.929
3425.09,887.391
3426.54,889.662
3428,841.857
3429.45,878.535
3430.9,883.035
3432.35,890.543
3433.8,894.647
3435.25,844.593
3436.71,859.246
3438.16,870.087
3439.61,889.377
3441.06,854.121
3442.51,893.869
3443.97,859.295
3445.42,849.478
3446.87,875.828
3448.32,839.338
3449.77,867.195
3451.22,863.462
3452.68,866.46
3454.13,873.877
3455.58,871.656
3457.03,880.489
3458.48,865.722
3459.94,842.417
3461.39,866.76
3462.84,867.04
3464.29,869.266
3465.74,861.122
3467.19,892.318
3468.65,878.286
3470.1,875.403
3471.55,885.332
3473,883.748
3474.45,888.207
3475.9,872.736
3477.36,863.214
3478.81,872.126
3480.26,855.556
3481.71,861.849
3483.16,898.61
3484.62,889.59
3486.07,873.606
3487.52,864.947
3488.97,864.239
3490.42,889.817
3491.87,888.64
3493.33,875.69
3494.78,872.415
3496.23,853.755
3497.68,883.677
3499.13,901.461
3500.58,878.511
3502.04,872.628
3503.49,868.226
3504.94,884.306
3506.39,873.872
3507.84,848.957
3509.3,871.982
3510.75,885.675
3512.2,864.024
3513.65,879.34
3515.1,892.877
3516.55,863.474
3518.01,876.432
3519.46,880.918
3520.91,864.758
3522.36,852.199
3523.81,863.16
3525.27,871.946
3526.72,860.774
3528.17,857.198
3529.62,859.227
3531.07,877.989
3532.52,891.843
3533.98,861.595
3535.43,877.362
3536.88,849.499
3538.33,863.085
3539.78,880.752
3541.24,892.516
3542.69,875.401
3544.14,857.588
3545.59,875.849
3547.04,886.824
3548.49,887.242
3549.95,893.133
3551.4,865.847
3552.85,854.619
3554.3,870.568
3555.75,852.706
3557.2,857.356
3558.66,850.487
3560.11,858.867
3561.56,835.199
3563.01,871.563
3564.46,867.889
3565.92,863.92
3567.37,853.136
3568.82,861.814
3570.27,848.8
3571.72,848.416
3573.17,863.963
3574.63,842.098
3576.08,866.321
3577.53,852.945
3578.98,862.034
3580.43,869.801
3581.89,900.848
3583.34,855.958
3584.79,888.667
3586.24,845.963
3587.69,854.621
3589.14,855.698
3590.6,833.684
3592.05,845.884
3593.5,861.677
3594.95,866.947
3596.4,861.553
3597.85,836.238
3599.31,852.845
3600.76,872.24
3602.21,864.532
3603.66,843.004
3605.11,859.848
3606.57,863.863
3608.02,856.985
3609.47,860.217
3610.92,836.735
3612.37,875.354
3613.82,844.098
3615.28,871.466
3616.73,869.533
3618.18,864.176
3619.63,850.14
3621.08,871.988
3622.54,848.508
3623.99,851.035
3625.44,850.076
3626.89,854.234
3628.34,872.671
3629.79,847.009
3631.25,850.28
3632.7,879.489
3634.15,877.37
3635.6,854.867
3637.05,874.798
3638.5,908.25
3639.96,861.675
3641.41,868.272
3642.86,857.66
3644.31,872.659
3645.76,841.957
3647.22,873.486
3648.67,859.117
3650.12,866.056
3651.57,850.498
3653.02,899.705
3654.47,875.799
3655.93,861.488
3657.38,876.604
3658.83,882.305
3660.28,852.597
3661.73,837.888
3663.19,873.61
3664.64,865.775
3666.09,877.516
3667.54,875.938
3668.99,875.696
3670.44,888.801
3671.9,862.139
3673.35,871.58
3674.8,875.261
3676.25,874.602
3677.7,892.39
3679.16,883.761
3680.61,880.685
3682.06,885.265
3683.51,866.204
3684.96,892.992
3686.41,842.078
3687.87,878.659
3689.32,871.383
3690.77,918.571
3692.22,862.418
3693.67,883.529
3695.12,880.419
3696.58,898.504
3698.03,866.872
3699.48,869.934
3700.93,882.103
3702.38,891.944
3703.84,893.792
3705.29,873.502
3706.74,877.732
3708.19,904.926
3709.64,910.752
3711.09,877.435
3712.55,883.519
3714,886.229
3715.45,879.773
3716.9,861.104
3718.35,900.919
3719.8,893.599
3721.26,873.186
3722.71,907.5
3724.16,883.096
3725.61,875.382
3727.06,875.432
3728.52,898.837
3729.97,872.057
3731.42,897.027
3732.87,890.868
3734.32,911.073
3735.77,891.381
3737.23,894.196
3738.68,888.712
3740.13,907.608
3741.58,888.304
3743.03,894.387
3744.49,899.566
3745.94,894.355
3747.39,899.063
3748.84,893.776
3750.29,907.226
3751.74,877.442
3753.2,878.537
3754.65,883.918
3756.1,876.437
3757.55,876.7
3759,877.492
3760.46,883.966
3761.91,892.281
3763.36,891.188
3764.81,880.63
3766.26,909.808
3767.71,920.798
3769.17,901.705
3770.62,913.931
3772.07,885.776
3773.52,898.976
3774.97,902.146
3776.42,902.345
3777.88,918.095
3779.33,904.803
3780.78,917.696
3782.23,888.05
3783.68,918.826
3785.14,922.533
3786.59,922.046
3788.04,919.89
3789.49,926.421
3790.94,885.872
3792.39,906.454
3793.85,905.26
3795.3,932.418
3796.75,912.754
3798.2,928.778
3799.65,927.532
3801.1,918.658
3802.56,901.637
3804.01,899.032
3805.46,893.454
3806.91,894.639
3808.36,914.002
3809.82,960.715
3811.27,940.929
3812.72,909.943
3814.17,930.818
3815.62,914.744
3817.07,904.053
3818.53,908.035
3819.98,924.875
3821.43,946.915
3822.88,941.865
3824.33,914.065
3825.79,924.829
3827.24,932.882
3828.69,930.655
3830.14,922.725
3831.59,914.167
3833.04,925.915
3834.5,935.163
3835.95,919.205
3837.4,927.822
3838.85,928.842
3840.3,942.666
3841.76,948.754
3843.21,926.337
3844.66,955.503
3846.11,938.264
3847.56,925.112
3849.01,912.747
3850.47,952.046
3851.92,944.564
3853.37,959.016
3854.82,939.714
3856.27,966.116
3857.72,945.641
3859.18,946.748
3860.63,948.211
3862.08,912.609
3863.53,953.49
3864.98,940.917
3866.44,966.904
3867.89,952.948
3869.34,947.02
3870.79,987.423
3872.24,931.423
3873.69,962.839
3875.15,962.528
3876.6,936.003
3878.05,968.533
3879.5,967.191
3880.95,951.714
3882.41,980.31
3883.86,997.982
3885.31,965.171
3886.76,961.693
3888.21,1002.79
3889.66,972.467
3891.12,936.75
3892.57,957.148
3894.02,992.357
3895.47,984.883
3896.92,1002.51
3898.37,998.214
3899.83,993.054
3901.28,994.304
3902.73,991.467
3904.18,987.949
3905.63,1018.66
3907.09,997.22
3908.54,996.4
3909.99,1019.54
3911.44,999.49
3912.89,998.035
3914.34,1006.54
3915.8,1027.43
3917.25,1033.79
3918.7,1025.18
3920.15,1024.84
3921.6,1024.34
3923.06,999.281
3924.51,1016.18
3925.96,1041.01
3927.41,1039.79
3928.86,1025.26
3930.31,1044.74
3931.77,1036.1
3933.22,1017
3934.67,1057.7
3936.12,1055.94
3937.57,1067.7
3939.02,1054.26
3940.48,1050.78
3941.93,1060.09
3943.38,1062.22
3944.83,1088.22
3946.28,1074.88
3947.74,1087.07
3949.19,1073.99
3950.64,1068.46
3952.09,1077.61
3953.54,1104.81
3954.99,1089.68
3956.45,1118.63
3957.9,1097.96
3959.35,1075.2
3960.8,1101.55
3962.25,1091.18
3963.71,1106.95
3965.16,1086.78
3966.61,1111.11
3968.06,1108.01
3969.51,1154.76
3970.96,1111.04
3972.42,1120.74
3973.87,1114.22
3975.32,1095.7
3976.77,1147.26
3978.22,1087.06
3979.68,1123.27
3981.13,1128.28
3982.58,1136.88
3984.03,1143.54
3985.48,1164.65
3986.93,1146.53
3988.39,1147.86
3989.84,1150.31
3991.29,1182.73
3992.74,1137.25
3994.19,1152.76
3995.64,1169.1
3997.1,1154.13
3998.55,1166.96
4000,1184.55
