-20,30.6344
-18.5482,37.6344
-17.0964,32.6344
-15.6446,26.6344
-14.1928,34.6344
-12.7411,41.6344
-11.2893,44.6344
-9.83749,46.6344
-8.3857,57.6344
-6.93391,75.6344
-5.48212,238.634
-4.03034,2604.63
-2.57855,10125.6
-1.12676,36282.6
0.325027,52925.6
1.77681,54719.6
3.2286,37410.6
4.68039,13564.6
6.13218,3808.63
7.58397,460.634
9.03575,99.6344
10.4875,85.6344
11.9393,87.6344
13.3911,92.6344
14.8429,91.6344
16.2947,86.6344
17.7465,81.6344
19.1983,68.6344
20.6501,58.6344
22.1018,52.6344
23.5536,46.6344
25.0054,41.6344
26.4572,37.6344
27.909,34.6344
29.3608,32.6344
30.8126,29.6344
32.2644,28.6344
33.7161,26.6344
35.1679,25.6344
36.6197,26.6344
38.0715,29.6344
39.5233,29.6344
40.9751,31.6344
42.4269,34.6344
43.8787,37.6344
45.3304,44.6344
46.7822,51.6344
48.234,72.6344
49.6858,118.634
51.1376,196.634
52.5894,321.634
54.0412,511.634
55.493,770.634
56.9447,1083.63
58.3965,1415.63
59.8483,1743.63
61.3001,1969.63
62.7519,2142.63
64.2037,2299.63
65.6555,2376.63
67.1073,2452.63
68.559,2495.63
70.0108,2529.63
71.4626,2606.63
72.9144,2657.63
74.3662,2690.63
75.818,2722.63
77.2698,2776.63
78.7216,2885.63
80.1733,2966.63
81.6251,3041.63
83.0769,3079.63
84.5287,3098.63
85.9805,3118.63
87.4323,3062.63
88.8841,2973.63
90.3359,2888.63
91.7877,2781.63
93.2394,2671.63
94.6912,2530.63
96.143,2430.63
97.5948,2343.63
99.0466,2211.63
100.498,2165.63
101.95,2072.63
103.402,2002.63
104.854,1957.63
106.306,1935.63
107.757,1913.63
109.209,1900.63
110.661,1873.63
112.113,1833.63
113.564,1815.63
115.016,1800.63
116.468,1766.63
117.92,1736.63
119.372,1715.63
120.823,1685.63
122.275,1630.63
123.727,1584.63
125.179,1542.63
126.631,1526.63
128.082,1526.63
129.534,1467.63
130.986,1440.63
132.438,1427.63
133.889,1394.63
135.341,1370.63
136.793,1359.63
138.245,1333.63
139.697,1311.63
141.148,1281.63
142.6,1275.63
144.052,1245.63
145.504,1217.63
146.956,1202.63
148.407,1195.63
149.859,1196.63
151.311,1164.63
152.763,1138.63
154.215,1137.63
155.666,1137.63
157.118,1113.63
158.57,1150.63
160.022,1160.63
161.473,1153.63
162.925,1160.63
164.377,1207.63
165.829,1223.63
167.281,1234.63
168.732,1250.63
170.184,1229.63
171.636,1174.63
173.088,1132.63
174.54,1093.63
175.991,1044.63
177.443,1030.63
178.895,1019.63
180.347,1022.63
181.798,1007.63
183.25,989.634
184.702,981.634
186.154,979.634
187.606,970.634
189.057,959.634
190.509,949.634
191.961,938.634
193.413,967.634
194.865,960.634
196.316,948.634
197.768,934.634
199.22,949.634
200.672,934.634
202.124,936.634
203.575,940.634
205.027,918.634
206.479,924.634
207.931,929.634
209.382,940.634
210.834,935.634
212.286,914.634
213.738,910.634
215.19,931.634
216.641,930.634
218.093,931.634
219.545,927.634
220.997,907.634
222.449,902.634
223.9,896.634
225.352,907.634
226.804,913.634
228.256,898.634
229.707,893.634
231.159,903.634
232.611,912.634
234.063,915.634
235.515,932.634
236.966,901.634
238.418,904.634
239.87,916.634
241.322,909.634
242.774,892.634
244.225,886.634
245.677,891.634
247.129,891.634
248.581,887.634
250.033,862.634
251.484,881.634
252.936,874.634
254.388,862.634
255.84,860.634
257.291,889.634
258.743,886.634
260.195,858.634
261.647,863.634
263.099,865.634
264.55,831.634
266.002,823.634
267.454,839.634
268.906,845.634
270.358,839.634
271.809,841.634
273.261,845.634
274.713,827.634
276.165,833.634
277.616,827.634
279.068,800.634
280.52,795.634
281.972,817.634
283.424,805.634
284.875,795.634
286.327,790.634
287.779,800.634
289.231,802.634
290.683,788.634
292.134,772.634
293.586,764.634
295.038,779.634
296.49,766.634
297.941,749.634
299.393,765.634
300.845,764.634
302.297,724.634
303.749,725.634
305.2,727.634
306.652,729.634
308.104,727.634
309.556,721.634
311.008,714.634
312.459,718.634
313.911,704.634
315.363,711.634
316.815,727.634
318.267,688.634
319.718,682.634
321.17,686.634
322.622,686.634
324.074,691.634
325.525,686.634
326.977,688.634
328.429,680.634
329.881,689.634
331.333,694.634
332.784,678.634
334.236,685.634
335.688,663.634
337.14,672.634
338.592,669.634
340.043,647.634
341.495,657.634
342.947,691.634
344.399,668.634
345.85,654.634
347.302,665.634
348.754,679.634
350.206,676.634
351.658,675.634
353.109,662.634
354.561,654.634
356.013,655.634
357.465,639.634
358.917,649.634
360.368,660.634
361.82,657.634
363.272,644.634
364.724,637.634
366.176,643.634
367.627,650.634
369.079,648.634
370.531,646.634
371.983,663.634
373.434,647.634
374.886,647.634
376.338,641.634
377.79,637.634
379.242,644.634
380.693,651.634
382.145,633.634
383.597,621.634
385.049,612.634
386.501,617.634
387.952,627.634
389.404,632.634
390.856,630.634
392.308,630.634
393.759,634.634
395.211,634.634
396.663,638.634
398.115,621.634
399.567,635.634
401.018,640.634
402.47,633.634
403.922,627.634
405.374,645.634
406.826,629.634
408.277,639.634
409.729,643.634
411.181,627.634
412.633,635.634
414.085,637.634
415.536,622.634
416.988,613.634
418.44,620.634
419.892,637.634
421.343,636.634
422.795,634.634
424.247,623.634
425.699,611.634
427.151,609.634
428.602,636.634
430.054,636.634
431.506,636.634
432.958,625.634
434.41,620.634
435.861,638.634
437.313,618.634
438.765,629.634
440.217,632.634
441.668,623.634
443.12,615.634
444.572,637.634
446.024,633.634
447.476,626.634
448.927,623.634
450.379,617.634
451.831,615.634
453.283,598.634
454.735,603.634
456.186,604.634
457.638,610.634
459.09,617.634
460.542,611.634
461.993,568.634
463.445,600.634
464.897,609.634
466.349,609.634
467.801,609.634
469.252,597.634
470.704,618.634
472.156,614.634
473.608,614.634
475.06,613.634
476.511,610.634
477.963,604.634
479.415,607.634
480.867,618.634
482.319,606.634
483.77,595.634
485.222,607.634
486.674,625.634
488.126,601.634
489.577,607.634
491.029,618.634
492.481,616.634
493.933,601.634
495.385,590.634
496.836,607.634
498.288,609.634
499.74,607.634
501.192,606.634
502.644,590.634
504.095,593.634
505.547,591.634
506.999,598.634
508.451,604.634
509.902,607.634
511.354,600.634
512.806,587.634
514.258,590.634
515.71,611.634
517.161,620.634
518.613,606.634
520.065,579.634
521.517,584.634
522.969,588.634
524.42,588.634
525.872,587.634
527.324,588.634
528.776,599.634
530.228,600.634
531.679,611.634
533.131,610.634
534.583,599.634
536.035,599.634
537.486,581.634
538.938,561.634
540.39,578.634
541.842,591.634
543.294,589.634
544.745,594.634
546.197,598.634
547.649,596.634
549.101,592.634
550.553,592.634
552.004,593.634
553.456,598.634
554.908,596.634
556.36,596.634
557.811,596.634
559.263,606.634
560.715,601.634
562.167,583.634
563.619,597.634
565.07,592.634
566.522,589.634
567.974,579.634
569.426,576.634
570.878,595.634
572.329,572.634
573.781,600.634
575.233,608.634
576.685,600.634
578.137,591.634
579.588,591.634
581.04,585.634
582.492,582.634
583.944,592.634
585.395,594.634
586.847,585.634
588.299,578.634
589.751,584.634
591.203,606.634
592.654,587.634
594.106,575.634
595.558,586.634
597.01,582.634
598.462,583.634
599.913,581.634
601.365,600.634
602.817,603.634
604.269,594.634
605.72,602.634
607.172,601.634
608.624,576.634
610.076,587.634
611.528,591.634
612.979,589.634
614.431,587.634
615.883,596.634
617.335,596.634
618.787,602.634
620.238,603.634
621.69,590.634
623.142,587.634
624.594,605.634
626.046,587.634
627.497,588.634
628.949,597.634
630.401,595.634
631.853,580.634
633.304,591.634
634.756,606.634
636.208,592.634
637.66,608.634
639.112,618.634
640.563,608.634
642.015,611.634
643.467,620.634
644.919,603.634
646.371,599.634
647.822,602.634
649.274,609.634
650.726,613.634
652.178,641.634
653.629,623.634
655.081,628.634
656.533,623.634
657.985,615.634
659.437,614.634
660.888,632.634
662.34,620.634
663.792,620.634
665.244,616.634
666.696,612.634
668.147,619.634
669.599,621.634
671.051,616.634
672.503,616.634
673.954,624.634
675.406,624.634
676.858,623.634
678.31,626.634
679.762,622.634
681.213,634.634
682.665,633.634
684.117,632.634
685.569,625.634
687.021,615.634
688.472,628.634
689.924,615.634
691.376,620.634
692.828,610.634
694.28,610.634
695.731,623.634
697.183,616.634
698.635,609.634
700.087,622.634
701.538,630.634
702.99,627.634
704.442,632.634
705.894,640.634
707.346,628.634
708.797,645.634
710.249,629.634
711.701,644.634
713.153,654.634
714.605,649.634
716.056,643.634
717.508,628.634
718.96,637.634
720.412,625.634
721.863,633.634
723.315,645.634
724.767,648.634
726.219,642.634
727.671,629.634
729.122,635.634
730.574,640.634
732.026,634.634
733.478,626.634
734.93,630.634
736.381,634.634
737.833,640.634
739.285,646.634
740.737,642.634
742.189,646.634
743.64,655.634
745.092,646.634
746.544,619.634
747.996,631.634
749.447,656.634
750.899,649.634
752.351,632.634
753.803,627.634
755.255,629.634
756.706,633.634
758.158,622.634
759.61,631.634
761.062,641.634
762.514,639.634
763.965,640.634
765.417,656.634
766.869,645.634
768.321,623.634
769.772,640.634
771.224,639.634
772.676,635.634
774.128,664.634
775.58,636.634
777.031,646.634
778.483,634.634
779.935,650.634
781.387,660.634
782.839,654.634
784.29,669.634
785.742,670.634
787.194,643.634
788.646,649.634
790.098,657.634
791.549,647.634
793.001,652.634
794.453,651.634
795.905,659.634
797.356,652.634
798.808,651.634
800.26,650.634
801.712,654.634
803.164,666.634
804.615,680.634
806.067,650.634
807.519,661.634
808.971,666.634
810.423,664.634
811.874,664.634
813.326,672.634
814.778,647.634
816.23,670.634
817.681,662.634
819.133,677.634
820.585,696.634
822.037,686.634
823.489,674.634
824.94,672.634
826.392,673.634
827.844,684.634
829.296,690.634
830.748,674.634
832.199,661.634
833.651,662.634
835.103,701.634
836.555,689.634
838.007,694.634
839.458,710.634
840.91,708.634
842.362,690.634
843.814,684.634
845.265,680.634
846.717,683.634
848.169,694.634
849.621,727.634
851.073,716.634
852.524,705.634
853.976,721.634
855.428,717.634
856.88,725.634
858.332,725.634
859.783,724.634
861.235,711.634
862.687,726.634
864.139,732.634
865.59,729.634
867.042,735.634
868.494,701.634
869.946,696.634
871.398,698.634
872.849,714.634
874.301,716.634
875.753,712.634
877.205,711.634
878.657,716.634
880.108,701.634
881.56,705.634
883.012,704.634
884.464,706.634
885.915,702.634
887.367,696.634
888.819,706.634
890.271,700.634
891.723,706.634
893.174,725.634
894.626,734.634
896.078,740.634
897.53,735.634
898.982,723.634
900.433,717.634
901.885,709.634
903.337,727.634
904.789,738.634
906.241,739.634
907.692,742.634
909.144,735.634
910.596,740.634
912.048,732.634
913.499,749.634
914.951,743.634
916.403,736.634
917.855,723.634
919.307,707.634
920.758,727.634
922.21,754.634
923.662,745.634
925.114,749.634
926.566,747.634
928.017,747.634
929.469,765.634
930.921,757.634
932.373,750.634
933.824,716.634
935.276,750.634
936.728,766.634
938.18,757.634
939.632,763.634
941.083,762.634
942.535,748.634
943.987,754.634
945.439,771.634
946.891,758.634
948.342,748.634
949.794,752.634
951.246,754.634
952.698,761.634
954.15,779.634
955.601,754.634
957.053,743.634
958.505,752.634
959.957,757.634
961.408,748.634
962.86,744.634
964.312,777.634
965.764,779.634
967.216,769.634
968.667,753.634
970.119,770.634
971.571,764.634
973.023,764.634
974.475,773.634
975.926,759.634
977.378,767.634
978.83,765.634
980.282,771.634
981.733,771.634
983.185,781.634
984.637,778.634
986.089,771.634
987.541,770.634
988.992,789.634
990.444,780.634
991.896,799.634
993.348,779.634
994.8,787.634
996.251,798.634
997.703,783.634
999.155,809.634
1000.61,788.634
1002.06,796.634
1003.51,802.634
1004.96,798.634
1006.41,790.634
1007.87,799.634
1009.32,812.634
1010.77,815.634
1012.22,823.634
1013.67,822.634
1015.12,812.634
1016.58,821.634
1018.03,811.634
1019.48,813.634
1020.93,836.634
1022.38,849.634
1023.84,859.634
1025.29,866.634
1026.74,856.634
1028.19,859.634
1029.64,873.634
1031.09,876.634
1032.55,862.634
1034,874.634
1035.45,886.634
1036.9,893.634
1038.35,910.634
1039.8,910.634
1041.26,915.634
1042.71,937.634
1044.16,945.634
1045.61,912.634
1047.06,917.634
1048.52,934.634
1049.97,946.634
1051.42,954.634
1052.87,967.634
1054.32,961.634
1055.77,966.634
1057.23,989.634
1058.68,1000.63
1060.13,1017.63
1061.58,1005.63
1063.03,1014.63
1064.49,1034.63
1065.94,1043.63
1067.39,1022.63
1068.84,1017.63
1070.29,1060.63
1071.74,1068.63
1073.2,1071.63
1074.65,1085.63
1076.1,1097.63
1077.55,1107.63
1079,1095.63
1080.46,1089.63
1081.91,1098.63
1083.36,1091.63
1084.81,1139.63
1086.26,1144.63
1087.71,1154.63
1089.17,1139.63
1090.62,1096.63
1092.07,1120.63
1093.52,1146.63
1094.97,1121.63
1096.42,1110.63
1097.88,1129.63
1099.33,1100.63
1100.78,1097.63
1102.23,1104.63
1103.68,1104.63
1105.14,1086.63
1106.59,1084.63
1108.04,1090.63
1109.49,1080.63
1110.94,1083.63
1112.39,1055.63
1113.85,1065.63
1115.3,1061.63
1116.75,1059.63
1118.2,1058.63
1119.65,1045.63
1121.11,1041.63
1122.56,1031.63
1124.01,1041.63
1125.46,1042.63
1126.91,1025.63
1128.36,1028.63
1129.82,1025.63
1131.27,1011.63
1132.72,1014.63
1134.17,994.634
1135.62,1010.63
1137.07,993.634
1138.53,987.634
1139.98,1008.63
1141.43,1008.63
1142.88,983.634
1144.33,988.634
1145.79,1004.63
1147.24,1020.63
1148.69,996.634
1150.14,984.634
1151.59,1000.63
1153.04,973.634
1154.5,975.634
1155.95,986.634
1157.4,997.634
1158.85,996.634
1160.3,992.634
1161.76,992.634
1163.21,984.634
1164.66,983.634
1166.11,971.634
1167.56,988.634
1169.01,993.634
1170.47,1002.63
1171.92,1008.63
1173.37,998.634
1174.82,1023.63
1176.27,1004.63
1177.72,1004.63
1179.18,1040.63
1180.63,1009.63
1182.08,1007.63
1183.53,1024.63
1184.98,1020.63
1186.44,1017.63
1187.89,1011.63
1189.34,1014.63
1190.79,1017.63
1192.24,1001.63
1193.69,1029.63
1195.15,1042.63
1196.6,1034.63
1198.05,1020.63
1199.5,1026.63
1200.95,1048.63
1202.41,1049.63
1203.86,1042.63
1205.31,1039.63
1206.76,1072.63
1208.21,1065.63
1209.66,1050.63
1211.12,1036.63
1212.57,1051.63
1214.02,1050.63
1215.47,1030.63
1216.92,1049.63
1218.37,1060.63
1219.83,1062.63
1221.28,1067.63
1222.73,1067.63
1224.18,1062.63
1225.63,1077.63
1227.09,1082.63
1228.54,1065.63
1229.99,1051.63
1231.44,1070.63
1232.89,1052.63
1234.34,1086.63
1235.8,1082.63
1237.25,1075.63
1238.7,1056.63
1240.15,1081.63
1241.6,1111.63
1243.06,1101.63
1244.51,1099.63
1245.96,1108.63
1247.41,1149.63
1248.86,1130.63
1250.31,1109.63
1251.77,1137.63
1253.22,1152.63
1254.67,1153.63
1256.12,1146.63
1257.57,1150.63
1259.02,1171.63
1260.48,1184.63
1261.93,1220.63
1263.38,1200.63
1264.83,1222.63
1266.28,1225.63
1267.74,1250.63
1269.19,1261.63
1270.64,1267.63
1272.09,1299.63
1273.54,1339.63
1274.99,1343.63
1276.45,1338.63
1277.9,1324.63
1279.35,1363.63
1280.8,1409.63
1282.25,1416.63
1283.71,1430.63
1285.16,1433.63
1286.61,1445.63
1288.06,1489.63
1289.51,1520.63
1290.96,1523.63
1292.42,1570.63
1293.87,1633.63
1295.32,1648.63
1296.77,1710.63
1298.22,1764.63
1299.67,1800.63
1301.13,1827.63
1302.58,1885.63
1304.03,1958.63
1305.48,1998.63
1306.93,2058.63
1308.39,2145.63
1309.84,2225.63
1311.29,2305.63
1312.74,2407.63
1314.19,2542.63
1315.64,2655.63
1317.1,2756.63
1318.55,2858.63
1320,2958.63
1321.45,3083.63
1322.9,3250.63
1324.36,3330.63
1325.81,3461.63
1327.26,3571.63
1328.71,3685.63
1330.16,3774.63
1331.61,3841.63
1333.07,3897.63
1334.52,3975.63
1335.97,4018.63
1337.42,3954.63
1338.87,3958.63
1340.33,3890.63
1341.78,3819.63
1343.23,3757.63
1344.68,3648.63
1346.13,3569.63
1347.58,3463.63
1349.04,3305.63
1350.49,3159.63
1351.94,3027.63
1353.39,2867.63
1354.84,2743.63
1356.29,2680.63
1357.75,2559.63
1359.2,2452.63
1360.65,2380.63
1362.1,2255.63
1363.55,2151.63
1365.01,2081.63
1366.46,2016.63
1367.91,1955.63
1369.36,1911.63
1370.81,1868.63
1372.26,1825.63
1373.72,1787.63
1375.17,1754.63
1376.62,1678.63
1378.07,1662.63
1379.52,1627.63
1380.98,1610.63
1382.43,1602.63
1383.88,1572.63
1385.33,1531.63
1386.78,1531.63
1388.23,1535.63
1389.69,1496.63
1391.14,1486.63
1392.59,1528.63
1394.04,1534.63
1395.49,1477.63
1396.94,1475.63
1398.4,1451.63
1399.85,1453.63
1401.3,1461.63
1402.75,1444.63
1404.2,1438.63
1405.66,1434.63
1407.11,1455.63
1408.56,1475.63
1410.01,1459.63
1411.46,1466.63
1412.91,1429.63
1414.37,1454.63
1415.82,1457.63
1417.27,1446.63
1418.72,1436.63
1420.17,1439.63
1421.63,1455.63
1423.08,1445.63
1424.53,1465.63
1425.98,1440.63
1427.43,1451.63
1428.88,1448.63
1430.34,1489.63
1431.79,1498.63
1433.24,1493.63
1434.69,1504.63
1436.14,1517.63
1437.59,1539.63
1439.05,1531.63
1440.5,1532.63
1441.95,1561.63
1443.4,1579.63
1444.85,1578.63
1446.31,1542.63
1447.76,1571.63
1449.21,1589.63
1450.66,1610.63
1452.11,1604.63
1453.56,1601.63
1455.02,1618.63
1456.47,1646.63
1457.92,1666.63
1459.37,1690.63
1460.82,1682.63
1462.28,1691.63
1463.73,1766.63
1465.18,1783.63
1466.63,1793.63
1468.08,1786.63
1469.53,1797.63
1470.99,1809.63
1472.44,1826.63
1473.89,1873.63
1475.34,1913.63
1476.79,1922.63
1478.24,1954.63
1479.7,1955.63
1481.15,2031.63
1482.6,2027.63
1484.05,2072.63
1485.5,2100.63
1486.96,2109.63
1488.41,2146.63
1489.86,2197.63
1491.31,2219.63
1492.76,2268.63
1494.21,2317.63
1495.67,2368.63
1497.12,2399.63
1498.57,2460.63
1500.02,2497.63
1501.47,2584.63
1502.93,2602.63
1504.38,2685.63
1505.83,2770.63
1507.28,2880.63
1508.73,2963.63
1510.18,3057.63
1511.64,3151.63
1513.09,3262.63
1514.54,3403.63
1515.99,3532.63
1517.44,3663.63
1518.89,3761.63
1520.35,3921.63
1521.8,4079.63
1523.25,4317.63
1524.7,4529.63
1526.15,4852.63
1527.61,5082.63
1529.06,5444.63
1530.51,5823.63
1531.96,6251.63
1533.41,6746.63
1534.86,7219.63
1536.32,7791.63
1537.77,8508.63
1539.22,9294.63
1540.67,10188.6
1542.12,11109.6
1543.58,12137.6
1545.03,13241.6
1546.48,14447.6
1547.93,15772.6
1549.38,17168.6
1550.83,18641.6
1552.29,20229.6
1553.74,21814.6
1555.19,23323.6
1556.64,24862.6
1558.09,26468.6
1559.54,27882.6
1561,29329.6
1562.45,30511.6
1563.9,31374.6
1565.35,31877.6
1566.8,32156.6
1568.26,31896.6
1569.71,31363.6
1571.16,30655.6
1572.61,29547.6
1574.06,28111.6
1575.51,26397.6
1576.97,24664.6
1578.42,22904.6
1579.87,21174.6
1581.32,19460.6
1582.77,17793.6
1584.23,16282.6
1585.68,14715.6
1587.13,13375.6
1588.58,12277.6
1590.03,11193.6
1591.48,10222.6
1592.94,9479.63
1594.39,8850.63
1595.84,8198.63
1597.29,7683.63
1598.74,7181.63
1600.2,6744.63
1601.65,6436.63
1603.1,6125.63
1604.55,5794.63
1606,5542.63
1607.45,5278.63
1608.91,5009.63
1610.36,4758.63
1611.81,4483.63
1613.26,4366.63
1614.71,4144.63
1616.16,3966.63
1617.62,3752.63
1619.07,3583.63
1620.52,3456.63
1621.97,3294.63
1623.42,3138.63
1624.88,3049.63
1626.33,2947.63
1627.78,2828.63
1629.23,2689.63
1630.68,2601.63
1632.13,2554.63
1633.59,2498.63
1635.04,2413.63
1636.49,2351.63
1637.94,2298.63
1639.39,2249.63
1640.85,2207.63
1642.3,2199.63
1643.75,2137.63
1645.2,2072.63
1646.65,2046.63
1648.1,2008.63
1649.56,1945.63
1651.01,1914.63
1652.46,1894.63
1653.91,1851.63
1655.36,1818.63
1656.81,1804.63
1658.27,1792.63
1659.72,1781.63
1661.17,1750.63
1662.62,1698.63
1664.07,1687.63
1665.53,1655.63
1666.98,1656.63
1668.43,1655.63
1669.88,1604.63
1671.33,1581.63
1672.78,1566.63
1674.24,1546.63
1675.69,1537.63
1677.14,1508.63
1678.59,1505.63
1680.04,1501.63
1681.5,1493.63
1682.95,1466.63
1684.4,1453.63
1685.85,1428.63
1687.3,1440.63
1688.75,1408.63
1690.21,1406.63
1691.66,1383.63
1693.11,1383.63
1694.56,1365.63
1696.01,1353.63
1697.46,1357.63
1698.92,1351.63
1700.37,1354.63
1701.82,1354.63
1703.27,1339.63
1704.72,1330.63
1706.18,1330.63
1707.63,1335.63
1709.08,1323.63
1710.53,1305.63
1711.98,1313.63
1713.43,1320.63
1714.89,1311.63
1716.34,1285.63
1717.79,1270.63
1719.24,1258.63
1720.69,1277.63
1722.15,1275.63
1723.6,1291.63
1725.05,1269.63
1726.5,1262.63
1727.95,1261.63
1729.4,1259.63
1730.86,1284.63
1732.31,1277.63
1733.76,1265.63
1735.21,1259.63
1736.66,1258.63
1738.11,1250.63
1739.57,1255.63
1741.02,1235.63
1742.47,1239.63
1743.92,1246.63
1745.37,1234.63
1746.83,1237.63
1748.28,1228.63
1749.73,1214.63
1751.18,1242.63
1752.63,1208.63
1754.08,1172.63
1755.54,1196.63
1756.99,1217.63
1758.44,1202.63
1759.89,1165.63
1761.34,1181.63
1762.8,1196.63
1764.25,1186.63
1765.7,1176.63
1767.15,1180.63
1768.6,1161.63
1770.05,1138.63
1771.51,1147.63
1772.96,1153.63
1774.41,1140.63
1775.86,1152.63
1777.31,1141.63
1778.76,1123.63
1780.22,1136.63
1781.67,1120.63
1783.12,1109.63
1784.57,1100.63
1786.02,1079.63
1787.48,1125.63
1788.93,1071.63
1790.38,1102.63
1791.83,1092.63
1793.28,1106.63
1794.73,1084.63
1796.19,1081.63
1797.64,1089.63
1799.09,1079.63
1800.54,1071.63
1801.99,1089.63
1803.45,1086.63
1804.9,1055.63
1806.35,1053.63
1807.8,1060.63
1809.25,1054.63
1810.7,1075.63
1812.16,1072.63
1813.61,1050.63
1815.06,1049.63
1816.51,1045.63
1817.96,1036.63
1819.41,1048.63
1820.87,1067.63
1822.32,1070.63
1823.77,1075.63
1825.22,1089.63
1826.67,1085.63
1828.13,1082.63
1829.58,1114.63
1831.03,1059.63
1832.48,1053.63
1833.93,1054.63
1835.38,1065.63
1836.84,1056.63
1838.29,1086.63
1839.74,1091.63
1841.19,1096.63
1842.64,1105.63
1844.1,1089.63
1845.55,1094.63
1847,1107.63
1848.45,1123.63
1849.9,1153.63
1851.35,1158.63
1852.81,1142.63
1854.26,1130.63
1855.71,1134.63
1857.16,1139.63
1858.61,1136.63
1860.07,1133.63
1861.52,1148.63
1862.97,1151.63
1864.42,1144.63
1865.87,1147.63
1867.32,1150.63
1868.78,1152.63
1870.23,1145.63
1871.68,1163.63
1873.13,1133.63
1874.58,1141.63
1876.03,1128.63
1877.49,1112.63
1878.94,1107.63
1880.39,1090.63
1881.84,1091.63
1883.29,1108.63
1884.75,1127.63
1886.2,1071.63
1887.65,1092.63
1889.1,1105.63
1890.55,1084.63
1892,1076.63
1893.46,1076.63
1894.91,1066.63
1896.36,1051.63
1897.81,1030.63
1899.26,1012.63
1900.72,1037.63
1902.17,1046.63
1903.62,1033.63
1905.07,1032.63
1906.52,1021.63
1907.97,1024.63
1909.43,1012.63
1910.88,1021.63
1912.33,1009.63
1913.78,1006.63
1915.23,1004.63
1916.68,993.634
1918.14,973.634
1919.59,983.634
1921.04,996.634
1922.49,998.634
1923.94,1018.63
1925.4,1005.63
1926.85,984.634
1928.3,953.634
1929.75,994.634
1931.2,992.634
1932.65,979.634
1934.11,1000.63
1935.56,1003.63
1937.01,990.634
1938.46,972.634
1939.91,956.634
1941.37,969.634
1942.82,993.634
1944.27,1007.63
1945.72,1009.63
1947.17,998.634
1948.62,1004.63
1950.08,1003.63
1951.53,984.634
1952.98,1013.63
1954.43,1007.63
1955.88,1000.63
1957.33,1003.63
1958.79,1000.63
1960.24,1000.63
1961.69,1001.63
1963.14,1012.63
1964.59,1012.63
1966.05,996.634
1967.5,1002.63
1968.95,1025.63
1970.4,1015.63
1971.85,1000.63
1973.3,996.634
1974.76,992.634
1976.21,995.634
1977.66,1022.63
1979.11,1042.63
1980.56,1037.63
1982.02,1025.63
1983.47,1025.63
1984.92,1033.63
1986.37,1026.63
1987.82,1050.63
1989.27,1044.63
1990.73,1038.63
1992.18,1048.63
1993.63,1046.63
1995.08,1033.63
1996.53,1062.63
1997.98,1050.63
1999.44,1056.63
2000.89,1052.63
2002.34,1027.63
2003.79,1071.63
2005.24,1058.63
2006.7,1035.63
2008.15,1031.63
2009.6,1024.63
2011.05,1008.63
2012.5,1024.63
2013.95,1023.63
2015.41,975.634
2016.86,1072.63
2018.31,1011.63
2019.76,991.634
2021.21,1024.63
2022.67,1012.63
2024.12,1003.63
2025.57,1001.63
2027.02,1020.63
2028.47,1010.63
2029.92,1071.63
2031.38,1013.63
2032.83,996.634
2034.28,973.634
2035.73,975.634
2037.18,992.634
2038.63,957.634
2040.09,969.634
2041.54,977.634
2042.99,963.634
2044.44,957.634
2045.89,964.634
2047.35,951.634
2048.8,963.634
2050.25,941.634
2051.7,934.634
2053.15,933.634
2054.6,930.634
2056.06,931.634
2057.51,939.634
2058.96,937.634
2060.41,910.634
2061.86,913.634
2063.32,915.634
2064.77,945.634
2066.22,928.634
2067.67,919.634
2069.12,926.634
2070.57,921.634
2072.03,912.634
2073.48,906.634
2074.93,893.634
2076.38,893.634
2077.83,895.634
2079.28,899.634
2080.74,893.634
2082.19,900.634
2083.64,896.634
2085.09,889.634
2086.54,897.634
2088,905.634
2089.45,899.634
2090.9,896.634
2092.35,895.634
2093.8,890.634
2095.25,881.634
2096.71,885.634
2098.16,885.634
2099.61,886.634
2101.06,875.634
2102.51,878.634
2103.97,903.634
2105.42,919.634
2106.87,901.634
2108.32,897.634
2109.77,890.634
2111.22,881.634
2112.68,901.634
2114.13,919.634
2115.58,895.634
2117.03,894.634
2118.48,927.634
2119.94,928.634
2121.39,914.634
2122.84,904.634
2124.29,909.634
2125.74,922.634
2127.19,926.634
2128.65,893.634
2130.1,906.634
2131.55,935.634
2133,916.634
2134.45,907.634
2135.9,922.634
2137.36,908.634
2138.81,900.634
2140.26,916.634
2141.71,937.634
2143.16,915.634
2144.62,927.634
2146.07,927.634
2147.52,923.634
2148.97,935.634
2150.42,931.634
2151.87,941.634
2153.33,954.634
2154.78,939.634
2156.23,935.634
2157.68,939.634
2159.13,947.634
2160.58,950.634
2162.04,952.634
2163.49,938.634
2164.94,932.634
2166.39,942.634
2167.84,958.634
2169.3,950.634
2170.75,939.634
2172.2,936.634
2173.65,963.634
2175.1,958.634
2176.55,948.634
2178.01,962.634
2179.46,965.634
2180.91,948.634
2182.36,949.634
2183.81,956.634
2185.27,954.634
2186.72,990.634
2188.17,999.634
2189.62,998.634
2191.07,989.634
2192.52,961.634
2193.98,977.634
2195.43,951.634
2196.88,964.634
2198.33,1000.63
2199.78,994.634
2201.24,1023.63
2202.69,988.634
2204.14,983.634
2205.59,990.634
2207.04,1004.63
2208.49,970.634
2209.95,979.634
2211.4,1002.63
2212.85,971.634
2214.3,989.634
2215.75,946.634
2217.2,970.634
2218.66,987.634
2220.11,975.634
2221.56,997.634
2223.01,998.634
2224.46,991.634
2225.92,960.634
2227.37,960.634
2228.82,965.634
2230.27,1002.63
2231.72,1005.63
2233.17,984.634
2234.63,1011.63
2236.08,1003.63
2237.53,981.634
2238.98,1003.63
2240.43,1007.63
2241.89,1018.63
2243.34,1013.63
2244.79,1012.63
2246.24,1028.63
2247.69,1032.63
2249.14,1024.63
2250.6,1019.63
2252.05,1014.63
2253.5,1021.63
2254.95,1017.63
2256.4,1007.63
2257.85,1033.63
2259.31,1051.63
2260.76,1027.63
2262.21,1032.63
2263.66,1028.63
2265.11,1032.63
2266.57,1047.63
2268.02,1042.63
2269.47,1035.63
2270.92,1033.63
2272.37,1023.63
2273.82,1055.63
2275.28,1041.63
2276.73,1033.63
2278.18,1038.63
2279.63,1039.63
2281.08,1056.63
2282.54,1067.63
2283.99,1058.63
2285.44,1092.63
2286.89,1084.63
2288.34,1080.63
2289.79,1088.63
2291.25,1094.63
2292.7,1084.63
2294.15,1072.63
2295.6,1090.63
2297.05,1080.63
2298.5,1098.63
2299.96,1110.63
2301.41,1124.63
2302.86,1096.63
2304.31,1076.63
2305.76,1142.63
2307.22,1147.63
2308.67,1118.63
2310.12,1111.63
2311.57,1107.63
2313.02,1148.63
2314.47,1169.63
2315.93,1135.63
2317.38,1136.63
2318.83,1153.63
2320.28,1114.63
2321.73,1123.63
2323.19,1149.63
2324.64,1169.63
2326.09,1174.63
2327.54,1179.63
2328.99,1167.63
2330.44,1172.63
2331.9,1181.63
2333.35,1180.63
2334.8,1194.63
2336.25,1198.63
2337.7,1202.63
2339.16,1198.63
2340.61,1198.63
2342.06,1222.63
2343.51,1232.63
2344.96,1230.63
2346.41,1246.63
2347.87,1226.63
2349.32,1236.63
2350.77,1274.63
2352.22,1281.63
2353.67,1285.63
2355.12,1288.63
2356.58,1291.63
2358.03,1280.63
2359.48,1309.63
2360.93,1278.63
2362.38,1300.63
2363.84,1318.63
2365.29,1322.63
2366.74,1320.63
2368.19,1341.63
2369.64,1372.63
2371.09,1397.63
2372.55,1423.63
2374,1425.63
2375.45,1457.63
2376.9,1457.63
2378.35,1470.63
2379.8,1509.63
2381.26,1506.63
2382.71,1519.63
2384.16,1522.63
2385.61,1546.63
2387.06,1570.63
2388.52,1563.63
2389.97,1624.63
2391.42,1654.63
2392.87,1686.63
2394.32,1711.63
2395.77,1765.63
2397.23,1740.63
2398.68,1753.63
2400.13,1812.63
2401.58,1858.63
2403.03,1902.63
2404.49,1911.63
2405.94,1945.63
2407.39,1997.63
2408.84,2020.63
2410.29,2050.63
2411.74,2073.63
2413.2,2101.63
2414.65,2120.63
2416.1,2189.63
2417.55,2232.63
2419,2230.63
2420.46,2234.63
2421.91,2245.63
2423.36,2213.63
2424.81,2234.63
2426.26,2303.63
2427.71,2291.63
2429.17,2298.63
2430.62,2353.63
2432.07,2323.63
2433.52,2329.63
2434.97,2264.63
2436.42,2285.63
2437.88,2312.63
2439.33,2285.63
2440.78,2277.63
2442.23,2247.63
2443.68,2223.63
2445.14,2244.63
2446.59,2213.63
2448.04,2225.63
2449.49,2223.63
2450.94,2197.63
2452.39,2159.63
2453.85,2152.63
2455.3,2133.63
2456.75,2122.63
2458.2,2106.63
2459.65,2095.63
2461.1,2078.63
2462.56,2056.63
2464.01,2069.63
2465.46,2047.63
2466.91,2002.63
2468.36,2019.63
2469.82,1976.63
2471.27,2039.63
2472.72,2029.63
2474.17,1987.63
2475.62,1969.63
2477.07,1947.63
2478.53,1939.63
2479.98,1921.63
2481.43,1929.63
2482.88,1971.63
2484.33,1973.63
2485.79,1976.63
2487.24,1936.63
2488.69,1936.63
2490.14,1930.63
2491.59,1955.63
2493.04,1951.63
2494.5,1949.63
2495.95,1929.63
2497.4,1957.63
2498.85,1936.63
2500.3,1971.63
2501.76,1986.63
2503.21,1977.63
2504.66,2008.63
2506.11,1987.63
2507.56,1969.63
2509.01,1956.63
2510.47,2028.63
2511.92,2009.63
2513.37,2010.63
2514.82,2052.63
2516.27,2062.63
2517.72,2078.63
2519.18,2070.63
2520.63,2051.63
2522.08,2080.63
2523.53,2109.63
2524.98,2126.63
2526.44,2101.63
2527.89,2130.63
2529.34,2168.63
2530.79,2207.63
2532.24,2220.63
2533.69,2227.63
2535.15,2259.63
2536.6,2250.63
2538.05,2346.63
2539.5,2319.63
2540.95,2344.63
2542.41,2373.63
2543.86,2409.63
2545.31,2438.63
2546.76,2463.63
2548.21,2447.63
2549.66,2494.63
2551.12,2538.63
2552.57,2615.63
2554.02,2658.63
2555.47,2663.63
2556.92,2689.63
2558.37,2727.63
2559.83,2785.63
2561.28,2813.63
2562.73,2844.63
2564.18,2953.63
2565.63,3021.63
2567.09,3043.63
2568.54,3092.63
2569.99,3146.63
2571.44,3216.63
2572.89,3258.63
2574.34,3330.63
2575.8,3343.63
2577.25,3513.63
2578.7,3625.63
2580.15,3683.63
2581.6,3746.63
2583.06,3821.63
2584.51,3906.63
2585.96,4031.63
2587.41,4184.63
2588.86,4286.63
2590.31,4384.63
2591.77,4477.63
2593.22,4650.63
2594.67,4775.63
2596.12,4923.63
2597.57,5119.63
2599.02,5273.63
2600.48,5432.63
2601.93,5612.63
2603.38,5793.63
2604.83,6044.63
2606.28,6238.63
2607.74,6509.63
2609.19,6688.63
2610.64,6963.63
2612.09,7163.63
2613.54,7479.63
2614.99,7791.63
2616.45,8108.63
2617.9,8448.63
2619.35,8794.63
2620.8,9120.63
2622.25,9512.63
2623.71,9892.63
2625.16,10333.6
2626.61,10730.6
2628.06,11122.6
2629.51,11672.6
2630.96,12067.6
2632.42,12621.6
2633.87,13060.6
2635.32,13549.6
2636.77,14024.6
2638.22,14562.6
2639.68,15018.6
2641.13,15397.6
2642.58,15844.6
2644.03,16348.6
2645.48,16768.6
2646.93,17271.6
2648.39,17518.6
2649.84,17988.6
2651.29,18311.6
2652.74,18561.6
2654.19,18782.6
2655.64,19115.6
2657.1,19224.6
2658.55,19355.6
2660,19477.6
2661.45,19443.6
2662.9,19310.6
2664.36,19205.6
2665.81,19092.6
2667.26,18833.6
2668.71,18703.6
2670.16,18502.6
2671.61,18235.6
2673.07,17795.6
2674.52,17411.6
2675.97,16850.6
2677.42,16479.6
2678.87,16008.6
2680.32,15601.6
2681.78,15066.6
2683.23,14530.6
2684.68,14012.6
2686.13,13535.6
2687.58,12985.6
2689.04,12576.6
2690.49,12036.6
2691.94,11581.6
2693.39,11081.6
2694.84,10596.6
2696.29,10154.6
2697.75,9706.63
2699.2,9353.63
2700.65,8944.63
2702.1,8517.63
2703.55,8148.63
2705.01,7766.63
2706.46,7501.63
2707.91,7150.63
2709.36,6871.63
2710.81,6562.63
2712.26,6251.63
2713.72,6054.63
2715.17,5835.63
2716.62,5592.63
2718.07,5330.63
2719.52,5167.63
2720.98,4996.63
2722.43,4778.63
2723.88,4622.63
2725.33,4482.63
2726.78,4306.63
2728.23,4143.63
2729.69,4077.63
2731.14,3910.63
2732.59,3781.63
2734.04,3696.63
2735.49,3590.63
2736.94,3471.63
2738.4,3381.63
2739.85,3288.63
2741.3,3164.63
2742.75,3127.63
2744.2,3104.63
2745.66,2956.63
2747.11,2888.63
2748.56,2835.63
2750.01,2796.63
2751.46,2751.63
2752.91,2713.63
2754.37,2631.63
2755.82,2587.63
2757.27,2531.63
2758.72,2494.63
2760.17,2395.63
2761.63,2392.63
2763.08,2365.63
2764.53,2294.63
2765.98,2299.63
2767.43,2261.63
2768.88,2183.63
2770.34,2187.63
2771.79,2137.63
2773.24,2098.63
2774.69,2069.63
2776.14,2049.63
2777.59,2074.63
2779.05,2002.63
2780.5,1983.63
2781.95,1972.63
2783.4,1982.63
2784.85,1959.63
2786.31,1915.63
2787.76,1883.63
2789.21,1882.63
2790.66,1853.63
2792.11,1830.63
2793.56,1795.63
2795.02,1792.63
2796.47,1785.63
2797.92,1783.63
2799.37,1758.63
2800.82,1758.63
2802.28,1754.63
2803.73,1711.63
2805.18,1699.63
2806.63,1701.63
2808.08,1678.63
2809.53,1641.63
2810.99,1652.63
2812.44,1648.63
2813.89,1602.63
2815.34,1608.63
2816.79,1585.63
2818.24,1601.63
2819.7,1600.63
2821.15,1585.63
2822.6,1563.63
2824.05,1553.63
2825.5,1548.63
2826.96,1564.63
2828.41,1542.63
2829.86,1557.63
2831.31,1505.63
2832.76,1487.63
2834.21,1506.63
2835.67,1516.63
2837.12,1513.63
2838.57,1512.63
2840.02,1469.63
2841.47,1495.63
2842.93,1440.63
2844.38,1461.63
2845.83,1448.63
2847.28,1431.63
2848.73,1422.63
2850.18,1445.63
2851.64,1439.63
2853.09,1447.63
2854.54,1439.63
2855.99,1426.63
2857.44,1404.63
2858.9,1438.63
2860.35,1417.63
2861.8,1405.63
2863.25,1429.63
2864.7,1407.63
2866.15,1412.63
2867.61,1426.63
2869.06,1439.63
2870.51,1429.63
2871.96,1491.63
2873.41,1445.63
2874.86,1445.63
2876.32,1408.63
2877.77,1424.63
2879.22,1413.63
2880.67,1432.63
2882.12,1456.63
2883.58,1453.63
2885.03,1448.63
2886.48,1439.63
2887.93,1399.63
2889.38,1423.63
2890.83,1410.63
2892.29,1460.63
2893.74,1438.63
2895.19,1416.63
2896.64,1410.63
2898.09,1411.63
2899.54,1416.63
2901,1399.63
2902.45,1401.63
2903.9,1461.63
2905.35,1402.63
2906.8,1431.63
2908.26,1432.63
2909.71,1426.63
2911.16,1402.63
2912.61,1389.63
2914.06,1371.63
2915.51,1383.63
2916.97,1366.63
2918.42,1383.63
2919.87,1372.63
2921.32,1378.63
2922.77,1356.63
2924.23,1345.63
2925.68,1328.63
2927.13,1330.63
2928.58,1356.63
2930.03,1322.63
2931.48,1320.63
2932.94,1281.63
2934.39,1298.63
2935.84,1287.63
2937.29,1278.63
2938.74,1254.63
2940.2,1262.63
2941.65,1233.63
2943.1,1197.63
2944.55,1204.63
2946,1210.63
2947.45,1169.63
2948.91,1152.63
2950.36,1164.63
2951.81,1177.63
2953.26,1134.63
2954.71,1144.63
2956.16,1159.63
2957.62,1134.63
2959.07,1113.63
2960.52,1121.63
2961.97,1096.63
2963.42,1094.63
2964.88,1057.63
2966.33,1061.63
2967.78,1085.63
2969.23,1067.63
2970.68,1054.63
2972.13,1060.63
2973.59,1034.63
2975.04,1028.63
2976.49,1040.63
2977.94,1033.63
2979.39,1023.63
2980.84,1017.63
2982.3,1020.63
2983.75,1000.63
2985.2,995.634
2986.65,975.634
2988.1,999.634
2989.56,1000.63
2991.01,996.634
2992.46,1003.63
2993.91,989.634
2995.36,977.634
2996.81,962.634
2998.27,969.634
2999.72,973.634
3001.17,951.634
3002.62,948.634
3004.07,940.634
3005.53,972.634
3006.98,962.634
3008.43,949.634
3009.88,950.634
3011.33,946.634
3012.78,949.634
3014.24,949.634
3015.69,914.634
3017.14,937.634
3018.59,929.634
3020.04,920.634
3021.5,937.634
3022.95,929.634
3024.4,926.634
3025.85,939.634
3027.3,936.634
3028.75,916.634
3030.21,960.634
3031.66,911.634
3033.11,931.634
3034.56,941.634
3036.01,919.634
3037.46,921.634
3038.92,927.634
3040.37,911.634
3041.82,925.634
3043.27,939.634
3044.72,905.634
3046.18,917.634
3047.63,923.634
3049.08,928.634
3050.53,931.634
3051.98,929.634
3053.43,924.634
3054.89,924.634
3056.34,926.634
3057.79,927.634
3059.24,945.634
3060.69,940.634
3062.15,937.634
3063.6,935.634
3065.05,942.634
3066.5,955.634
3067.95,944.634
3069.4,930.634
3070.86,941.634
3072.31,947.634
3073.76,948.634
3075.21,978.634
3076.66,947.634
3078.11,984.634
3079.57,981.634
3081.02,982.634
3082.47,982.634
3083.92,996.634
3085.37,1000.63
3086.83,1021.63
3088.28,1005.63
3089.73,1008.63
3091.18,1009.63
3092.63,1035.63
3094.08,1063.63
3095.54,1059.63
3096.99,1066.63
3098.44,1105.63
3099.89,1093.63
3101.34,1093.63
3102.8,1140.63
3104.25,1167.63
3105.7,1182.63
3107.15,1203.63
3108.6,1196.63
3110.05,1204.63
3111.51,1221.63
3112.96,1239.63
3114.41,1297.63
3115.86,1288.63
3117.31,1298.63
3118.76,1279.63
3120.22,1328.63
3121.67,1352.63
3123.12,1350.63
3124.57,1377.63
3126.02,1413.63
3127.48,1406.63
3128.93,1487.63
3130.38,1469.63
3131.83,1457.63
3133.28,1468.63
3134.73,1499.63
3136.19,1483.63
3137.64,1492.63
3139.09,1473.63
3140.54,1523.63
3141.99,1531.63
3143.45,1541.63
3144.9,1523.63
3146.35,1540.63
3147.8,1555.63
3149.25,1583.63
3150.7,1561.63
3152.16,1607.63
3153.61,1593.63
3155.06,1561.63
3156.51,1574.63
3157.96,1582.63
3159.42,1604.63
3160.87,1554.63
3162.32,1593.63
3163.77,1601.63
3165.22,1597.63
3166.67,1622.63
3168.13,1625.63
3169.58,1596.63
3171.03,1581.63
3172.48,1616.63
3173.93,1613.63
3175.38,1645.63
3176.84,1680.63
3178.29,1678.63
3179.74,1714.63
3181.19,1717.63
3182.64,1737.63
3184.1,1786.63
3185.55,1757.63
3187,1792.63
3188.45,1804.63
3189.9,1798.63
3191.35,1845.63
3192.81,1832.63
3194.26,1834.63
3195.71,1864.63
3197.16,1866.63
3198.61,1847.63
3200.06,1903.63
3201.52,1894.63
3202.97,1899.63
3204.42,1858.63
3205.87,1877.63
3207.32,1886.63
3208.78,1853.63
3210.23,1881.63
3211.68,1798.63
3213.13,1746.63
3214.58,1734.63
3216.03,1697.63
3217.49,1686.63
3218.94,1647.63
3220.39,1614.63
3221.84,1572.63
3223.29,1544.63
3224.75,1475.63
3226.2,1443.63
3227.65,1428.63
3229.1,1385.63
3230.55,1341.63
3232,1315.63
3233.46,1272.63
3234.91,1236.63
3236.36,1211.63
3237.81,1214.63
3239.26,1140.63
3240.72,1092.63
3242.17,1082.63
3243.62,1081.63
3245.07,1051.63
3246.52,1019.63
3247.97,979.634
3249.43,1008.63
3250.88,948.634
3252.33,922.634
3253.78,914.634
3255.23,902.634
3256.68,883.634
3258.14,918.634
3259.59,885.634
3261.04,869.634
3262.49,849.634
3263.94,848.634
3265.4,831.634
3266.85,805.634
3268.3,835.634
3269.75,833.634
3271.2,807.634
3272.65,815.634
3274.11,801.634
3275.56,797.634
3277.01,792.634
3278.46,788.634
3279.91,774.634
3281.37,775.634
3282.82,789.634
3284.27,796.634
3285.72,750.634
3287.17,769.634
3288.62,764.634
3290.08,757.634
3291.53,749.634
3292.98,732.634
3294.43,762.634
3295.88,743.634
3297.33,753.634
3298.79,752.634
3300.24,770.634
3301.69,752.634
3303.14,753.634
3304.59,739.634
3306.05,793.634
3307.5,753.634
3308.95,745.634
3310.4,748.634
3311.85,737.634
3313.3,737.634
3314.76,731.634
3316.21,746.634
3317.66,740.634
3319.11,724.634
3320.56,738.634
3322.02,727.634
3323.47,732.634
3324.92,738.634
3326.37,744.634
3327.82,744.634
3329.27,737.634
3330.73,731.634
3332.18,738.634
3333.63,747.634
3335.08,713.634
3336.53,708.634
3337.98,745.634
3339.44,719.634
3340.89,720.634
3342.34,727.634
3343.79,737.634
3345.24,727.634
3346.7,722.634
3348.15,715.634
3349.6,722.634
3351.05,725.634
3352.5,702.634
3353.95,729.634
3355.41,714.634
3356.86,688.634
3358.31,707.634
3359.76,734.634
3361.21,720.634
3362.67,727.634
3364.12,710.634
3365.57,717.634
3367.02,723.634
3368.47,706.634
3369.92,718.634
3371.38,729.634
3372.83,718.634
3374.28,686.634
3375.73,696.634
3377.18,716.634
3378.63,722.634
3380.09,730.634
3381.54,696.634
3382.99,695.634
3384.44,695.634
3385.89,689.634
3387.35,709.634
3388.8,692.634
3390.25,702.634
3391.7,691.634
3393.15,687.634
3394.6,698.634
3396.06,707.634
3397.51,711.634
3398.96,720.634
3400.41,698.634
3401.86,694.634
3403.32,704.634
3404.77,709.634
3406.22,727.634
3407.67,690.634
3409.12,700.634
3410.57,692.634
3412.03,685.634
3413.48,670.634
3414.93,710.634
3416.38,707.634
3417.83,694.634
3419.28,692.634
3420.74,725.634
3422.19,689.634
3423.64,713.634
3425.09,700.634
3426.54,686.634
3428,665.634
3429.45,699.634
3430.9,704.634
3432.35,710.634
3433.8,711.634
3435.25,679.634
3436.71,683.634
3438.16,683.634
3439.61,708.634
3441.06,703.634
3442.51,683.634
3443.97,675.634
3445.42,667.634
3446.87,700.634
3448.32,679.634
3449.77,673.634
3451.22,679.634
3452.68,711.634
3454.13,666.634
3455.58,669.634
3457.03,704.634
3458.48,686.634
3459.94,687.634
3461.39,672.634
3462.84,685.634
3464.29,691.634
3465.74,688.634
3467.19,688.634
3468.65,662.634
3470.1,696.634
3471.55,685.634
3473,666.634
3474.45,649.634
3475.9,689.634
3477.36,705.634
3478.81,710.634
3480.26,699.634
3481.71,668.634
3483.16,686.634
3484.62,654.634
3486.07,695.634
3487.52,675.634
3488.97,660.634
3490.42,681.634
3491.87,686.634
3493.33,696.634
3494.78,680.634
3496.23,680.634
3497.68,683.634
3499.13,681.634
3500.58,691.634
3502.04,706.634
3503.49,680.634
3504.94,663.634
3506.39,655.634
3507.84,688.634
3509.3,712.634
3510.75,715.634
3512.2,677.634
3513.65,679.634
3515.1,693.634
3516.55,683.634
3518.01,694.634
3519.46,687.634
3520.91,682.634
3522.36,680.634
3523.81,684.634
3525.27,685.634
3526.72,670.634
3528.17,690.634
3529.62,676.634
3531.07,688.634
3532.52,697.634
3533.98,691.634
3535.43,701.634
3536.88,689.634
3538.33,662.634
3539.78,684.634
3541.24,690.634
3542.69,672.634
3544.14,691.634
3545.59,696.634
3547.04,681.634
3548.49,673.634
3549.95,688.634
3551.4,674.634
3552.85,664.634
3554.3,667.634
3555.75,693.634
3557.2,701.634
3558.66,676.634
3560.11,670.634
3561.56,678.634
3563.01,679.634
3564.46,683.634
3565.92,683.634
3567.37,677.634
3568.82,680.634
3570.27,681.634
3571.72,665.634
3573.17,672.634
3574.63,686.634
3576.08,683.634
3577.53,699.634
3578.98,652.634
3580.43,671.634
3581.89,666.634
3583.34,668.634
3584.79,658.634
3586.24,689.634
3587.69,668.634
3589.14,687.634
3590.6,688.634
3592.05,670.634
3593.5,672.634
3594.95,666.634
3596.4,658.634
3597.85,659.634
3599.31,683.634
3600.76,686.634
3602.21,663.634
3603.66,685.634
3605.11,644.634
3606.57,683.634
3608.02,681.634
3609.47,675.634
3610.92,680.634
3612.37,700.634
3613.82,672.634
3615.28,676.634
3616.73,661.634
3618.18,700.634
3619.63,659.634
3621.08,688.634
3622.54,680.634
3623.99,687.634
3625.44,693.634
3626.89,684.634
3628.34,664.634
3629.79,669.634
3631.25,671.634
3632.7,679.634
3634.15,671.634
3635.6,667.634
3637.05,660.634
3638.5,678.634
3639.96,671.634
3641.41,681.634
3642.86,675.634
3644.31,663.634
3645.76,680.634
3647.22,671.634
3648.67,672.634
3650.12,660.634
3651.57,665.634
3653.02,653.634
3654.47,678.634
3655.93,706.634
3657.38,679.634
3658.83,687.634
3660.28,678.634
3661.73,678.634
3663.19,666.634
3664.64,687.634
3666.09,652.634
3667.54,675.634
3668.99,679.634
3670.44,696.634
3671.9,678.634
3673.35,670.634
3674.8,699.634
3676.25,689.634
3677.7,658.634
3679.16,678.634
3680.61,678.634
3682.06,695.634
3683.51,679.634
3684.96,685.634
3686.41,685.634
3687.87,677.634
3689.32,688.634
3690.77,662.634
3692.22,691.634
3693.67,672.634
3695.12,677.634
3696.58,683.634
3698.03,690.634
3699.48,691.634
3700.93,690.634
3702.38,677.634
3703.84,698.634
3705.29,684.634
3706.74,666.634
3708.19,685.634
3709.64,717.634
3711.09,699.634
3712.55,692.634
3714,675.634
3715.45,680.634
3716.9,686.634
3718.35,694.634
3719.8,701.634
3721.26,686.634
3722.71,671.634
3724.16,686.634
3725.61,697.634
3727.06,697.634
3728.52,685.634
3729.97,681.634
3731.42,697.634
3732.87,692.634
3734.32,686.634
3735.77,711.634
3737.23,707.634
3738.68,694.634
3740.13,669.634
3741.58,703.634
3743.03,676.634
3744.49,681.634
3745.94,714.634
3747.39,695.634
3748.84,702.634
3750.29,711.634
3751.74,689.634
3753.2,690.634
3754.65,690.634
3756.1,673.634
3757.55,694.634
3759,685.634
3760.46,700.634
3761.91,706.634
3763.36,710.634
3764.81,712.634
3766.26,716.634
3767.71,681.634
3769.17,693.634
3770.62,709.634
3772.07,675.634
3773.52,684.634
3774.97,698.634
3776.42,680.634
3777.88,695.634
3779.33,697.634
3780.78,714.634
3782.23,716.634
3783.68,718.634
3785.14,733.634
3786.59,699.634
3788.04,692.634
3789.49,682.634
3790.94,712.634
3792.39,712.634
3793.85,705.634
3795.3,717.634
3796.75,721.634
3798.2,714.634
3799.65,707.634
3801.1,710.634
3802.56,668.634
3804.01,720.634
3805.46,708.634
3806.91,705.634
3808.36,729.634
3809.82,721.634
3811.27,707.634
3812.72,703.634
3814.17,706.634
3815.62,733.634
3817.07,725.634
3818.53,724.634
3819.98,756.634
3821.43,700.634
3822.88,701.634
3824.33,702.634
3825.79,723.634
3827.24,764.634
3828.69,761.634
3830.14,708.634
3831.59,736.634
3833.04,710.634
3834.5,718.634
3835.95,722.634
3837.4,732.634
3838.85,723.634
3840.3,721.634
3841.76,768.634
3843.21,691.634
3844.66,717.634
3846.11,718.634
3847.56,701.634
3849.01,762.634
3850.47,700.634
3851.92,729.634
3853.37,696.634
3854.82,709.634
3856.27,737.634
3857.72,738.634
3859.18,749.634
3860.63,746.634
3862.08,710.634
3863.53,737.634
3864.98,748.634
3866.44,774.634
3867.89,733.634
3869.34,724.634
3870.79,743.634
3872.24,747.634
3873.69,736.634
3875.15,747.634
3876.6,720.634
3878.05,731.634
3879.5,756.634
3880.95,728.634
3882.41,741.634
3883.86,756.634
3885.31,740.634
3886.76,735.634
3888.21,749.634
3889.66,752.634
3891.12,745.634
3892.57,775.634
3894.02,772.634
3895.47,779.634
3896.92,766.634
3898.37,765.634
3899.83,759.634
3901.28,748.634
3902.73,770.634
3904.18,760.634
3905.63,781.634
3907.09,771.634
3908.54,774.634
3909.99,795.634
3911.44,783.634
3912.89,786.634
3914.34,784.634
3915.8,756.634
3917.25,776.634
3918.7,813.634
3920.15,801.634
3921.6,827.634
3923.06,802.634
3924.51,772.634
3925.96,816.634
3927.41,809.634
3928.86,798.634
3930.31,844.634
3931.77,821.634
3933.22,825.634
3934.67,828.634
3936.12,824.634
3937.57,829.634
3939.02,833.634
3940.48,824.634
3941.93,814.634
3943.38,821.634
3944.83,834.634
3946.28,830.634
3947.74,834.634
3949.19,830.634
3950.64,839.634
3952.09,821.634
3953.54,812.634
3954.99,847.634
3956.45,841.634
3957.9,831.634
3959.35,882.634
3960.8,845.634
3962.25,858.634
3963.71,844.634
3965.16,849.634
3966.61,862.634
3968.06,860.634
3969.51,867.634
3970.96,851.634
3972.42,865.634
3973.87,868.634
3975.32,878.634
3976.77,869.634
3978.22,878.634
3979.68,875.634
3981.13,871.634
3982.58,898.634
3984.03,883.634
3985.48,912.634
3986.93,874.634
3988.39,901.634
3989.84,931.634
3991.29,901.634
3992.74,897.634
3994.19,888.634
3995.64,913.634
3997.1,913.634
3998.55,921.634
4000,918.634
