0.897666,94.9763
2.35189,94.9763
3.8061,489.962
5.26032,169.781
6.71454,155.044
8.16876,140.632
9.62298,131.863
11.0772,125.246
12.5314,115.588
13.9856,104.382
15.4399,98.2117
16.8941,91.254
18.3483,82.8335
19.8025,77.0744
21.2567,74.2531
22.711,71.3194
24.1652,68.1959
25.6194,66.9308
27.0736,66.0415
28.5278,64.9595
29.982,63.1882
31.4363,61.3202
32.8905,58.4906
34.3447,58.4615
35.7989,54.1892
37.2531,52.9762
38.7074,55.1659
40.1616,61.8252
41.6158,69.8544
43.07,76.4347
44.5242,91.0391
45.9785,117.454
47.4327,158.094
48.8869,245.416
50.3411,375.88
51.7953,523.2
53.2495,691.198
54.7038,861.167
56.158,1018.21
57.6122,1159.48
59.0664,1259.9
60.5206,1341.26
61.9749,1374.72
63.4291,1414.28
64.8833,1451.95
66.3375,1489.47
67.7917,1484.53
69.246,1503.7
70.7002,1508.69
72.1544,1548.96
73.6086,1585.55
75.0628,1587.88
76.5171,1582.88
77.9713,1631.54
79.4255,1692.29
80.8797,1718.18
82.3339,1689.9
83.7882,1699.08
85.2424,1665.01
86.6966,1617.66
88.1508,1581.82
89.605,1564.1
91.0592,1498.45
92.5135,1438.76
93.9677,1387.28
95.4219,1330.51
96.8761,1297.7
98.3303,1255.29
99.7846,1208.9
101.239,1187.79
102.693,1176.62
104.147,1165.53
105.601,1116.62
107.056,1101.07
108.51,1088.53
109.964,1077.78
111.418,1089.6
112.873,1076.25
114.327,1064.3
115.781,1045.8
117.235,1013.49
118.689,976.311
120.144,983.135
121.598,983.218
123.052,960.325
124.506,930.953
125.961,929.927
127.415,913.687
128.869,889.131
130.323,872.681
131.777,859.16
133.232,871.895
134.686,837.788
136.14,804.221
137.594,796.813
139.048,796.124
140.503,779.014
141.957,777.449
143.411,773.523
144.865,762.287
146.32,761.905
147.774,739.002
149.228,722.71
150.682,711.976
152.136,702.744
153.591,675.098
155.045,681.125
156.499,681.993
157.953,674.307
159.408,672.343
160.862,678.347
162.316,676.59
163.77,682.144
165.224,681.6
166.679,658.204
168.133,641.605
169.587,657.074
171.041,659.36
172.496,643.455
173.95,632.311
175.404,631.195
176.858,635.32
178.312,636.644
179.767,638.259
181.221,638.091
182.675,646.857
184.129,649.634
185.583,646.409
187.038,637.169
188.492,625.457
189.946,631.628
191.4,642.265
192.855,644.659
194.309,660.154
195.763,667.958
197.217,643.068
198.671,634.468
200.126,637.41
201.58,630.672
203.034,613.604
204.488,599.805
205.943,616.838
207.397,622.345
208.851,617.077
210.305,609.056
211.759,610.065
213.214,606.888
214.668,611.911
216.122,607.968
217.576,597.004
219.031,605.804
220.485,606.391
221.939,612.009
223.393,610.195
224.847,599.558
226.302,620.767
227.756,605.18
229.21,617.916
230.664,622.724
232.118,610.403
233.573,595.373
235.027,608.971
236.481,609.474
237.935,604.124
239.39,607.606
240.844,606.729
242.298,613.451
243.752,609.593
245.206,608.445
246.661,604.136
248.115,609.265
249.569,582.026
251.023,578.86
252.478,581.393
253.932,584.406
255.386,579.14
256.84,587.578
258.294,590.561
259.749,577.789
261.203,581.568
262.657,603.339
264.111,573.113
265.566,583.361
267.02,575.976
268.474,570.281
269.928,583.094
271.382,576.748
272.837,567.071
274.291,566.6
275.745,570.155
277.199,570.162
278.654,564.276
280.108,550.766
281.562,546.701
283.016,552.276
284.47,551.011
285.925,537.213
287.379,550.392
288.833,536.71
290.287,532.424
291.741,535.079
293.196,529.936
294.65,520.579
296.104,514.025
297.558,515.686
299.013,509.961
300.467,505.187
301.921,513.089
303.375,502.68
304.829,506.911
306.284,512.734
307.738,514.828
309.192,503.405
310.646,508.592
312.101,508.156
313.555,506.284
315.009,507.228
316.463,499.348
317.917,502.023
319.372,491.822
320.826,483.399
322.28,481.364
323.734,483.719
325.189,485.09
326.643,479.073
328.097,474.613
329.551,473.019
331.005,476.479
332.46,494.568
333.914,498.804
335.368,479.518
336.822,476.573
338.276,484.573
339.731,476.394
341.185,482.967
342.639,484.943
344.093,485.492
345.548,480.918
347.002,473.314
348.456,492.363
349.91,473.069
351.364,458.238
352.819,462.115
354.273,474.841
355.727,476.263
357.181,459.542
358.636,462.699
360.09,469.669
361.544,473.702
362.998,476.359
364.452,473.963
365.907,475.293
367.361,471.837
368.815,458.837
370.269,446.142
371.724,465.519
373.178,465.958
374.632,469.172
376.086,466.489
377.54,465.84
378.995,475.033
380.449,481.835
381.903,456.212
383.357,457.051
384.811,459.517
386.266,458.715
387.72,475.309
389.174,467.798
390.628,468.163
392.083,467.994
393.537,462.991
394.991,453.442
396.445,466.247
397.899,469.095
399.354,473.153
400.808,472.613
402.262,464.208
403.716,447.241
405.171,475.153
406.625,463.957
408.079,464.464
409.533,465.609
410.987,456.72
412.442,480.306
413.896,477.336
415.35,451.354
416.804,453.744
418.259,473.921
419.713,460.892
421.167,461.222
422.621,467.351
424.075,472.78
425.53,473.955
426.984,473.454
428.438,475.968
429.892,475.35
431.346,487.652
432.801,486.818
434.255,478.516
435.709,478.291
437.163,457.262
438.618,465.551
440.072,472.069
441.526,482.158
442.98,487.163
444.434,483.11
445.889,472.709
447.343,465.134
448.797,470.543
450.251,483.516
451.706,493.368
453.16,478.733
454.614,473.539
456.068,473.323
457.522,471.624
458.977,479.503
460.431,493.568
461.885,486.135
463.339,496.279
464.794,483.584
466.248,468.943
467.702,472.163
469.156,488.636
470.61,476.833
472.065,481.019
473.519,487.122
474.973,481.13
476.427,472.404
477.882,497.218
479.336,491.16
480.79,485.644
482.244,474.117
483.698,468.889
485.153,473
486.607,475.661
488.061,477.58
489.515,471.554
490.969,462.026
492.424,462.39
493.878,478.455
495.332,475.595
496.786,461.488
498.241,472.894
499.695,476.825
501.149,471.891
502.603,466.871
504.057,453.173
505.512,454.854
506.966,454.938
508.42,453.2
509.874,456.325
511.329,450.167
512.783,457.562
514.237,439.55
515.691,444.465
517.145,454.27
518.6,455.463
520.054,455.349
521.508,457.32
522.962,445.886
524.417,446.978
525.871,453.162
527.325,452.073
528.779,441.082
530.233,451.71
531.688,449.74
533.142,453.878
534.596,453.04
536.05,448.37
537.505,461.017
538.959,447.84
540.413,445.256
541.867,444.262
543.321,443.957
544.776,452.513
546.23,464.102
547.684,450.965
549.138,465.061
550.592,466.167
552.047,455.934
553.501,448.802
554.955,452.186
556.409,451.621
557.864,451.74
559.318,448.635
560.772,441.977
562.226,450.682
563.68,460.444
565.135,458.045
566.589,451.691
568.043,447.855
569.497,456.544
570.952,449.749
572.406,440.076
573.86,444.951
575.314,460.932
576.768,465.505
578.223,462.584
579.677,452.771
581.131,455.529
582.585,447.624
584.039,449.404
585.494,453.984
586.948,449.883
588.402,452.62
589.856,464.507
591.311,445.518
592.765,453.045
594.219,435.409
595.673,434.079
597.127,452.954
598.582,458.039
600.036,437.55
601.49,452.309
602.944,453.286
604.399,456.542
605.853,460.004
607.307,451.97
608.761,436.996
610.215,459.365
611.67,477.611
613.124,474.553
614.578,464.319
616.032,459.338
617.487,441.075
618.941,461.014
620.395,463.873
621.849,461.554
623.303,457.517
624.758,465.453
626.212,467.64
627.666,454.397
629.12,461.46
630.575,462.464
632.029,467.194
633.483,471.218
634.937,463.838
636.391,465.357
637.846,447.734
639.3,454.881
640.754,457.9
642.208,466.664
643.662,464.602
645.117,443.736
646.571,460.151
648.025,463.415
649.479,460.528
650.934,461.614
652.388,464.202
653.842,463.038
655.296,484.203
656.75,478.362
658.205,462.536
659.659,460.539
661.113,471.989
662.567,466.098
664.022,462.423
665.476,472.159
666.93,473.404
668.384,468.009
669.838,458.701
671.293,465.419
672.747,470.372
674.201,484.208
675.655,469.099
677.109,475.144
678.564,484.421
680.018,480.015
681.472,487.624
682.926,483.621
684.381,480.13
685.835,475.458
687.289,473.449
688.743,476.397
690.198,472.336
691.652,476.648
693.106,482.022
694.56,473.939
696.014,480.162
697.469,482.953
698.923,482.804
700.377,478.335
701.831,489.692
703.285,482.065
704.74,469.007
706.194,477.658
707.648,483.253
709.102,483.29
710.557,485.831
712.011,488.257
713.465,487.663
714.919,486.101
716.373,482.853
717.828,485.636
719.282,499.625
720.736,496.921
722.19,486.964
723.645,484.194
725.099,485.148
726.553,489.384
728.007,492.852
729.461,481.525
730.916,474.232
732.37,485.415
733.824,491.671
735.278,491.094
736.732,488.922
738.187,481.877
739.641,479.987
741.095,485.48
742.549,492.822
744.004,499.093
745.458,494.043
746.912,494.538
748.366,485.189
749.82,482.123
751.275,481.169
752.729,487.055
754.183,491.771
755.637,486.393
757.092,490.257
758.546,482.644
760,491.847
761.454,499.742
762.908,506.965
764.363,507.634
765.817,499.909
767.271,496.724
768.725,499.829
770.18,501.623
771.634,499.587
773.088,494.475
774.542,498.42
775.996,487.733
777.451,480.597
778.905,505.962
780.359,490.04
781.813,491.368
783.268,500.609
784.722,503.137
786.176,498.754
787.63,503.238
789.084,508.207
790.539,499.826
791.993,486.05
793.447,494.21
794.901,498.643
796.355,509.118
797.81,514.405
799.264,510.214
800.718,502.828
802.172,500.408
803.627,502.526
805.081,509.216
806.535,510.421
807.989,515.167
809.443,506.278
810.898,517.456
812.352,516.288
813.806,522.659
815.26,520.262
816.715,509.542
818.169,504.484
819.623,513.874
821.077,514.916
822.531,525.362
823.986,523.104
825.44,522.904
826.894,520.278
828.348,524.615
829.802,518.371
831.257,540.036
832.711,523.109
834.165,532.716
835.619,533.435
837.074,524.053
838.528,519.28
839.982,515.321
841.436,518.865
842.891,532.278
844.345,532.097
845.799,532.417
847.253,535.919
848.707,538.742
850.162,533.159
851.616,547.755
853.07,557.009
854.524,545.022
855.978,536.24
857.433,552.523
858.887,558.875
860.341,558.409
861.795,555.179
863.25,546.869
864.704,538.402
866.158,539.171
867.612,552.353
869.066,555.352
870.521,532.703
871.975,525.385
873.429,527.07
874.883,526.461
876.338,528.011
877.792,537.45
879.246,543.225
880.7,534.044
882.154,538.72
883.609,533.751
885.063,543.227
886.517,549.086
887.971,539.052
889.425,534.367
890.88,536.403
892.334,536.017
893.788,547.138
895.242,545.709
896.697,541.214
898.151,539.181
899.605,539.482
901.059,545.236
902.513,541.447
903.968,539.702
905.422,550.108
906.876,534.741
908.33,552.511
909.785,562.639
911.239,555.801
912.693,546.016
914.147,555.462
915.601,548.642
917.056,568.081
918.51,562.678
919.964,555.484
921.418,558.413
922.873,564.649
924.327,568.68
925.781,554.43
927.235,557.183
928.689,568.84
930.144,561.524
931.598,557.611
933.052,568.858
934.506,581.535
935.961,572.311
937.415,563.781
938.869,566.781
940.323,571.572
941.777,559.814
943.232,554.916
944.686,560.451
946.14,560.069
947.594,560.655
949.048,554.244
950.503,578.314
951.957,575.478
953.411,553.898
954.865,544.115
956.32,557.297
957.774,572.029
959.228,570.855
960.682,572.457
962.136,555.402
963.591,577.311
965.045,563.587
966.499,559.369
967.953,567.844
969.408,571.386
970.862,579.714
972.316,590.692
973.77,587.45
975.224,571.498
976.679,565.973
978.133,580.331
979.587,579.694
981.041,582.596
982.495,588.166
983.95,573.401
985.404,588.475
986.858,589.978
988.312,587.892
989.767,603.993
991.221,593.791
992.675,582.581
994.129,585.915
995.583,588.072
997.038,606.247
998.492,604.226
999.946,586.974
1001.4,594.617
1002.85,598.761
1004.31,596.039
1005.76,604.516
1007.22,605.634
1008.67,634.192
1010.13,616.918
1011.58,628.342
1013.03,629.738
1014.49,621.722
1015.94,618.915
1017.4,617.412
1018.85,630.018
1020.31,624.367
1021.76,620.627
1023.21,644.427
1024.67,651.281
1026.12,651.526
1027.58,648.039
1029.03,640.685
1030.48,653.121
1031.94,672.541
1033.39,651.616
1034.85,652.198
1036.3,672.412
1037.76,671.791
1039.21,673.572
1040.66,682.496
1042.12,687.53
1043.57,689.265
1045.03,684.207
1046.48,677.505
1047.94,695.138
1049.39,696.088
1050.84,699.085
1052.3,708.322
1053.75,709.952
1055.21,721.923
1056.66,710.023
1058.11,725.34
1059.57,725.447
1061.02,729.274
1062.48,726.175
1063.93,748.011
1065.39,759.118
1066.84,759.568
1068.29,776.033
1069.75,774.063
1071.2,763.56
1072.66,776.19
1074.11,783.052
1075.57,798.378
1077.02,799.24
1078.47,801.255
1079.93,816.297
1081.38,815.855
1082.84,805.989
1084.29,821.833
1085.75,813.39
1087.2,817.345
1088.65,814.244
1090.11,798.7
1091.56,805.008
1093.02,840.957
1094.47,816.978
1095.92,809.562
1097.38,809.195
1098.83,808.454
1100.29,809.046
1101.74,806.663
1103.2,806.371
1104.65,794.311
1106.1,787.876
1107.56,800.528
1109.01,808.409
1110.47,788.82
1111.92,805.053
1113.38,797.652
1114.83,792.213
1116.28,792.198
1117.74,776.864
1119.19,792.715
1120.65,798.82
1122.1,764.632
1123.55,765.074
1125.01,782.947
1126.46,779.659
1127.92,778.19
1129.37,772.407
1130.83,754.227
1132.28,765.77
1133.73,769.673
1135.19,790.835
1136.64,779.344
1138.1,768.707
1139.55,787.501
1141.01,788.94
1142.46,779.419
1143.91,788.595
1145.37,786.483
1146.82,776.625
1148.28,773.014
1149.73,781.778
1151.18,754.362
1152.64,767.725
1154.09,776.452
1155.55,775.688
1157,782.572
1158.46,791.427
1159.91,771.898
1161.36,783.381
1162.82,799.128
1164.27,796.153
1165.73,792.595
1167.18,787.134
1168.64,789.022
1170.09,781.763
1171.54,776.025
1173,795.944
1174.45,782.243
1175.91,778.235
1177.36,802.708
1178.82,785.786
1180.27,800.416
1181.72,809.54
1183.18,803.854
1184.63,801.322
1186.09,804.266
1187.54,795.584
1188.99,811.742
1190.45,808.678
1191.9,793.037
1193.36,812.484
1194.81,826.335
1196.27,823.525
1197.72,815.345
1199.17,822.994
1200.63,828.769
1202.08,814.402
1203.54,844.995
1204.99,823.128
1206.45,839.159
1207.9,849.579
1209.35,842.215
1210.81,847.047
1212.26,851.249
1213.72,829.473
1215.17,822.979
1216.62,850.201
1218.08,843.002
1219.53,845.721
1220.99,841.893
1222.44,851.691
1223.9,857.325
1225.35,856.373
1226.8,863.115
1228.26,882.142
1229.71,895.431
1231.17,894.869
1232.62,863.587
1234.08,873.797
1235.53,879.063
1236.98,891.161
1238.44,877.753
1239.89,882.344
1241.35,898.6
1242.8,886.817
1244.25,897.401
1245.71,918.009
1247.16,924.039
1248.62,929.275
1250.07,955.014
1251.53,943.403
1252.98,944.399
1254.43,956.969
1255.89,964.97
1257.34,968.813
1258.8,969.359
1260.25,982.491
1261.71,1005.22
1263.16,980.027
1264.61,1015.86
1266.07,1026.9
1267.52,1027.78
1268.98,1035.77
1270.43,1051.96
1271.89,1067.14
1273.34,1094.91
1274.79,1097.08
1276.25,1083.41
1277.7,1121.92
1279.16,1138.3
1280.61,1159.59
1282.06,1173.88
1283.52,1205.3
1284.97,1222.13
1286.43,1238.22
1287.88,1284.75
1289.34,1329.04
1290.79,1342.35
1292.24,1350.87
1293.7,1397.19
1295.15,1421.75
1296.61,1482.01
1298.06,1502.1
1299.52,1545.62
1300.97,1629.2
1302.42,1684.01
1303.88,1719.41
1305.33,1803.91
1306.79,1866.39
1308.24,1919.4
1309.69,1999.61
1311.15,2103.83
1312.6,2188.23
1314.06,2284.27
1315.51,2368.58
1316.97,2486.85
1318.42,2594.14
1319.87,2653.93
1321.33,2799.26
1322.78,2921.45
1324.24,3052.11
1325.69,3114.87
1327.15,3200.41
1328.6,3289.79
1330.05,3336.23
1331.51,3355.96
1332.96,3395.77
1334.42,3401.19
1335.87,3365.99
1337.32,3350.67
1338.78,3280.95
1340.23,3233.53
1341.69,3149.63
1343.14,3045.5
1344.6,2942.72
1346.05,2853.96
1347.5,2750.41
1348.96,2645.96
1350.41,2539.62
1351.87,2423.17
1353.32,2306.38
1354.78,2223.58
1356.23,2131.66
1357.68,2036.54
1359.14,1974.28
1360.59,1873.54
1362.05,1800.18
1363.5,1743.34
1364.96,1692.24
1366.41,1628.87
1367.86,1580.79
1369.32,1554.41
1370.77,1511.54
1372.23,1469.43
1373.68,1457.04
1375.13,1393.42
1376.59,1391.26
1378.04,1331.55
1379.5,1308.89
1380.95,1281.54
1382.41,1272.35
1383.86,1268.4
1385.31,1244.13
1386.77,1223.8
1388.22,1209.08
1389.68,1195.68
1391.13,1191.92
1392.59,1208.27
1394.04,1159.84
1395.49,1177.52
1396.95,1172.28
1398.4,1160.15
1399.86,1162.28
1401.31,1137.07
1402.76,1119.91
1404.22,1131.36
1405.67,1129.35
1407.13,1118.39
1408.58,1112.96
1410.04,1110.42
1411.49,1107.41
1412.94,1098.41
1414.4,1120
1415.85,1115.26
1417.31,1101.01
1418.76,1115.4
1420.22,1126.9
1421.67,1107.67
1423.12,1088.24
1424.58,1099.36
1426.03,1109.77
1427.49,1118.54
1428.94,1129.77
1430.4,1113.9
1431.85,1095.23
1433.3,1112.18
1434.76,1122.46
1436.21,1109.39
1437.67,1131.18
1439.12,1140.24
1440.57,1126.17
1442.03,1127.27
1443.48,1146.55
1444.94,1139.49
1446.39,1154.55
1447.85,1146.85
1449.3,1133.94
1450.75,1173.8
1452.21,1194.25
1453.66,1185.17
1455.12,1171.55
1456.57,1175.91
1458.03,1193.47
1459.48,1199.95
1460.93,1202.66
1462.39,1220.02
1463.84,1215.74
1465.3,1218.11
1466.75,1209.68
1468.2,1257.01
1469.66,1242.47
1471.11,1258.49
1472.57,1275.64
1474.02,1295.15
1475.48,1294.32
1476.93,1315.02
1478.38,1340.67
1479.84,1342.61
1481.29,1348.57
1482.75,1383.35
1484.2,1401.18
1485.66,1386.18
1487.11,1443.95
1488.56,1461.54
1490.02,1482.75
1491.47,1486.82
1492.93,1485.29
1494.38,1477.72
1495.83,1540.79
1497.29,1581.43
1498.74,1622.18
1500.2,1670.61
1501.65,1698.24
1503.11,1726.72
1504.56,1733.84
1506.01,1747.62
1507.47,1833.62
1508.92,1883.73
1510.38,1930.96
1511.83,1990.61
1513.29,2052.25
1514.74,2107.92
1516.19,2181.31
1517.65,2270.43
1519.1,2381.87
1520.56,2503.13
1522.01,2602.75
1523.46,2742.29
1524.92,2898.41
1526.37,3047.9
1527.83,3246.94
1529.28,3476.55
1530.74,3591.24
1532.19,3874.23
1533.64,4185.01
1535.1,4496.59
1536.55,4848.48
1538.01,5293.36
1539.46,5752.32
1540.92,6237.63
1542.37,6752.35
1543.82,7317.97
1545.28,7950.22
1546.73,8578.19
1548.19,9299.05
1549.64,9931.58
1551.1,10686.3
1552.55,11403.6
1554,12175.3
1555.46,12893.2
1556.91,13604.8
1558.37,14331.6
1559.82,15006.6
1561.27,15609.8
1562.73,16096.7
1564.18,16474.1
1565.64,16620.8
1567.09,16642.2
1568.55,16682.4
1570,16419.1
1571.45,16001.5
1572.91,15515.9
1574.36,14825.3
1575.82,13937
1577.27,13125
1578.73,12332.4
1580.18,11377.6
1581.63,10485.5
1583.09,9616.06
1584.54,8861.87
1586,8185.96
1587.45,7489.44
1588.9,6896.32
1590.36,6394.49
1591.81,5956.03
1593.27,5500.88
1594.72,5203.31
1596.18,4842.66
1597.63,4621.85
1599.08,4399.62
1600.54,4137.03
1601.99,3928.56
1603.45,3779.61
1604.9,3568.43
1606.36,3431.79
1607.81,3304.74
1609.26,3166.47
1610.72,3014.12
1612.17,2839.45
1613.63,2705.95
1615.08,2565.34
1616.54,2446.59
1617.99,2336.53
1619.44,2219.28
1620.9,2146.04
1622.35,2034.58
1623.81,1955.94
1625.26,1874.69
1626.71,1826.23
1628.17,1766.56
1629.62,1698.52
1631.08,1663.43
1632.53,1631.99
1633.99,1584.68
1635.44,1543.34
1636.89,1503.93
1638.35,1463.08
1639.8,1428.79
1641.26,1400.02
1642.71,1382.2
1644.17,1353.88
1645.62,1355.97
1647.07,1274.77
1648.53,1295.69
1649.98,1272.51
1651.44,1227.03
1652.89,1247.17
1654.34,1213.43
1655.8,1214.16
1657.25,1184.67
1658.71,1148.87
1660.16,1138.71
1661.62,1141.61
1663.07,1119.04
1664.52,1109.74
1665.98,1110.89
1667.43,1106.9
1668.89,1083.54
1670.34,1079.58
1671.8,1080.19
1673.25,1066.85
1674.7,1068.5
1676.16,1031.47
1677.61,1070.8
1679.07,1087.65
1680.52,1027.98
1681.97,1026.35
1683.43,1007.26
1684.88,1004.92
1686.34,1020.8
1687.79,1016.17
1689.25,992.237
1690.7,978.828
1692.15,980.139
1693.61,984.678
1695.06,981.173
1696.52,970.925
1697.97,963.486
1699.43,971.12
1700.88,949.254
1702.33,950.377
1703.79,943.163
1705.24,934.339
1706.7,962.902
1708.15,924.549
1709.6,905.027
1711.06,923.275
1712.51,909.132
1713.97,928.182
1715.42,932.773
1716.88,909.559
1718.33,924.781
1719.78,915.282
1721.24,912.96
1722.69,921.223
1724.15,909.934
1725.6,900.195
1727.06,894.937
1728.51,902.802
1729.96,906.428
1731.42,897.259
1732.87,910.758
1734.33,900.39
1735.78,903.064
1737.24,892.645
1738.69,899.027
1740.14,897.027
1741.6,895.139
1743.05,902.068
1744.51,903.087
1745.96,898.982
1747.41,889.349
1748.87,891.049
1750.32,874.981
1751.78,865.894
1753.23,869.865
1754.69,880.584
1756.14,883.273
1757.59,858.935
1759.05,861.385
1760.5,859.617
1761.96,860.726
1763.41,863.812
1764.87,836.215
1766.32,843.586
1767.77,864.778
1769.23,856.478
1770.68,854.688
1772.14,860.553
1773.59,838.178
1775.04,839.032
1776.5,854.755
1777.95,842.994
1779.41,820.05
1780.86,845.819
1782.32,844.395
1783.77,841.406
1785.22,825.526
1786.68,810.386
1788.13,824.365
1789.59,815.652
1791.04,826.687
1792.5,830.32
1793.95,826.687
1795.4,833.848
1796.86,825.436
1798.31,831.796
1799.77,825.024
1801.22,824.379
1802.68,810.289
1804.13,805.173
1805.58,814.739
1807.04,823.331
1808.49,813.368
1809.95,810.379
1811.4,808.461
1812.85,804.768
1814.31,797.202
1815.76,805.323
1817.22,802.791
1818.67,808.933
1820.13,793.951
1821.58,809.615
1823.03,804.289
1824.49,797.187
1825.94,803.173
1827.4,809.255
1828.85,785.194
1830.31,784.947
1831.76,800.716
1833.21,821.173
1834.67,807.974
1836.12,797.277
1837.58,815.383
1839.03,810.753
1840.48,808.439
1841.94,820.664
1843.39,816.754
1844.85,828.986
1846.3,827.653
1847.76,832.567
1849.21,837.294
1850.66,819.728
1852.12,812.709
1853.57,820.746
1855.03,828.507
1856.48,861.205
1857.94,845.616
1859.39,850.748
1860.84,845.729
1862.3,850.201
1863.75,827.556
1865.21,855.961
1866.66,847.272
1868.11,854.538
1869.57,834.882
1871.02,831.061
1872.48,822.597
1873.93,830.357
1875.39,840.418
1876.84,826.687
1878.29,845.706
1879.75,832.2
1881.2,834.515
1882.66,849.122
1884.11,830.544
1885.57,822.919
1887.02,825.997
1888.47,812.154
1889.93,809.255
1891.38,802.274
1892.84,806.896
1894.29,814.664
1895.75,805.937
1897.2,793.554
1898.65,800.731
1900.11,788.453
1901.56,802.184
1903.02,777.471
1904.47,785.644
1905.92,777.576
1907.38,799.495
1908.83,774.362
1910.29,790.992
1911.74,774.699
1913.2,766.077
1914.65,798.618
1916.1,779.172
1917.56,777.681
1919.01,755.223
1920.47,791.075
1921.92,762.04
1923.38,755.89
1924.83,792.348
1926.28,759.837
1927.74,760.527
1929.19,764.317
1930.65,779.778
1932.1,772.602
1933.55,772.347
1935.01,776.617
1936.46,759.448
1937.92,781.456
1939.37,802.933
1940.83,777.156
1942.28,781.419
1943.73,783.157
1945.19,767.815
1946.64,764.759
1948.1,785.771
1949.55,779.396
1951.01,772.25
1952.46,766.991
1953.91,764.242
1955.37,773.493
1956.82,789.157
1958.28,800.82
1959.73,794.528
1961.18,780.423
1962.64,790.618
1964.09,801.614
1965.55,798.049
1967,792.116
1968.46,797.794
1969.91,800.303
1971.36,812.199
1972.82,808.821
1974.27,799.607
1975.73,780.7
1977.18,807.382
1978.64,808.746
1980.09,816.439
1981.54,802.791
1983,796.183
1984.45,800.476
1985.91,818.447
1987.36,795.936
1988.82,795.479
1990.27,813.121
1991.72,815.99
1993.18,812.656
1994.63,826.042
1996.09,821.218
1997.54,830.215
1998.99,790.91
2000.45,811.405
2001.9,814.769
2003.36,798.303
2004.81,797.052
2006.27,811.248
2007.72,820.357
2009.17,834.994
2010.63,804.836
2012.08,805.877
2013.54,823.338
2014.99,808.409
2016.45,769.621
2017.9,792.056
2019.35,803.397
2020.81,802.251
2022.26,790.498
2023.72,789.554
2025.17,781.074
2026.62,779.336
2028.08,811.862
2029.53,805.412
2030.99,789.869
2032.44,777.591
2033.9,784.812
2035.35,790.902
2036.8,774.175
2038.26,768.677
2039.71,769.958
2041.17,772.609
2042.62,778.984
2044.08,761.635
2045.53,766.1
2046.98,763.65
2048.44,777.554
2049.89,775.673
2051.35,754.564
2052.8,760.609
2054.25,763.463
2055.71,780.041
2057.16,766.197
2058.62,742.519
2060.07,735.679
2061.53,749.994
2062.98,759.935
2064.43,763.883
2065.89,753.208
2067.34,736.934
2068.8,723.069
2070.25,733.929
2071.71,742.814
2073.16,744.677
2074.61,737.902
2076.07,727.031
2077.52,735.188
2078.98,748.976
2080.43,734.989
2081.89,735.083
2083.34,731.097
2084.79,718.413
2086.25,719.053
2087.7,727.555
2089.16,732.134
2090.61,733.558
2092.06,736.851
2093.52,746.354
2094.97,738.507
2096.43,729.692
2097.88,744.085
2099.34,749.29
2100.79,740.528
2102.24,722.63
2103.7,737.394
2105.15,792.453
2106.61,809.787
2108.06,752.137
2109.52,744.834
2110.97,742.021
2112.42,741.888
2113.88,742.378
2115.33,738.74
2116.79,734.314
2118.24,733.472
2119.69,741.661
2121.15,745.722
2122.6,736.871
2124.06,745.437
2125.51,749.462
2126.97,748.623
2128.42,744.485
2129.87,747.984
2131.33,753.425
2132.78,752.646
2134.24,749.095
2135.69,749.35
2137.15,746.112
2138.6,743.324
2140.05,746.345
2141.51,746.245
2142.96,758.055
2144.42,753.14
2145.87,750.279
2147.32,758.961
2148.78,764.197
2150.23,753.597
2151.69,754.054
2153.14,753.657
2154.6,756.976
2156.05,758.347
2157.5,748.676
2158.96,750.623
2160.41,758.796
2161.87,774.422
2163.32,770.759
2164.78,765.665
2166.23,764.04
2167.68,774.205
2169.14,765.298
2170.59,780.34
2172.05,775.081
2173.5,778.52
2174.96,770.729
2176.41,777.089
2177.86,792.146
2179.32,789.681
2180.77,794.543
2182.23,776.939
2183.68,778.4
2185.13,773.306
2186.59,784.123
2188.04,787.801
2189.5,781.531
2190.95,789.704
2192.41,798.76
2193.86,782.7
2195.31,790.79
2196.77,792.401
2198.22,774.475
2199.68,782.88
2201.13,792.401
2202.59,783.224
2204.04,801.098
2205.49,775.119
2206.95,788.55
2208.4,794.745
2209.86,784.505
2211.31,795.592
2212.76,797.719
2214.22,783.037
2215.67,787.284
2217.13,781.868
2218.58,786.243
2220.04,779.958
2221.49,824.792
2222.94,781.838
2224.4,768.826
2225.85,800.244
2227.31,798.244
2228.76,795.891
2230.22,787.104
2231.67,786.505
2233.12,807.128
2234.58,783.531
2236.03,785.569
2237.49,801.57
2238.94,795.876
2240.4,788.58
2241.85,802.468
2243.3,817.922
2244.76,809.255
2246.21,802.139
2247.67,796.348
2249.12,799.734
2250.57,789.052
2252.03,796.67
2253.48,813.278
2254.94,809.248
2256.39,784.58
2257.85,791.989
2259.3,807.165
2260.75,800.671
2262.21,802.364
2263.66,808.379
2265.12,821.63
2266.57,808.821
2268.03,808.603
2269.48,809.66
2270.93,813.488
2272.39,826.05
2273.84,792.52
2275.3,805.974
2276.75,817.915
2278.2,826.619
2279.66,830.162
2281.11,810.259
2282.57,819.51
2284.02,833.488
2285.48,833.541
2286.93,830.911
2288.38,798.88
2289.84,851.347
2291.29,831.264
2292.75,839.736
2294.2,834.717
2295.66,847.159
2297.11,857.871
2298.56,858.366
2300.02,850.927
2301.47,841.204
2302.93,837.024
2304.38,848.268
2305.83,853.699
2307.29,844.538
2308.74,858.875
2310.2,848.478
2311.65,854.583
2313.11,867.333
2314.56,856.126
2316.01,862.501
2317.47,854.426
2318.92,864.688
2320.38,885.918
2321.83,890.974
2323.29,882.884
2324.74,882.719
2326.19,886.494
2327.65,877.161
2329.1,864.86
2330.56,885.566
2332.01,907.364
2333.47,877.865
2334.92,905.177
2336.37,896.772
2337.83,909.949
2339.28,918.129
2340.74,900.143
2342.19,904.136
2343.64,933.283
2345.1,918.451
2346.55,922.811
2348.01,934.774
2349.46,913.896
2350.92,936.616
2352.37,927.822
2353.82,940.175
2355.28,944.587
2356.73,929.395
2358.19,943.553
2359.64,954.737
2361.1,963.711
2362.55,968.363
2364,987.33
2365.46,980.498
2366.91,963.958
2368.37,975.105
2369.82,987.607
2371.27,994.379
2372.73,1006.42
2374.18,999.982
2375.64,1014.38
2377.09,1035.24
2378.55,1033.67
2380,1036.1
2381.45,1035.86
2382.91,1044.79
2384.36,1060.36
2385.82,1094.21
2387.27,1114.34
2388.73,1075.51
2390.18,1121.32
2391.63,1139.76
2393.09,1153.31
2394.54,1138.57
2396,1136.89
2397.45,1169.11
2398.9,1204.93
2400.36,1218.76
2401.81,1240.88
2403.27,1264.89
2404.72,1275.07
2406.18,1289.88
2407.63,1309.71
2409.08,1338.18
2410.54,1348.78
2411.99,1347.47
2413.45,1392.67
2414.9,1397.34
2416.36,1389.07
2417.81,1409.21
2419.26,1421.21
2420.72,1413.42
2422.17,1470.41
2423.63,1474.24
2425.08,1498.61
2426.53,1502.85
2427.99,1481.3
2429.44,1496.04
2430.9,1477.36
2432.35,1484.7
2433.81,1497.88
2435.26,1475.83
2436.71,1490.72
2438.17,1476.86
2439.62,1488.33
2441.08,1502.51
2442.53,1498.83
2443.99,1504.69
2445.44,1488.51
2446.89,1435.46
2448.35,1450.83
2449.8,1438.75
2451.26,1448.25
2452.71,1422.85
2454.17,1409.45
2455.62,1427.57
2457.07,1425.76
2458.53,1406.58
2459.98,1408.1
2461.44,1366.84
2462.89,1397.36
2464.34,1374.08
2465.8,1377.81
2467.25,1359.5
2468.71,1353.94
2470.16,1340.93
2471.62,1331.59
2473.07,1325.37
2474.52,1333.51
2475.98,1333.4
2477.43,1339.98
2478.89,1317.76
2480.34,1320.56
2481.8,1284.95
2483.25,1288.36
2484.7,1329.6
2486.16,1290.5
2487.61,1286.94
2489.07,1253.68
2490.52,1286.53
2491.97,1298.63
2493.43,1295.37
2494.88,1296.71
2496.34,1306.8
2497.79,1325.18
2499.25,1302.49
2500.7,1293.35
2502.15,1314.84
2503.61,1303.58
2505.06,1289.43
2506.52,1293.73
2507.97,1307.97
2509.43,1308.91
2510.88,1303.55
2512.33,1324.7
2513.79,1317.67
2515.24,1332.05
2516.7,1316.39
2518.15,1319.69
2519.6,1343.23
2521.06,1329.84
2522.51,1333.11
2523.97,1332.98
2525.42,1339.2
2526.88,1344.79
2528.33,1371.2
2529.78,1381.11
2531.24,1396.67
2532.69,1400.14
2534.15,1411.7
2535.6,1421.45
2537.06,1441.53
2538.51,1458.89
2539.96,1437.62
2541.42,1464.96
2542.87,1444.77
2544.33,1488.5
2545.78,1503.76
2547.24,1521.13
2548.69,1540.33
2550.14,1527.62
2551.6,1560.46
2553.05,1582.61
2554.51,1599.45
2555.96,1628.66
2557.41,1634
2558.87,1646.35
2560.32,1673.73
2561.78,1690.66
2563.23,1701.01
2564.69,1745.65
2566.14,1754.94
2567.59,1776.32
2569.05,1848.77
2570.5,1825.66
2571.96,1847.12
2573.41,1903.14
2574.87,1938.05
2576.32,1984.29
2577.77,2018.21
2579.23,2084.58
2580.68,2111.54
2582.14,2151.9
2583.59,2193.19
2585.04,2222.91
2586.5,2290.5
2587.95,2373.24
2589.41,2393.91
2590.86,2437.08
2592.32,2486.75
2593.77,2567.41
2595.22,2654.63
2596.68,2771.65
2598.13,2803.33
2599.59,2880.61
2601.04,2976.84
2602.5,3074.5
2603.95,3184.7
2605.4,3250.83
2606.86,3369.57
2608.31,3492.27
2609.77,3627.76
2611.22,3751.69
2612.68,3915.84
2614.13,3969.22
2615.58,4228.97
2617.04,4314.94
2618.49,4478.17
2619.95,4679.02
2621.4,4850.56
2622.85,5036.77
2624.31,5202.27
2625.76,5437.69
2627.22,5646.1
2628.67,5830.73
2630.13,6091.66
2631.58,6319.97
2633.03,6633.44
2634.49,6890.2
2635.94,7098.88
2637.4,7332.68
2638.85,7612.23
2640.31,7855.01
2641.76,8102.44
2643.21,8344.17
2644.67,8581.41
2646.12,8840.22
2647.58,9066.23
2649.03,9296.35
2650.48,9456.43
2651.94,9655.09
2653.39,9836.45
2654.85,9931.36
2656.3,10104.2
2657.76,10164.1
2659.21,10359.4
2660.66,10400.1
2662.12,10403.2
2663.57,10444.3
2665.03,10435.6
2666.48,10424.2
2667.94,10369.7
2669.39,10353.5
2670.84,10243.5
2672.3,10126
2673.75,9936.68
2675.21,9771.05
2676.66,9573.51
2678.11,9355.23
2679.57,9192
2681.02,8953.86
2682.48,8757.22
2683.93,8461.48
2685.39,8132.7
2686.84,7936.74
2688.29,7715.68
2689.75,7476.55
2691.2,7175.84
2692.66,6868.22
2694.11,6661.94
2695.57,6415.66
2697.02,6138.03
2698.47,5958.4
2699.93,5606.67
2701.38,5332.87
2702.84,5151.96
2704.29,4961.75
2705.75,4758.94
2707.2,4567.8
2708.65,4370.49
2710.11,4226.45
2711.56,4045.8
2713.02,3837.56
2714.47,3786.65
2715.92,3607.53
2717.38,3462.66
2718.83,3330.4
2720.29,3202.04
2721.74,3088.99
2723.2,2964.99
2724.65,2899.72
2726.1,2804.88
2727.56,2731.3
2729.01,2614.56
2730.47,2529.16
2731.92,2462.1
2733.38,2414.23
2734.83,2262.96
2736.28,2216.88
2737.74,2189.77
2739.19,2147.55
2740.65,2035.37
2742.1,2013.83
2743.55,1993.01
2745.01,1949.57
2746.46,1873.79
2747.92,1875.53
2749.37,1781.65
2750.83,1810.99
2752.28,1768.44
2753.73,1695.4
2755.19,1669.85
2756.64,1619.9
2758.1,1618.82
2759.55,1625.99
2761.01,1587.98
2762.46,1544.01
2763.91,1556.84
2765.37,1522.57
2766.82,1511.29
2768.28,1488.11
2769.73,1472.57
2771.18,1448.92
2772.64,1425.8
2774.09,1423.66
2775.55,1397.07
2777,1363.98
2778.46,1357.74
2779.91,1356.66
2781.36,1337.24
2782.82,1314.39
2784.27,1304.25
2785.73,1288.59
2787.18,1289.95
2788.64,1295.3
2790.09,1286.46
2791.54,1269.99
2793,1254.67
2794.45,1230.1
2795.91,1211.2
2797.36,1216.78
2798.82,1205.81
2800.27,1224.63
2801.72,1190.1
2803.18,1172.53
2804.63,1183.26
2806.09,1184.45
2807.54,1172.73
2808.99,1169.78
2810.45,1178.45
2811.9,1145.97
2813.36,1146.66
2814.81,1140.98
2816.27,1121.62
2817.72,1156.17
2819.17,1118.35
2820.63,1134.72
2822.08,1120.44
2823.54,1115.16
2824.99,1117.82
2826.45,1102.38
2827.9,1096.43
2829.35,1121.88
2830.81,1102.73
2832.26,1062.57
2833.72,1092.76
2835.17,1104.32
2836.62,1086.67
2838.08,1071.75
2839.53,1066.88
2840.99,1081.71
2842.44,1070.16
2843.9,1054.8
2845.35,1037.99
2846.8,1073.4
2848.26,1070.29
2849.71,1062.47
2851.17,1070.94
2852.62,1059.41
2854.08,1062.37
2855.53,1061.44
2856.98,1065.75
2858.44,1068.29
2859.89,1055.86
2861.35,1035.79
2862.8,1048.98
2864.25,1050.95
2865.71,1051.84
2867.16,1047.62
2868.62,1039.35
2870.07,1059.66
2871.53,1090.01
2872.98,1080.43
2874.43,1076.94
2875.89,1063.33
2877.34,1083.12
2878.8,1081.59
2880.25,1074.32
2881.71,1063.58
2883.16,1074.11
2884.61,1076.41
2886.07,1065.01
2887.52,1069.7
2888.98,1077.51
2890.43,1111.25
2891.89,1101.82
2893.34,1115.43
2894.79,1113.96
2896.25,1089.34
2897.7,1094.35
2899.16,1097.56
2900.61,1102.26
2902.06,1117.29
2903.52,1074.7
2904.97,1095.12
2906.43,1113.53
2907.88,1104.34
2909.34,1118.82
2910.79,1125.37
2912.24,1109.9
2913.7,1108.01
2915.15,1083.24
2916.61,1103.57
2918.06,1079.42
2919.52,1071.02
2920.97,1055.32
2922.42,1070.38
2923.88,1064.38
2925.33,1066.25
2926.79,1043.78
2928.24,1036.79
2929.69,1029.56
2931.15,1021.62
2932.6,1001.59
2934.06,1045.8
2935.51,1012.51
2936.97,1006.57
2938.42,1003.92
2939.87,1020.01
2941.33,986.004
2942.78,975.038
2944.24,984.117
2945.69,965.644
2947.15,937.44
2948.6,934.684
2950.05,915.185
2951.51,929.822
2952.96,908.346
2954.42,894.959
2955.87,894.982
2957.32,897.948
2958.78,908.286
2960.23,903.409
2961.69,893.334
2963.14,862.816
2964.6,843.376
2966.05,842.875
2967.5,849.646
2968.96,847.924
2970.41,838.021
2971.87,846.328
2973.32,829.099
2974.78,836.814
2976.23,846.276
2977.68,820.005
2979.14,800.191
2980.59,788.753
2982.05,790.191
2983.5,776.834
2984.96,772.564
2986.41,785.404
2987.86,789.764
2989.32,784.206
2990.77,761.403
2992.23,763.98
2993.68,782.34
2995.13,773.875
2996.59,772.018
2998.04,769.838
2999.5,775.314
3000.95,765.501
3002.41,766.317
3003.86,755.066
3005.31,753.897
3006.77,751.358
3008.22,745.315
3009.68,753.725
3011.13,734.893
3012.59,728.849
3014.04,734.271
3015.49,747.838
3016.95,728.522
3018.4,726.114
3019.86,741.339
3021.31,729.74
3022.76,726.608
3024.22,735.731
3025.67,721.564
3027.13,745.348
3028.58,756.159
3030.04,735.522
3031.49,728.59
3032.94,728.581
3034.4,722.222
3035.85,718.638
3037.31,722.941
3038.76,734.322
3040.22,726.324
3041.67,736.741
3043.12,735.45
3044.58,716.845
3046.03,712.609
3047.49,707.14
3048.94,722.617
3050.4,724.895
3051.85,701.263
3053.3,705.94
3054.76,728.342
3056.21,717.993
3057.67,727.427
3059.12,729.875
3060.57,742.563
3062.03,716.62
3063.48,730.668
3064.94,718.439
3066.39,722.962
3067.85,722.215
3069.3,734.762
3070.75,735.708
3072.21,727.066
3073.66,708.405
3075.12,696.289
3076.57,712.898
3078.03,737.863
3079.48,732.89
3080.93,737.979
3082.39,727.653
3083.84,740.962
3085.3,750.781
3086.75,752.908
3088.2,759.59
3089.66,757.448
3091.11,758.294
3092.57,740.998
3094.02,732.194
3095.48,774.437
3096.93,764.092
3098.38,773.733
3099.84,767.755
3101.29,792.535
3102.75,801.967
3104.2,795.854
3105.66,796.453
3107.11,838.635
3108.56,812.858
3110.02,840.508
3111.47,826.2
3112.93,813.263
3114.38,818.821
3115.83,878.075
3117.29,870.082
3118.74,867.932
3120.2,868.374
3121.65,898.113
3123.11,926.549
3124.56,926.429
3126.01,941.77
3127.47,942.077
3128.92,928.594
3130.38,958.909
3131.83,961.569
3133.29,954.475
3134.74,965.764
3136.19,987.712
3137.65,975.277
3139.1,983.038
3140.56,997.638
3142.01,984.618
3143.47,1006.42
3144.92,1010.99
3146.37,1018.16
3147.83,996.671
3149.28,1019.98
3150.74,1014.56
3152.19,1013.1
3153.64,1017.29
3155.1,1044.7
3156.55,1035.01
3158.01,993.57
3159.46,1000.96
3160.92,1030.07
3162.37,1038.36
3163.82,1030.62
3165.28,1051.07
3166.73,1037.2
3168.19,1027.46
3169.64,1018.19
3171.1,1051.62
3172.55,1049.11
3174,1048.31
3175.46,1035.27
3176.91,1035.8
3178.37,1055.82
3179.82,1069.13
3181.27,1086.05
3182.73,1094.26
3184.18,1113.42
3185.64,1082.77
3187.09,1103.3
3188.55,1129.23
3190,1099.92
3191.45,1149.3
3192.91,1146.95
3194.36,1146.47
3195.82,1166.51
3197.27,1156.21
3198.73,1156.69
3200.18,1167.2
3201.63,1215.47
3203.09,1207.81
3204.54,1184.02
3206,1199.35
3207.45,1190.1
3208.9,1210.72
3210.36,1190.39
3211.81,1184.67
3213.27,1194.22
3214.72,1177.57
3216.18,1171.73
3217.63,1166.82
3219.08,1136.09
3220.54,1112.27
3221.99,1100.18
3223.45,1085.44
3224.9,1066.87
3226.36,1037.83
3227.81,1034.48
3229.26,1011.11
3230.72,972.91
3232.17,963.472
3233.63,915.739
3235.08,906.428
3236.53,888.809
3237.99,870.561
3239.44,874.284
3240.9,840.23
3242.35,806.274
3243.81,818.544
3245.26,783.704
3246.71,787.576
3248.17,735.394
3249.62,733.668
3251.08,727.515
3252.53,724.697
3253.99,716.525
3255.44,707.387
3256.89,687.279
3258.35,681.326
3259.8,669.117
3261.26,658.495
3262.71,644.41
3264.17,657.052
3265.62,649.913
3267.07,644.397
3268.53,642.664
3269.98,631.273
3271.44,620.62
3272.89,624.663
3274.34,627.417
3275.8,637.533
3277.25,625.058
3278.71,621.114
3280.16,601.998
3281.62,593.708
3283.07,602.492
3284.52,600.454
3285.98,620.404
3287.43,618.739
3288.89,587.502
3290.34,576.331
3291.8,585.972
3293.25,580.457
3294.7,588.871
3296.16,590.768
3297.61,598.784
3299.07,594.377
3300.52,568.57
3301.97,582.301
3303.43,578.828
3304.88,578.279
3306.34,584.632
3307.79,589.778
3309.25,599.487
3310.7,597.793
3312.15,586.749
3313.61,593.018
3315.06,582.254
3316.52,587.555
3317.97,585.223
3319.43,575.614
3320.88,576.607
3322.33,569.746
3323.79,589.277
3325.24,583.726
3326.7,583.886
3328.15,574.151
3329.6,572.697
3331.06,574.59
3332.51,571.791
3333.97,572.217
3335.42,550.601
3336.88,569.811
3338.33,574.397
3339.78,570.022
3341.24,565.427
3342.69,571.408
3344.15,576.865
3345.6,572.882
3347.06,572.609
3348.51,570.53
3349.96,578.643
3351.42,567.884
3352.87,567.85
3354.33,570.03
3355.78,574.254
3357.24,572.839
3358.69,555.548
3360.14,560.364
3361.6,563.26
3363.05,558.403
3364.51,568.53
3365.96,575.826
3367.41,576.242
3368.87,565.637
3370.32,555.943
3371.78,562.983
3373.23,560.702
3374.69,547.233
3376.14,564.639
3377.59,565.808
3379.05,537.961
3380.5,552.969
3381.96,565.634
3383.41,560.742
3384.87,557.839
3386.32,550.08
3387.77,550.781
3389.23,549.687
3390.68,558.975
3392.14,555.752
3393.59,556.888
3395.04,570.42
3396.5,571.522
3397.95,552.909
3399.41,545.017
3400.86,557.08
3402.32,551.562
3403.77,558.284
3405.22,541.011
3406.68,561.139
3408.13,554.798
3409.59,571.515
3411.04,564.206
3412.5,564.569
3413.95,568.978
3415.4,544.102
3416.86,561.145
3418.31,547.602
3419.77,549.787
3421.22,549.249
3422.68,551.744
3424.13,561.678
3425.58,552.133
3427.04,572.633
3428.49,558.736
3429.95,537.649
3431.4,541.239
3432.85,551.698
3434.31,534.265
3435.76,553.744
3437.22,546.665
3438.67,531.985
3440.13,552.443
3441.58,542.101
3443.03,551.134
3444.49,536.847
3445.94,545.868
3447.4,532.531
3448.85,546.592
3450.31,545.398
3451.76,560.952
3453.21,525.502
3454.67,542.013
3456.12,546.415
3457.58,531.24
3459.03,556.056
3460.48,546.179
3461.94,552.614
3463.39,535.004
3464.85,550.843
3466.3,546.627
3467.76,534.924
3469.21,535.576
3470.66,527.547
3472.12,520.616
3473.57,529.801
3475.03,536.241
3476.48,542.914
3477.94,551.258
3479.39,547.436
3480.84,549.421
3482.3,551.191
3483.75,529.685
3485.21,547.529
3486.66,526.684
3488.11,548.076
3489.57,559.294
3491.02,547.544
3492.48,539.284
3493.93,548.977
3495.39,561.923
3496.84,559.281
3498.29,547.916
3499.75,542.3
3501.2,534.638
3502.66,536.688
3504.11,539.365
3505.57,529.883
3507.02,561.375
3508.47,536.322
3509.93,562.923
3511.38,534.345
3512.84,545.102
3514.29,535.279
3515.75,527.137
3517.2,529.535
3518.65,558.692
3520.11,547.172
3521.56,526.848
3523.02,551.883
3524.47,548.805
3525.92,536.922
3527.38,535.495
3528.83,529.167
3530.29,540.161
3531.74,540.519
3533.2,546.073
3534.65,535.162
3536.1,528.663
3537.56,548.548
3539.01,543.656
3540.47,546.922
3541.92,541.955
3543.38,534.534
3544.83,531.286
3546.28,537.341
3547.74,528.322
3549.19,534.476
3550.65,539.304
3552.1,533.609
3553.55,540.33
3555.01,550.606
3556.46,535.911
3557.92,538.865
3559.37,542.236
3560.83,525.069
3562.28,528.828
3563.73,535.124
3565.19,525.55
3566.64,514.406
3568.1,530.544
3569.55,543.418
3571.01,535.973
3572.46,543.35
3573.91,536.14
3575.37,540.101
3576.82,532.611
3578.28,522.259
3579.73,535.249
3581.18,538.306
3582.64,538.078
3584.09,530.03
3585.55,532.411
3587,545.027
3588.46,539.251
3589.91,542.245
3591.36,544.647
3592.82,531.065
3594.27,539.545
3595.73,529.732
3597.18,531.587
3598.64,531.275
3600.09,539.223
3601.54,522.525
3603,531.24
3604.45,538.796
3605.91,522.652
3607.36,541.332
3608.82,511.651
3610.27,529.622
3611.72,538.831
3613.18,524.362
3614.63,517.232
3616.09,534.141
3617.54,524.36
3618.99,522.683
3620.45,554.512
3621.9,535.478
3623.36,530.446
3624.81,521.199
3626.27,523.812
3627.72,543.849
3629.17,536.969
3630.63,528.124
3632.08,523.283
3633.54,517.576
3634.99,535.957
3636.45,530.742
3637.9,547.542
3639.35,545.312
3640.81,542.453
3642.26,530.396
3643.72,528.072
3645.17,545.917
3646.62,528.462
3648.08,522.881
3649.53,522.879
3650.99,540.246
3652.44,552.587
3653.9,542.157
3655.35,528.587
3656.8,547.865
3658.26,547.446
3659.71,525.277
3661.17,543.329
3662.62,545.345
3664.08,524.83
3665.53,530.821
3666.98,551.515
3668.44,539.284
3669.89,536.062
3671.35,542.655
3672.8,542.804
3674.25,530.312
3675.71,521.326
3677.16,523.764
3678.62,529.674
3680.07,527.608
3681.53,531.1
3682.98,549.563
3684.43,542.299
3685.89,518.632
3687.34,544.876
3688.8,530.315
3690.25,533.876
3691.71,532.921
3693.16,534.784
3694.61,513.648
3696.07,521.973
3697.52,531.068
3698.98,544.696
3700.43,540.719
3701.89,537.307
3703.34,527.464
3704.79,547.917
3706.25,547.882
3707.7,526.693
3709.16,530.901
3710.61,519.273
3712.06,524.735
3713.52,545.839
3714.97,538.36
3716.43,548.56
3717.88,532.002
3719.34,532.109
3720.79,521.884
3722.24,524.021
3723.7,539.139
3725.15,542.164
3726.61,534.74
3728.06,542.611
3729.52,537.961
3730.97,563.07
3732.42,558.15
3733.88,537.05
3735.33,544.121
3736.79,524.65
3738.24,548.061
3739.69,541.391
3741.15,531.623
3742.6,567.869
3744.06,537.019
3745.51,536.318
3746.97,545.872
3748.42,535.306
3749.87,521.392
3751.33,526.721
3752.78,537.912
3754.24,526.15
3755.69,540.072
3757.15,540.246
3758.6,539.017
3760.05,538.382
3761.51,521.639
3762.96,529.293
3764.42,532.629
3765.87,528.616
3767.32,544.281
3768.78,531.762
3770.23,534.444
3771.69,538.871
3773.14,561.259
3774.6,540.945
3776.05,546.858
3777.5,550.915
3778.96,534.005
3780.41,548.017
3781.87,542.953
3783.32,543.929
3784.78,537.994
3786.23,544.532
3787.68,544.04
3789.14,548.295
3790.59,538.293
3792.05,550.585
3793.5,536.31
3794.96,541.454
3796.41,561.156
3797.86,553.695
3799.32,536.235
3800.77,531.251
3802.23,525.06
3803.68,559.099
3805.13,541.997
3806.59,541.375
3808.04,544.455
3809.5,540.006
3810.95,544.932
3812.41,546.934
3813.86,556.034
3815.31,550.509
3816.77,546.359
3818.22,532.263
3819.68,548.619
3821.13,554.029
3822.59,551.011
3824.04,546.68
3825.49,544.46
3826.95,550.786
3828.4,542.12
3829.86,521.716
3831.31,554.394
3832.76,541.185
3834.22,538.517
3835.67,543.411
3837.13,563.644
3838.58,529.634
3840.04,558.676
3841.49,572.091
3842.94,540.771
3844.4,553.734
3845.85,546.445
3847.31,553.868
3848.76,539.343
3850.22,572.05
3851.67,552.064
3853.12,548.135
3854.58,550.74
3856.03,554.502
3857.49,551.561
3858.94,548.749
3860.4,547.171
3861.85,547.931
3863.3,555.118
3864.76,564.97
3866.21,536.483
3867.67,555.77
3869.12,555.024
3870.57,550.735
3872.03,538.472
3873.48,547.101
3874.94,548.618
3876.39,559.878
3877.85,547.348
3879.3,553.053
3880.75,561.865
3882.21,565.538
3883.66,577.652
3885.12,573.052
3886.57,568.659
3888.03,565.491
3889.48,550.961
3890.93,558.604
3892.39,573.151
3893.84,560.854
3895.3,553.976
3896.75,550.853
3898.2,560.89
3899.66,569.009
3901.11,565.537
3902.57,583.473
3904.02,579.639
3905.48,556.299
3906.93,577.599
3908.38,576.343
3909.84,566.645
3911.29,560.287
3912.75,565.199
3914.2,578.908
3915.66,579.48
3917.11,591.211
3918.56,587.167
3920.02,587.768
3921.47,578.639
3922.93,580.475
3924.38,593.771
3925.83,579.412
3927.29,574.995
3928.74,573.63
3930.2,581.694
3931.65,588.675
3933.11,579.836
3934.56,585.936
3936.01,593.453
3937.47,580.869
3938.92,596.732
3940.38,576.77
3941.83,570.482
3943.29,580.79
3944.74,588.686
3946.19,587.684
3947.65,595.197
3949.1,596.38
3950.56,596.344
3952.01,610.457
3953.47,598.678
3954.92,597.45
3956.37,591.159
3957.83,580.705
3959.28,581.327
3960.74,603.92
3962.19,593.07
3963.64,612.293
3965.1,599.429
3966.55,613.105
3968.01,606.05
3969.46,624.445
3970.92,609.278
3972.37,609.308
3973.82,602.06
3975.28,630.117
3976.73,610.958
3978.19,608.385
3979.64,618.368
3981.1,622.835
3982.55,620.801
3984,622.349
3985.46,617.536
3986.91,609.996
3988.37,621.408
3989.82,631.453
3991.27,634.907
3992.73,646.497
3994.18,648.944
3995.64,629.049
3997.09,621.723
3998.55,630.7
4000,640.674
