0.897666,126.788
2.35189,126.788
3.8061,654.071
5.26032,226.648
6.71454,206.975
8.16876,187.736
9.62298,176.029
11.0772,167.197
12.5314,154.304
13.9856,139.344
15.4399,131.107
16.8941,121.819
18.3483,110.578
19.8025,102.89
21.2567,99.1237
22.711,95.2073
24.1652,91.0377
25.6194,89.3488
27.0736,88.1617
28.5278,86.7173
29.982,84.3527
31.4363,81.859
32.8905,78.0816
34.3447,78.0428
35.7989,72.3395
37.2531,70.7202
38.7074,73.6433
40.1616,82.5331
41.6158,93.2517
43.07,102.036
44.5242,121.532
45.9785,156.795
47.4327,211.047
48.8869,327.616
50.3411,501.779
51.7953,698.443
53.2495,922.71
54.7038,1149.61
56.158,1359.25
57.6122,1547.84
59.0664,1681.89
60.5206,1790.51
61.9749,1835.18
63.4291,1887.99
64.8833,1938.27
66.3375,1988.36
67.7917,1981.77
69.246,2007.35
70.7002,2014.01
72.1544,2067.78
73.6086,2116.62
75.0628,2119.73
76.5171,2113.06
77.9713,2178.02
79.4255,2259.11
80.8797,2293.67
82.3339,2255.92
83.7882,2268.17
85.2424,2222.7
86.6966,2159.49
88.1508,2111.64
89.605,2087.98
91.0592,2000.35
92.5135,1920.67
93.9677,1851.94
95.4219,1776.16
96.8761,1732.35
98.3303,1675.74
99.7846,1613.81
101.239,1585.63
102.693,1570.72
104.147,1555.92
105.601,1490.62
107.056,1469.87
108.51,1453.12
109.964,1438.77
111.418,1454.55
112.873,1436.73
114.327,1420.78
115.781,1396.08
117.235,1352.95
118.689,1303.32
120.144,1312.43
121.598,1312.54
123.052,1281.98
124.506,1242.77
125.961,1241.4
127.415,1219.72
128.869,1186.94
130.323,1164.98
131.777,1146.93
133.232,1163.93
134.686,1118.4
136.14,1073.59
137.594,1063.7
139.048,1062.78
140.503,1039.94
141.957,1037.85
143.411,1032.61
144.865,1017.61
146.32,1017.1
147.774,986.526
149.228,964.777
150.682,950.448
152.136,938.124
153.591,901.217
155.045,909.263
156.499,910.422
157.953,900.162
159.408,897.54
160.862,905.555
162.316,903.21
163.77,910.624
165.224,909.898
166.679,878.665
168.133,856.506
169.587,877.157
171.041,880.208
172.496,858.976
173.95,844.099
175.404,842.61
176.858,848.117
178.312,849.884
179.767,852.04
181.221,851.816
182.675,863.518
184.129,867.225
185.583,862.92
187.038,850.585
188.492,834.95
189.946,843.187
191.4,857.387
192.855,860.584
194.309,881.269
195.763,891.686
197.217,858.459
198.671,846.979
200.126,850.907
201.58,841.911
203.034,819.127
204.488,800.706
205.943,823.444
207.397,830.796
208.851,823.763
210.305,813.055
211.759,814.402
213.214,810.161
214.668,816.866
216.122,811.603
217.576,796.967
219.031,808.714
220.485,809.498
221.939,816.998
223.393,814.576
224.847,800.376
226.302,828.689
227.756,807.881
229.21,824.883
230.664,831.301
232.118,814.853
233.573,794.789
235.027,812.942
236.481,813.614
237.935,806.471
239.39,811.12
240.844,809.949
242.298,818.923
243.752,813.772
245.206,812.24
246.661,806.487
248.115,813.334
249.569,776.972
251.023,772.746
252.478,776.127
253.932,780.149
255.386,773.119
256.84,784.384
258.294,788.366
259.749,771.316
261.203,776.36
262.657,805.423
264.111,765.074
265.566,778.754
267.02,768.896
268.474,761.293
269.928,778.398
271.382,769.926
272.837,757.008
274.291,756.379
275.745,761.125
277.199,761.134
278.654,753.276
280.108,735.241
281.562,729.815
283.016,737.258
284.47,735.568
285.925,717.149
287.379,734.742
288.833,716.478
290.287,710.756
291.741,714.3
293.196,707.434
294.65,694.943
296.104,686.194
297.558,688.412
299.013,680.769
300.467,674.396
301.921,684.945
303.375,671.05
304.829,676.697
306.284,684.471
307.738,687.267
309.192,672.017
310.646,678.942
312.101,678.359
313.555,675.86
315.009,677.121
316.463,666.601
317.917,670.173
319.372,656.555
320.826,645.31
322.28,642.594
323.734,645.737
325.189,647.568
326.643,639.535
328.097,633.582
329.551,631.453
331.005,636.073
332.46,660.221
333.914,665.875
335.368,640.13
336.822,636.198
338.276,646.878
339.731,635.959
341.185,644.734
342.639,647.372
344.093,648.105
345.548,641.998
347.002,631.848
348.456,657.277
349.91,631.52
351.364,611.722
352.819,616.897
354.273,633.886
355.727,635.784
357.181,613.462
358.636,617.677
360.09,626.981
361.544,632.365
362.998,635.912
364.452,632.714
365.907,634.489
367.361,629.876
368.815,612.521
370.269,595.575
371.724,621.442
373.178,622.028
374.632,626.318
376.086,622.736
377.54,621.87
378.995,634.142
380.449,643.223
381.903,609.017
383.357,610.137
384.811,613.429
386.266,612.359
387.72,634.511
389.174,624.484
390.628,624.971
392.083,624.746
393.537,618.067
394.991,605.319
396.445,622.414
397.899,626.215
399.354,631.633
400.808,630.911
402.262,619.691
403.716,597.041
405.171,634.303
406.625,619.357
408.079,620.033
409.533,621.562
410.987,609.695
412.442,641.182
413.896,637.216
415.35,602.532
416.804,605.723
418.259,632.658
419.713,615.265
421.167,615.705
422.621,623.887
424.075,631.134
425.53,632.703
426.984,632.035
428.438,635.391
429.892,634.566
431.346,650.988
432.801,649.874
434.255,638.792
435.709,638.491
437.163,610.419
438.618,621.484
440.072,630.185
441.526,643.654
442.98,650.335
444.434,644.924
445.889,631.04
447.343,620.927
448.797,628.149
450.251,645.466
451.706,658.618
453.16,639.082
454.614,632.148
456.068,631.859
457.522,629.591
458.977,640.11
460.431,658.885
461.885,648.963
463.339,662.505
464.794,645.558
466.248,626.012
467.702,630.311
469.156,652.302
470.61,636.545
472.065,642.133
473.519,650.281
474.973,642.281
476.427,630.632
477.882,663.758
479.336,655.671
480.79,648.307
482.244,632.92
483.698,625.941
485.153,631.428
486.607,634.981
488.061,637.542
489.515,629.498
490.969,616.778
492.424,617.265
493.878,638.71
495.332,634.893
496.786,616.06
498.241,631.287
499.695,636.535
501.149,629.948
502.603,623.247
504.057,604.96
505.512,607.204
506.966,607.316
508.42,604.996
509.874,609.168
511.329,600.948
512.783,610.82
514.237,586.775
515.691,593.336
517.145,606.425
518.6,608.017
520.054,607.865
521.508,610.496
522.962,595.233
524.417,596.691
525.871,604.945
527.325,603.492
528.779,588.819
530.233,603.008
531.688,600.378
533.142,605.902
534.596,604.783
536.05,598.549
537.505,615.432
538.959,597.841
540.413,594.392
541.867,593.065
543.321,592.657
544.776,604.079
546.23,619.55
547.684,602.013
549.138,620.83
550.592,622.307
552.047,608.646
553.501,599.125
554.955,603.643
556.409,602.888
557.864,603.047
559.318,598.902
560.772,590.015
562.226,601.635
563.68,614.667
565.135,611.464
566.589,602.982
568.043,597.861
569.497,609.46
570.952,600.389
572.406,587.477
573.86,593.985
575.314,615.318
576.768,621.423
578.223,617.524
579.677,604.424
581.131,608.106
582.585,597.553
584.039,599.929
585.494,606.043
586.948,600.569
588.402,604.222
589.856,620.091
591.311,594.741
592.765,604.789
594.219,581.246
595.673,579.471
597.127,604.668
598.582,611.456
600.036,584.105
601.49,603.807
602.944,605.111
604.399,609.458
605.853,614.079
607.307,603.354
608.761,583.365
610.215,613.226
611.67,637.583
613.124,633.501
614.578,619.84
616.032,613.19
617.487,588.81
618.941,615.427
620.395,619.244
621.849,616.148
623.303,610.759
624.758,621.353
626.212,624.273
627.666,606.594
629.12,616.023
630.575,617.364
632.029,623.677
633.483,629.05
634.937,619.198
636.391,621.225
637.846,597.7
639.3,607.241
640.754,611.271
642.208,622.97
643.662,620.218
645.117,592.362
646.571,614.276
648.025,618.633
649.479,614.779
650.934,616.229
652.388,619.684
653.842,618.13
655.296,646.384
656.75,638.586
658.205,617.459
659.659,614.793
661.113,630.078
662.567,622.214
664.022,617.308
665.476,630.306
666.93,631.967
668.384,624.766
669.838,612.34
671.293,621.308
672.747,627.92
674.201,646.391
675.655,626.221
677.109,634.29
678.564,646.674
680.018,640.793
681.472,650.95
682.926,645.607
684.381,640.947
685.835,634.71
687.289,632.028
688.743,635.963
690.198,630.542
691.652,636.298
693.106,643.472
694.56,632.682
696.014,640.989
697.469,644.715
698.923,644.516
700.377,638.55
701.831,653.711
703.285,643.529
704.74,626.098
706.194,637.647
707.648,645.115
709.102,645.165
710.557,648.557
712.011,651.796
713.465,651.002
714.919,648.917
716.373,644.582
717.828,648.297
719.282,666.971
720.736,663.361
722.19,650.07
723.645,646.372
725.099,647.645
726.553,653.3
728.007,657.929
729.461,642.808
730.916,633.073
732.37,648.002
733.824,656.353
735.278,655.583
736.732,652.683
738.187,643.278
739.641,640.756
741.095,648.088
742.549,657.889
744.004,666.261
745.458,659.519
746.912,660.18
748.366,647.7
749.82,643.607
751.275,642.334
752.729,650.191
754.183,656.487
755.637,649.307
757.092,654.465
758.546,644.303
760,656.588
761.454,667.128
762.908,676.77
764.363,677.663
765.817,667.35
767.271,663.098
768.725,667.244
770.18,669.638
771.634,666.92
773.088,660.096
774.542,665.362
775.996,651.096
777.451,641.57
778.905,675.431
780.359,654.176
781.813,655.949
783.268,668.285
784.722,671.659
786.176,665.808
787.63,671.795
789.084,678.428
790.539,667.24
791.993,648.849
793.447,659.743
794.901,665.66
796.355,679.644
797.81,686.702
799.264,681.107
800.718,671.247
802.172,668.016
803.627,670.844
805.081,679.775
806.535,681.383
807.989,687.719
809.443,675.852
810.898,690.774
812.352,689.215
813.806,697.72
815.26,694.521
816.715,680.21
818.169,673.458
819.623,685.993
821.077,687.384
822.531,701.328
823.986,698.314
825.44,698.047
826.894,694.542
828.348,700.332
829.802,691.996
831.257,720.918
832.711,698.321
834.165,711.146
835.619,712.105
837.074,699.581
838.528,693.209
839.982,687.925
841.436,692.655
842.891,710.561
844.345,710.319
845.799,710.747
847.253,715.421
848.707,719.19
850.162,711.737
851.616,731.222
853.07,743.575
854.524,727.574
855.978,715.85
857.433,737.587
858.887,746.067
860.341,745.444
861.795,741.133
863.25,730.039
864.704,718.736
866.158,719.763
867.612,737.36
869.066,741.364
870.521,711.128
871.975,701.36
873.429,703.609
874.883,702.795
876.338,704.865
877.792,717.466
879.246,725.175
880.7,712.918
882.154,719.161
883.609,712.527
885.063,725.177
886.517,732.999
887.971,719.604
889.425,713.35
890.88,716.067
892.334,715.552
893.788,730.399
895.242,728.491
896.697,722.49
898.151,719.776
899.605,720.178
901.059,727.859
902.513,722.801
903.968,720.471
905.422,734.363
906.876,713.849
908.33,737.571
909.785,751.091
911.239,741.963
912.693,728.9
914.147,741.511
915.601,732.406
917.056,758.356
918.51,751.143
919.964,741.54
921.418,745.45
922.873,753.775
924.327,759.156
925.781,740.133
927.235,743.808
928.689,759.369
930.144,749.603
931.598,744.379
933.052,759.393
934.506,776.316
935.961,764.003
937.415,752.616
938.869,756.62
940.323,763.016
941.777,747.32
943.232,740.781
944.686,748.17
946.14,747.661
947.594,748.443
949.048,739.884
950.503,772.016
951.957,768.23
953.411,739.422
954.865,726.363
956.32,743.96
957.774,763.626
959.228,762.059
960.682,764.198
962.136,741.43
963.591,770.677
965.045,752.357
966.499,746.726
967.953,758.04
969.408,762.768
970.862,773.885
972.316,788.54
973.77,784.213
975.224,762.918
976.679,755.542
978.133,774.709
979.587,773.859
981.041,777.733
982.495,785.169
983.95,765.458
985.404,785.581
986.858,787.587
988.312,784.803
989.767,806.296
991.221,792.678
992.675,777.713
994.129,782.164
995.583,785.043
997.038,809.305
998.492,806.607
999.946,783.577
1001.4,793.78
1002.85,799.312
1004.31,795.678
1005.76,806.995
1007.22,808.487
1008.67,846.611
1010.13,823.551
1011.58,838.801
1013.03,840.665
1014.49,829.964
1015.94,826.216
1017.4,824.21
1018.85,841.039
1020.31,833.494
1021.76,828.502
1023.21,860.273
1024.67,869.424
1026.12,869.751
1027.58,865.095
1029.03,855.278
1030.48,871.879
1031.94,897.804
1033.39,869.871
1034.85,870.647
1036.3,897.632
1037.76,896.803
1039.21,899.181
1040.66,911.093
1042.12,917.814
1043.57,920.13
1045.03,913.378
1046.48,904.431
1047.94,927.97
1049.39,929.238
1050.84,933.239
1052.3,945.57
1053.75,947.746
1055.21,963.727
1056.66,947.841
1058.11,968.288
1059.57,968.43
1061.02,973.54
1062.48,969.403
1063.93,998.553
1065.39,1013.38
1066.84,1013.98
1068.29,1035.96
1069.75,1033.33
1071.2,1019.31
1072.66,1036.17
1074.11,1045.33
1075.57,1065.79
1077.02,1066.94
1078.47,1069.63
1079.93,1089.71
1081.38,1089.12
1082.84,1075.95
1084.29,1097.1
1085.75,1085.83
1087.2,1091.11
1088.65,1086.97
1090.11,1066.22
1091.56,1074.64
1093.02,1122.63
1094.47,1090.62
1095.92,1080.72
1097.38,1080.23
1098.83,1079.24
1100.29,1080.03
1101.74,1076.85
1103.2,1076.46
1104.65,1060.36
1106.1,1051.77
1107.56,1068.66
1109.01,1079.18
1110.47,1053.03
1111.92,1074.7
1113.38,1064.82
1114.83,1057.56
1116.28,1057.54
1117.74,1037.07
1119.19,1058.23
1120.65,1066.38
1122.1,1020.74
1123.55,1021.33
1125.01,1045.19
1126.46,1040.8
1127.92,1038.84
1129.37,1031.12
1130.83,1006.85
1132.28,1022.26
1133.73,1027.47
1135.19,1055.72
1136.64,1040.38
1138.1,1026.18
1139.55,1051.27
1141.01,1053.19
1142.46,1040.48
1143.91,1052.73
1145.37,1049.91
1146.82,1036.75
1148.28,1031.93
1149.73,1043.63
1151.18,1007.03
1152.64,1024.87
1154.09,1036.52
1155.55,1035.5
1157,1044.69
1158.46,1056.51
1159.91,1030.44
1161.36,1045.77
1162.82,1066.79
1164.27,1062.82
1165.73,1058.07
1167.18,1050.78
1168.64,1053.3
1170.09,1043.61
1171.54,1035.95
1173,1062.54
1174.45,1044.25
1175.91,1038.9
1177.36,1071.57
1178.82,1048.98
1180.27,1068.51
1181.72,1080.69
1183.18,1073.1
1184.63,1069.72
1186.09,1073.65
1187.54,1062.06
1188.99,1083.63
1190.45,1079.54
1191.9,1058.66
1193.36,1084.62
1194.81,1103.11
1196.27,1099.36
1197.72,1088.44
1199.17,1098.65
1200.63,1106.36
1202.08,1087.18
1203.54,1128.02
1204.99,1098.83
1206.45,1120.23
1207.9,1134.14
1209.35,1124.31
1210.81,1130.76
1212.26,1136.37
1213.72,1107.3
1215.17,1098.63
1216.62,1134.97
1218.08,1125.36
1219.53,1128.99
1220.99,1123.88
1222.44,1136.96
1223.9,1144.48
1225.35,1143.21
1226.8,1152.21
1228.26,1177.61
1229.71,1195.35
1231.17,1194.6
1232.62,1152.84
1234.08,1166.47
1235.53,1173.5
1236.98,1189.65
1238.44,1171.75
1239.89,1177.88
1241.35,1199.58
1242.8,1183.85
1244.25,1197.98
1245.71,1225.49
1247.16,1233.54
1248.62,1240.53
1250.07,1274.89
1251.53,1259.39
1252.98,1260.72
1254.43,1277.5
1255.89,1288.18
1257.34,1293.31
1258.8,1294.04
1260.25,1311.57
1261.71,1341.91
1263.16,1308.28
1264.61,1356.11
1266.07,1370.85
1267.52,1372.03
1268.98,1382.7
1270.43,1404.31
1271.89,1424.57
1273.34,1461.64
1274.79,1464.54
1276.25,1446.29
1277.7,1497.7
1279.16,1519.57
1280.61,1547.99
1282.06,1567.06
1283.52,1609.01
1284.97,1631.47
1286.43,1652.96
1287.88,1715.07
1289.34,1774.2
1290.79,1791.96
1292.24,1803.33
1293.7,1865.17
1295.15,1897.95
1296.61,1978.4
1298.06,2005.22
1299.52,2063.32
1300.97,2174.89
1302.42,2248.06
1303.88,2295.31
1305.33,2408.12
1306.79,2491.53
1308.24,2562.29
1309.69,2669.36
1311.15,2808.5
1312.6,2921.17
1314.06,3049.37
1315.51,3161.92
1316.97,3319.81
1318.42,3463.03
1319.87,3542.85
1321.33,3736.85
1322.78,3899.97
1324.24,4074.4
1325.69,4158.17
1327.15,4272.36
1328.6,4391.68
1330.05,4453.68
1331.51,4480.02
1332.96,4533.16
1334.42,4540.39
1335.87,4493.4
1337.32,4472.95
1338.78,4379.88
1340.23,4316.58
1341.69,4204.58
1343.14,4065.57
1344.6,3928.36
1346.05,3809.87
1347.5,3671.64
1348.96,3532.21
1350.41,3390.25
1351.87,3234.8
1353.32,3078.89
1354.78,2968.36
1356.23,2845.65
1357.68,2718.67
1359.14,2635.55
1360.59,2501.07
1362.05,2403.14
1363.5,2327.26
1364.96,2259.04
1366.41,2174.45
1367.86,2110.27
1369.32,2075.05
1370.77,2017.82
1372.23,1961.61
1373.68,1945.06
1375.13,1860.14
1376.59,1857.25
1378.04,1777.55
1379.5,1747.3
1380.95,1710.79
1382.41,1698.51
1383.86,1693.24
1385.31,1660.84
1386.77,1633.7
1388.22,1614.05
1389.68,1596.17
1391.13,1591.14
1392.59,1612.97
1394.04,1548.32
1395.49,1571.92
1396.95,1564.93
1398.4,1548.74
1399.86,1551.58
1401.31,1517.93
1402.76,1495.01
1404.22,1510.3
1405.67,1507.62
1407.13,1492.99
1408.58,1485.74
1410.04,1482.35
1411.49,1478.33
1412.94,1466.32
1414.4,1495.13
1415.85,1488.81
1417.31,1469.78
1418.76,1489
1420.22,1504.35
1421.67,1478.68
1423.12,1452.74
1424.58,1467.58
1426.03,1481.48
1427.49,1493.19
1428.94,1508.18
1430.4,1486.99
1431.85,1462.07
1433.3,1484.7
1434.76,1498.42
1436.21,1480.97
1437.67,1510.06
1439.12,1522.15
1440.57,1503.38
1442.03,1504.84
1443.48,1530.58
1444.94,1521.16
1446.39,1541.26
1447.85,1530.98
1449.3,1513.74
1450.75,1566.96
1452.21,1594.26
1453.66,1582.14
1455.12,1563.95
1456.57,1569.78
1458.03,1593.21
1459.48,1601.87
1460.93,1605.48
1462.39,1628.66
1463.84,1622.95
1465.3,1626.11
1466.75,1614.86
1468.2,1678.04
1469.66,1658.63
1471.11,1680.01
1472.57,1702.91
1474.02,1728.95
1475.48,1727.85
1476.93,1755.48
1478.38,1789.72
1479.84,1792.31
1481.29,1800.26
1482.75,1846.69
1484.2,1870.5
1485.66,1850.47
1487.11,1927.59
1488.56,1951.07
1490.02,1979.39
1491.47,1984.82
1492.93,1982.78
1494.38,1972.67
1495.83,2056.87
1497.29,2111.12
1498.74,2165.52
1500.2,2230.17
1501.65,2267.06
1503.11,2305.08
1504.56,2314.58
1506.01,2332.98
1507.47,2447.78
1508.92,2514.67
1510.38,2577.72
1511.83,2657.35
1513.29,2739.64
1514.74,2813.95
1516.19,2911.92
1517.65,3030.89
1519.1,3179.66
1520.56,3341.54
1522.01,3474.52
1523.46,3660.8
1524.92,3869.21
1526.37,4068.77
1527.83,4334.48
1529.28,4641
1530.74,4794.1
1532.19,5171.88
1533.64,5586.75
1535.1,6002.69
1536.55,6472.45
1538.01,7066.33
1539.46,7679.02
1540.92,8326.89
1542.37,9014
1543.82,9769.08
1545.28,10613.1
1546.73,11451.4
1548.19,12413.7
1549.64,13258.1
1551.1,14265.6
1552.55,15223.2
1554,16253.3
1555.46,17211.7
1556.91,18161.6
1558.37,19131.9
1559.82,20032.9
1561.27,20838.2
1562.73,21488.2
1564.18,21992
1565.64,22187.8
1567.09,22216.4
1568.55,22270
1570,21918.6
1571.45,21361.1
1572.91,20712.8
1574.36,19791
1575.82,18605.1
1577.27,17521.1
1578.73,16463
1580.18,15188.4
1581.63,13997.5
1583.09,12836.9
1584.54,11830.1
1586,10927.8
1587.45,9997.98
1588.9,9206.2
1590.36,8536.28
1591.81,7950.97
1593.27,7343.36
1594.72,6946.13
1596.18,6464.68
1597.63,6169.91
1599.08,5873.24
1600.54,5522.7
1601.99,5244.4
1603.45,5045.56
1604.9,4763.65
1606.36,4581.24
1607.81,4411.64
1609.26,4227.06
1610.72,4023.68
1612.17,3790.51
1613.63,3612.29
1615.08,3424.58
1616.54,3266.06
1617.99,3119.13
1619.44,2962.61
1620.9,2864.84
1622.35,2716.05
1623.81,2611.07
1625.26,2502.61
1626.71,2437.91
1628.17,2358.26
1629.62,2267.43
1631.08,2220.59
1632.53,2178.62
1633.99,2115.46
1635.44,2060.27
1636.89,2007.66
1638.35,1953.13
1639.8,1907.36
1641.26,1868.95
1642.71,1845.16
1644.17,1807.36
1645.62,1810.15
1647.07,1701.75
1648.53,1729.67
1649.98,1698.73
1651.44,1638.01
1652.89,1664.9
1654.34,1619.86
1655.8,1620.84
1657.25,1581.47
1658.71,1533.68
1660.16,1520.11
1661.62,1523.99
1663.07,1493.85
1664.52,1481.44
1665.98,1482.98
1667.43,1477.65
1668.89,1446.47
1670.34,1441.18
1671.8,1441.99
1673.25,1424.19
1674.7,1426.39
1676.16,1376.96
1677.61,1429.46
1679.07,1451.95
1680.52,1372.3
1681.97,1370.12
1683.43,1344.64
1684.88,1341.51
1686.34,1362.71
1687.79,1356.53
1689.25,1324.58
1690.7,1306.68
1692.15,1308.43
1693.61,1314.49
1695.06,1309.81
1696.52,1296.13
1697.97,1286.2
1699.43,1296.39
1700.88,1267.2
1702.33,1268.7
1703.79,1259.07
1705.24,1247.29
1706.7,1285.42
1708.15,1234.22
1709.6,1208.16
1711.06,1232.52
1712.51,1213.64
1713.97,1239.07
1715.42,1245.2
1716.88,1214.21
1718.33,1234.53
1719.78,1221.85
1721.24,1218.75
1722.69,1229.78
1724.15,1214.71
1725.6,1201.71
1727.06,1194.69
1728.51,1205.19
1729.96,1210.03
1731.42,1197.79
1732.87,1215.81
1734.33,1201.97
1735.78,1205.54
1737.24,1191.63
1738.69,1200.15
1740.14,1197.48
1741.6,1194.96
1743.05,1204.21
1744.51,1205.57
1745.96,1200.09
1747.41,1187.23
1748.87,1189.5
1750.32,1168.05
1751.78,1155.92
1753.23,1161.22
1754.69,1175.53
1756.14,1179.12
1757.59,1146.63
1759.05,1149.9
1760.5,1147.54
1761.96,1149.02
1763.41,1153.14
1764.87,1116.3
1766.32,1126.14
1767.77,1154.43
1769.23,1143.35
1770.68,1140.96
1772.14,1148.79
1773.59,1118.92
1775.04,1120.06
1776.5,1141.05
1777.95,1125.35
1779.41,1094.72
1780.86,1129.12
1782.32,1127.22
1783.77,1123.23
1785.22,1102.03
1786.68,1081.82
1788.13,1100.48
1789.59,1088.85
1791.04,1103.58
1792.5,1108.43
1793.95,1103.58
1795.4,1113.14
1796.86,1101.91
1798.31,1110.4
1799.77,1101.36
1801.22,1100.5
1802.68,1081.69
1804.13,1074.86
1805.58,1087.63
1807.04,1099.1
1808.49,1085.8
1809.95,1081.81
1811.4,1079.25
1812.85,1074.32
1814.31,1064.22
1815.76,1075.06
1817.22,1071.68
1818.67,1079.88
1820.13,1059.88
1821.58,1080.79
1823.03,1073.68
1824.49,1064.2
1825.94,1072.19
1827.4,1080.31
1828.85,1048.19
1830.31,1047.86
1831.76,1068.91
1833.21,1096.22
1834.67,1078.6
1836.12,1064.32
1837.58,1088.49
1839.03,1082.31
1840.48,1079.22
1841.94,1095.54
1843.39,1090.32
1844.85,1106.65
1846.3,1104.87
1847.76,1111.43
1849.21,1117.74
1850.66,1094.29
1852.12,1084.92
1853.57,1095.65
1855.03,1106.01
1856.48,1149.66
1857.94,1128.85
1859.39,1135.7
1860.84,1129
1862.3,1134.97
1863.75,1104.74
1865.21,1142.66
1866.66,1131.06
1868.11,1140.76
1869.57,1114.52
1871.02,1109.42
1872.48,1098.12
1873.93,1108.48
1875.39,1121.91
1876.84,1103.58
1878.29,1128.97
1879.75,1110.94
1881.2,1114.03
1882.66,1133.53
1884.11,1108.73
1885.57,1098.55
1887.02,1102.66
1888.47,1084.18
1889.93,1080.31
1891.38,1070.99
1892.84,1077.16
1894.29,1087.53
1895.75,1075.88
1897.2,1059.35
1898.65,1068.93
1900.11,1052.54
1901.56,1070.87
1903.02,1037.88
1904.47,1048.79
1905.92,1038.02
1907.38,1067.28
1908.83,1033.73
1910.29,1055.93
1911.74,1034.18
1913.2,1022.67
1914.65,1066.11
1916.1,1040.15
1917.56,1038.16
1919.01,1008.18
1920.47,1056.04
1921.92,1017.28
1923.38,1009.07
1924.83,1057.74
1926.28,1014.34
1927.74,1015.26
1929.19,1020.32
1930.65,1040.96
1932.1,1031.38
1933.55,1031.04
1935.01,1036.74
1936.46,1013.82
1937.92,1043.2
1939.37,1071.87
1940.83,1037.46
1942.28,1043.15
1943.73,1045.47
1945.19,1024.99
1946.64,1020.91
1948.1,1048.96
1949.55,1040.45
1951.01,1030.91
1952.46,1023.89
1953.91,1020.22
1955.37,1032.57
1956.82,1053.48
1958.28,1069.05
1959.73,1060.65
1961.18,1041.82
1962.64,1055.43
1964.09,1070.11
1965.55,1065.35
1967,1057.43
1968.46,1065.01
1969.91,1068.36
1971.36,1084.24
1972.82,1079.73
1974.27,1067.43
1975.73,1042.19
1977.18,1077.81
1978.64,1079.63
1980.09,1089.9
1981.54,1071.68
1983,1062.86
1984.45,1068.59
1985.91,1092.58
1987.36,1062.53
1988.82,1061.92
1990.27,1085.47
1991.72,1089.3
1993.18,1084.85
1994.63,1102.72
1996.09,1096.28
1997.54,1108.29
1998.99,1055.82
2000.45,1083.18
2001.9,1087.67
2003.36,1065.69
2004.81,1064.02
2006.27,1082.97
2007.72,1095.13
2009.17,1114.67
2010.63,1074.41
2012.08,1075.8
2013.54,1099.11
2014.99,1079.18
2016.45,1027.4
2017.9,1057.35
2019.35,1072.49
2020.81,1070.96
2022.26,1055.27
2023.72,1054.01
2025.17,1042.69
2026.62,1040.37
2028.08,1083.79
2029.53,1075.18
2030.99,1054.43
2032.44,1038.04
2033.9,1047.68
2035.35,1055.81
2036.8,1033.48
2038.26,1026.14
2039.71,1027.85
2041.17,1031.39
2042.62,1039.9
2044.08,1016.74
2045.53,1022.7
2046.98,1019.43
2048.44,1037.99
2049.89,1035.48
2051.35,1007.3
2052.8,1015.37
2054.25,1019.18
2055.71,1041.31
2057.16,1022.83
2058.62,991.221
2060.07,982.09
2061.53,1001.2
2062.98,1014.47
2064.43,1019.74
2065.89,1005.49
2067.34,983.765
2068.8,965.256
2070.25,979.754
2071.71,991.615
2073.16,994.101
2074.61,985.058
2076.07,970.546
2077.52,981.434
2078.98,999.841
2080.43,981.169
2081.89,981.294
2083.34,975.973
2084.79,959.041
2086.25,959.895
2087.7,971.245
2089.16,977.357
2090.61,979.259
2092.06,983.654
2093.52,996.341
2094.97,985.865
2096.43,974.098
2097.88,993.311
2099.34,1000.26
2100.79,988.563
2102.24,964.671
2103.7,984.38
2105.15,1057.88
2106.61,1081.02
2108.06,1004.06
2109.52,994.311
2110.97,990.556
2112.42,990.379
2113.88,991.033
2115.33,986.176
2116.79,980.268
2118.24,979.144
2119.69,990.075
2121.15,995.497
2122.6,983.681
2124.06,995.116
2125.51,1000.49
2126.97,999.369
2128.42,993.846
2129.87,998.517
2131.33,1005.78
2132.78,1004.74
2134.24,1000
2135.69,1000.34
2137.15,996.017
2138.6,992.295
2140.05,996.329
2141.51,996.195
2142.96,1011.96
2144.42,1005.4
2145.87,1001.58
2147.32,1013.17
2148.78,1020.16
2150.23,1006.01
2151.69,1006.62
2153.14,1006.09
2154.6,1010.52
2156.05,1012.35
2157.5,999.44
2158.96,1002.04
2160.41,1012.95
2161.87,1033.81
2163.32,1028.92
2164.78,1022.12
2166.23,1019.95
2167.68,1033.52
2169.14,1021.63
2170.59,1041.71
2172.05,1034.69
2173.5,1039.28
2174.96,1028.88
2176.41,1037.37
2177.86,1057.47
2179.32,1054.18
2180.77,1060.67
2182.23,1037.17
2183.68,1039.12
2185.13,1032.32
2186.59,1046.76
2188.04,1051.67
2189.5,1043.3
2190.95,1054.21
2192.41,1066.3
2193.86,1044.86
2195.31,1055.66
2196.77,1057.81
2198.22,1033.88
2199.68,1045.1
2201.13,1057.81
2202.59,1045.56
2204.04,1069.42
2205.49,1034.74
2206.95,1052.67
2208.4,1060.94
2209.86,1047.27
2211.31,1062.07
2212.76,1064.91
2214.22,1045.31
2215.67,1050.98
2217.13,1043.75
2218.58,1049.59
2220.04,1041.2
2221.49,1101.05
2222.94,1043.71
2224.4,1026.34
2225.85,1068.28
2227.31,1065.61
2228.76,1062.47
2230.22,1050.74
2231.67,1049.94
2233.12,1077.47
2234.58,1045.97
2236.03,1048.69
2237.49,1070.05
2238.94,1062.45
2240.4,1052.71
2241.85,1071.25
2243.3,1091.88
2244.76,1080.31
2246.21,1070.81
2247.67,1063.08
2249.12,1067.6
2250.57,1053.34
2252.03,1063.51
2253.48,1085.68
2254.94,1080.3
2256.39,1047.37
2257.85,1057.26
2259.3,1077.52
2260.75,1068.85
2262.21,1071.11
2263.66,1079.14
2265.12,1096.83
2266.57,1079.73
2268.03,1079.44
2269.48,1080.85
2270.93,1085.96
2272.39,1102.73
2273.84,1057.97
2275.3,1075.93
2276.75,1091.87
2278.2,1103.49
2279.66,1108.22
2281.11,1081.65
2282.57,1094
2284.02,1112.66
2285.48,1112.73
2286.93,1109.22
2288.38,1066.46
2289.84,1136.5
2291.29,1109.69
2292.75,1121
2294.2,1114.3
2295.66,1130.91
2297.11,1145.21
2298.56,1145.87
2300.02,1135.94
2301.47,1122.96
2302.93,1117.38
2304.38,1132.39
2305.83,1139.64
2307.29,1127.41
2308.74,1146.55
2310.2,1132.67
2311.65,1140.82
2313.11,1157.84
2314.56,1142.88
2316.01,1151.39
2317.47,1140.61
2318.92,1154.31
2320.38,1182.65
2321.83,1189.4
2323.29,1178.6
2324.74,1178.38
2326.19,1183.42
2327.65,1170.96
2329.1,1154.54
2330.56,1182.18
2332.01,1211.28
2333.47,1171.9
2334.92,1208.36
2336.37,1197.14
2337.83,1214.73
2339.28,1225.65
2340.74,1201.64
2342.19,1206.97
2343.64,1245.88
2345.1,1226.08
2346.55,1231.9
2348.01,1247.87
2349.46,1220
2350.92,1250.33
2352.37,1238.59
2353.82,1255.08
2355.28,1260.97
2356.73,1240.69
2358.19,1259.59
2359.64,1274.52
2361.1,1286.5
2362.55,1292.71
2364,1318.03
2365.46,1308.91
2366.91,1286.83
2368.37,1301.71
2369.82,1318.4
2371.27,1327.44
2372.73,1343.51
2374.18,1334.92
2375.64,1354.14
2377.09,1381.99
2378.55,1379.89
2380,1383.14
2381.45,1382.82
2382.91,1394.74
2384.36,1415.52
2385.82,1460.71
2387.27,1487.58
2388.73,1435.74
2390.18,1496.9
2391.63,1521.51
2393.09,1539.61
2394.54,1519.93
2396,1517.68
2397.45,1560.69
2398.9,1608.52
2400.36,1626.97
2401.81,1656.51
2403.27,1688.55
2404.72,1702.15
2406.18,1721.92
2407.63,1748.39
2409.08,1786.4
2410.54,1800.55
2411.99,1798.8
2413.45,1859.13
2414.9,1865.37
2416.36,1854.33
2417.81,1881.21
2419.26,1897.23
2420.72,1886.84
2422.17,1962.91
2423.63,1968.03
2425.08,2000.56
2426.53,2006.22
2427.99,1977.45
2429.44,1997.13
2430.9,1972.19
2432.35,1981.99
2433.81,1999.58
2435.26,1970.15
2436.71,1990.03
2438.17,1971.53
2439.62,1986.83
2441.08,2005.77
2442.53,2000.85
2443.99,2008.68
2445.44,1987.07
2446.89,1916.26
2448.35,1936.77
2449.8,1920.65
2451.26,1933.33
2452.71,1899.42
2454.17,1881.53
2455.62,1905.73
2457.07,1903.31
2458.53,1877.71
2459.98,1879.74
2461.44,1824.66
2462.89,1865.4
2464.34,1834.32
2465.8,1839.3
2467.25,1814.85
2468.71,1807.43
2470.16,1790.06
2471.62,1777.6
2473.07,1769.29
2474.52,1780.16
2475.98,1780.02
2477.43,1788.8
2478.89,1759.13
2480.34,1762.87
2481.8,1715.34
2483.25,1719.89
2484.7,1774.94
2486.16,1722.75
2487.61,1717.99
2489.07,1673.59
2490.52,1717.45
2491.97,1733.6
2493.43,1729.24
2494.88,1731.04
2496.34,1744.5
2497.79,1769.04
2499.25,1738.75
2500.7,1726.55
2502.15,1755.24
2503.61,1740.21
2505.06,1721.31
2506.52,1727.06
2507.97,1746.07
2509.43,1747.32
2510.88,1740.16
2512.33,1768.4
2513.79,1759.02
2515.24,1778.21
2516.7,1757.31
2518.15,1761.71
2519.6,1793.13
2521.06,1775.26
2522.51,1779.63
2523.97,1779.45
2525.42,1787.76
2526.88,1795.22
2528.33,1830.48
2529.78,1843.71
2531.24,1864.47
2532.69,1869.11
2534.15,1884.54
2535.6,1897.55
2537.06,1924.36
2538.51,1947.53
2539.96,1919.14
2541.42,1955.64
2542.87,1928.68
2544.33,1987.06
2545.78,2007.44
2547.24,2030.62
2548.69,2056.25
2550.14,2039.28
2551.6,2083.12
2553.05,2112.7
2554.51,2135.18
2555.96,2174.17
2557.41,2181.3
2558.87,2197.79
2560.32,2234.34
2561.78,2256.93
2563.23,2270.75
2564.69,2330.35
2566.14,2342.75
2567.59,2371.28
2569.05,2468
2570.5,2437.15
2571.96,2465.8
2573.41,2540.58
2574.87,2587.19
2576.32,2648.91
2577.77,2694.19
2579.23,2782.79
2580.68,2818.79
2582.14,2872.67
2583.59,2927.79
2585.04,2967.46
2586.5,3057.69
2587.95,3168.14
2589.41,3195.74
2590.86,3253.37
2592.32,3319.67
2593.77,3427.35
2595.22,3543.78
2596.68,3700
2598.13,3742.29
2599.59,3845.45
2601.04,3973.92
2602.5,4104.28
2603.95,4251.4
2605.4,4339.67
2606.86,4498.19
2608.31,4661.98
2609.77,4842.85
2611.22,5008.3
2612.68,5227.42
2614.13,5298.68
2615.58,5645.44
2617.04,5760.2
2618.49,5978.1
2619.95,6246.22
2621.4,6475.23
2622.85,6723.8
2624.31,6944.74
2625.76,7259.01
2627.22,7537.23
2628.67,7783.7
2630.13,8132.02
2631.58,8436.8
2633.03,8855.27
2634.49,9198.03
2635.94,9476.61
2637.4,9788.71
2638.85,10161.9
2640.31,10486
2641.76,10816.3
2643.21,11139
2644.67,11455.7
2646.12,11801.2
2647.58,12102.9
2649.03,12410.1
2650.48,12623.8
2651.94,12889
2653.39,13131.1
2654.85,13257.8
2656.3,13488.6
2657.76,13568.5
2659.21,13829.2
2660.66,13883.6
2662.12,13887.7
2663.57,13942.6
2665.03,13931
2666.48,13915.7
2667.94,13842.9
2669.39,13821.4
2670.84,13674.5
2672.3,13517.6
2673.75,13264.9
2675.21,13043.8
2676.66,12780.1
2678.11,12488.7
2679.57,12270.8
2681.02,11952.9
2682.48,11690.4
2683.93,11295.6
2685.39,10856.7
2686.84,10595.1
2688.29,10300
2689.75,9980.77
2691.2,9579.34
2692.66,9168.68
2694.11,8893.31
2695.57,8564.54
2697.02,8193.92
2698.47,7954.12
2699.93,7484.59
2701.38,7119.08
2702.84,6877.57
2704.29,6623.66
2705.75,6352.92
2707.2,6097.76
2708.65,5834.36
2710.11,5642.07
2711.56,5400.92
2713.02,5122.92
2714.47,5054.96
2715.92,4815.85
2717.38,4622.46
2718.83,4445.9
2720.29,4274.54
2721.74,4123.63
2723.2,3958.1
2724.65,3870.96
2726.1,3744.35
2727.56,3646.13
2729.01,3490.29
2730.47,3376.28
2731.92,3286.77
2733.38,3222.86
2734.83,3020.92
2736.28,2959.41
2737.74,2923.22
2739.19,2866.86
2740.65,2717.1
2742.1,2688.35
2743.55,2660.55
2745.01,2602.56
2746.46,2501.4
2747.92,2503.73
2749.37,2378.4
2750.83,2417.57
2752.28,2360.77
2753.73,2263.26
2755.19,2229.16
2756.64,2162.48
2758.1,2161.03
2759.55,2170.61
2761.01,2119.86
2762.46,2061.16
2763.91,2078.29
2765.37,2032.54
2766.82,2017.48
2768.28,1986.54
2769.73,1965.8
2771.18,1934.23
2772.64,1903.36
2774.09,1900.51
2775.55,1865.01
2777,1820.83
2778.46,1812.51
2779.91,1811.07
2781.36,1785.14
2782.82,1754.63
2784.27,1741.1
2785.73,1720.2
2787.18,1722.01
2788.64,1729.15
2790.09,1717.35
2791.54,1695.37
2793,1674.91
2794.45,1642.12
2795.91,1616.88
2797.36,1624.33
2798.82,1609.69
2800.27,1634.81
2801.72,1588.72
2803.18,1565.26
2804.63,1579.59
2806.09,1581.18
2807.54,1565.53
2808.99,1561.59
2810.45,1573.16
2811.9,1529.81
2813.36,1530.73
2814.81,1523.15
2816.27,1497.3
2817.72,1543.42
2819.17,1492.93
2820.63,1514.79
2822.08,1495.73
2823.54,1488.68
2824.99,1492.22
2826.45,1471.62
2827.9,1463.67
2829.35,1497.65
2830.81,1472.08
2832.26,1418.47
2833.72,1458.77
2835.17,1474.21
2836.62,1450.64
2838.08,1430.73
2839.53,1424.23
2840.99,1444.02
2842.44,1428.6
2843.9,1408.1
2845.35,1385.66
2846.8,1432.93
2848.26,1428.78
2849.71,1418.34
2851.17,1429.65
2852.62,1414.25
2854.08,1418.2
2855.53,1416.96
2856.98,1422.72
2858.44,1426.11
2859.89,1409.52
2861.35,1382.72
2862.8,1400.33
2864.25,1402.96
2865.71,1404.15
2867.16,1398.52
2868.62,1387.48
2870.07,1414.59
2871.53,1455.1
2872.98,1442.31
2874.43,1437.66
2875.89,1419.49
2877.34,1445.9
2878.8,1443.86
2880.25,1434.16
2881.71,1419.82
2883.16,1433.87
2884.61,1436.94
2886.07,1421.73
2887.52,1427.99
2888.98,1438.41
2890.43,1483.46
2891.89,1470.87
2893.34,1489.03
2894.79,1487.07
2896.25,1454.21
2897.7,1460.89
2899.16,1465.18
2900.61,1471.46
2902.06,1491.52
2903.52,1434.67
2904.97,1461.93
2906.43,1486.5
2907.88,1474.23
2909.34,1493.56
2910.79,1502.31
2912.24,1481.65
2913.7,1479.13
2915.15,1446.06
2916.61,1473.21
2918.06,1440.97
2919.52,1429.75
2920.97,1408.79
2922.42,1428.9
2923.88,1420.89
2925.33,1423.39
2926.79,1393.39
2928.24,1384.05
2929.69,1374.41
2931.15,1363.81
2932.6,1337.07
2934.06,1396.09
2935.51,1351.64
2936.97,1343.72
2938.42,1340.17
2939.87,1361.65
2941.33,1316.26
2942.78,1301.62
2944.24,1313.74
2945.69,1289.08
2947.15,1251.43
2948.6,1247.75
2950.05,1221.72
2951.51,1241.26
2952.96,1212.59
2954.42,1194.72
2955.87,1194.75
2957.32,1198.71
2958.78,1212.51
2960.23,1206
2961.69,1192.55
2963.14,1151.81
2964.6,1125.86
2966.05,1125.19
2967.5,1134.23
2968.96,1131.93
2970.41,1118.71
2971.87,1129.8
2973.32,1106.8
2974.78,1117.1
2976.23,1129.73
2977.68,1094.66
2979.14,1068.21
2980.59,1052.94
2982.05,1054.86
2983.5,1037.03
2984.96,1031.33
2986.41,1048.47
2987.86,1054.29
2989.32,1046.87
2990.77,1016.43
2992.23,1019.87
2993.68,1044.38
2995.13,1033.08
2996.59,1030.6
2998.04,1027.69
2999.5,1035
3000.95,1021.9
3002.41,1022.99
3003.86,1007.97
3005.31,1006.41
3006.77,1003.02
3008.22,994.953
3009.68,1006.18
3011.13,981.041
3012.59,972.972
3014.04,980.21
3015.49,998.321
3016.95,972.536
3018.4,969.321
3019.86,989.646
3021.31,974.161
3022.76,969.981
3024.22,982.159
3025.67,963.247
3027.13,994.998
3028.58,1009.43
3030.04,981.88
3031.49,972.627
3032.94,972.614
3034.4,964.125
3035.85,959.341
3037.31,965.085
3038.76,980.279
3040.22,969.602
3041.67,983.507
3043.12,981.784
3044.58,956.947
3046.03,951.293
3047.49,943.992
3048.94,964.653
3050.4,967.694
3051.85,936.147
3053.3,942.39
3054.76,972.295
3056.21,958.48
3057.67,971.074
3059.12,974.342
3060.57,991.28
3062.03,956.647
3063.48,975.4
3064.94,959.075
3066.39,965.113
3067.85,964.116
3069.3,980.866
3070.75,982.129
3072.21,970.592
3073.66,945.681
3075.12,929.506
3076.57,951.678
3078.03,985.005
3079.48,978.367
3080.93,985.161
3082.39,971.376
3083.84,989.142
3085.3,1002.25
3086.75,1005.09
3088.2,1014.01
3089.66,1011.15
3091.11,1012.28
3092.57,989.191
3094.02,977.437
3095.48,1033.83
3096.93,1020.02
3098.38,1032.89
3099.84,1024.91
3101.29,1057.99
3102.75,1070.58
3104.2,1062.42
3105.66,1063.22
3107.11,1119.53
3108.56,1085.12
3110.02,1122.03
3111.47,1102.93
3112.93,1085.66
3114.38,1093.08
3115.83,1172.18
3117.29,1161.51
3118.74,1158.64
3120.2,1159.23
3121.65,1198.93
3123.11,1236.89
3124.56,1236.73
3126.01,1257.21
3127.47,1257.62
3128.92,1239.62
3130.38,1280.09
3131.83,1283.64
3133.29,1274.17
3134.74,1289.24
3136.19,1318.54
3137.65,1301.94
3139.1,1312.3
3140.56,1331.79
3142.01,1314.41
3143.47,1343.51
3144.92,1349.61
3146.37,1359.19
3147.83,1330.5
3149.28,1361.61
3150.74,1354.38
3152.19,1352.43
3153.64,1358.03
3155.1,1394.61
3156.55,1381.68
3158.01,1326.36
3159.46,1336.23
3160.92,1375.09
3162.37,1386.15
3163.82,1375.82
3165.28,1403.12
3166.73,1384.61
3168.19,1371.6
3169.64,1359.22
3171.1,1403.85
3172.55,1400.5
3174,1399.44
3175.46,1382.03
3176.91,1382.73
3178.37,1409.46
3179.82,1427.23
3181.27,1449.81
3182.73,1460.77
3184.18,1486.35
3185.64,1445.43
3187.09,1472.84
3188.55,1507.46
3190,1468.33
3191.45,1534.25
3192.91,1531.11
3194.36,1530.47
3195.82,1557.23
3197.27,1543.48
3198.73,1544.12
3200.18,1558.15
3201.63,1622.59
3203.09,1612.36
3204.54,1580.6
3206,1601.07
3207.45,1588.71
3208.9,1616.24
3210.36,1589.11
3211.81,1581.47
3213.27,1594.21
3214.72,1571.99
3216.18,1564.19
3217.63,1557.64
3219.08,1516.61
3220.54,1484.82
3221.99,1468.68
3223.45,1449
3224.9,1424.21
3226.36,1385.45
3227.81,1380.97
3229.26,1349.77
3230.72,1298.78
3232.17,1286.18
3233.63,1222.46
3235.08,1210.03
3236.53,1186.51
3237.99,1162.15
3239.44,1167.12
3240.9,1121.66
3242.35,1076.33
3243.81,1092.71
3245.26,1046.2
3246.71,1051.37
3248.17,981.709
3249.62,979.405
3251.08,971.191
3252.53,967.429
3253.99,956.521
3255.44,944.322
3256.89,917.479
3258.35,909.531
3259.8,893.234
3261.26,879.053
3262.71,860.251
3264.17,877.127
3265.62,867.597
3267.07,860.234
3268.53,857.92
3269.98,842.714
3271.44,828.493
3272.89,833.89
3274.34,837.567
3275.8,851.071
3277.25,834.417
3278.71,829.152
3280.16,803.633
3281.62,792.566
3283.07,804.293
3284.52,801.572
3285.98,828.204
3287.43,825.982
3288.89,784.282
3290.34,769.37
3291.8,782.24
3293.25,774.877
3294.7,786.109
3296.16,788.642
3297.61,799.343
3299.07,793.46
3300.52,759.009
3301.97,777.339
3303.43,772.702
3304.88,771.97
3306.34,780.45
3307.79,787.32
3309.25,800.281
3310.7,798.02
3312.15,783.277
3313.61,791.646
3315.06,777.276
3316.52,784.353
3317.97,781.24
3319.43,768.412
3320.88,769.738
3322.33,760.579
3323.79,786.651
3325.24,779.241
3326.7,779.455
3328.15,766.459
3329.6,764.518
3331.06,767.045
3332.51,763.309
3333.97,763.877
3335.42,735.021
3336.88,760.666
3338.33,766.787
3339.78,760.947
3341.24,754.813
3342.69,762.798
3344.15,770.082
3345.6,764.765
3347.06,764.401
3348.51,761.625
3349.96,772.456
3351.42,758.093
3352.87,758.048
3354.33,760.958
3355.78,766.597
3357.24,764.708
3358.69,741.625
3360.14,748.054
3361.6,751.92
3363.05,745.436
3364.51,758.955
3365.96,768.695
3367.41,769.25
3368.87,755.094
3370.32,742.152
3371.78,751.55
3373.23,748.506
3374.69,730.525
3376.14,753.761
3377.59,755.322
3379.05,718.148
3380.5,738.183
3381.96,755.09
3383.41,748.559
3384.87,744.683
3386.32,734.326
3387.77,735.262
3389.23,733.801
3390.68,746.2
3392.14,741.898
3393.59,743.414
3395.04,761.479
3396.5,762.95
3397.95,738.102
3399.41,727.567
3400.86,743.67
3402.32,736.304
3403.77,745.278
3405.22,722.219
3406.68,749.089
3408.13,740.624
3409.59,762.94
3411.04,753.183
3412.5,753.668
3413.95,759.553
3415.4,726.345
3416.86,749.097
3418.31,731.018
3419.77,733.935
3421.22,733.217
3422.68,736.547
3424.13,749.809
3425.58,737.067
3427.04,764.433
3428.49,745.881
3429.95,717.731
3431.4,722.524
3432.85,736.486
3434.31,713.213
3435.76,739.217
3437.22,729.767
3438.67,710.17
3440.13,737.48
3441.58,723.674
3443.03,735.733
3444.49,716.66
3445.94,728.703
3447.4,710.899
3448.85,729.67
3450.31,728.076
3451.76,748.839
3453.21,701.515
3454.67,723.557
3456.12,729.433
3457.58,709.176
3459.03,742.303
3460.48,729.118
3461.94,737.709
3463.39,714.2
3464.85,735.345
3466.3,729.716
3467.76,714.094
3469.21,714.963
3470.66,704.246
3472.12,694.993
3473.57,707.254
3475.03,715.851
3476.48,724.759
3477.94,735.898
3479.39,730.796
3480.84,733.446
3482.3,735.809
3483.75,707.1
3485.21,730.92
3486.66,703.093
3488.11,731.651
3489.57,746.626
3491.02,730.94
3492.48,719.914
3493.93,732.853
3495.39,750.135
3496.84,746.608
3498.29,731.437
3499.75,723.94
3501.2,713.712
3502.66,716.448
3504.11,720.022
3505.57,707.364
3507.02,749.404
3508.47,715.96
3509.93,751.471
3511.38,713.321
3512.84,727.681
3514.29,714.567
3515.75,703.698
3517.2,706.899
3518.65,745.822
3520.11,730.444
3521.56,703.312
3523.02,736.733
3524.47,732.624
3525.92,716.76
3527.38,714.855
3528.83,706.408
3530.29,721.085
3531.74,721.562
3533.2,728.977
3534.65,714.411
3536.1,705.735
3537.56,732.28
3539.01,725.75
3540.47,730.11
3541.92,723.479
3543.38,713.572
3544.83,709.237
3546.28,717.32
3547.74,705.28
3549.19,713.495
3550.65,719.94
3552.1,712.338
3553.55,721.31
3555.01,735.028
3556.46,715.411
3557.92,719.354
3559.37,723.854
3560.83,700.937
3562.28,705.955
3563.73,714.36
3565.19,701.58
3566.64,686.703
3568.1,708.246
3569.55,725.432
3571.01,715.494
3572.46,725.342
3573.91,715.716
3575.37,721.004
3576.82,711.006
3578.28,697.186
3579.73,714.527
3581.18,718.608
3582.64,718.304
3584.09,707.56
3585.55,710.739
3587,727.58
3588.46,719.87
3589.91,723.867
3591.36,727.073
3592.82,708.942
3594.27,720.262
3595.73,707.162
3597.18,709.639
3598.64,709.222
3600.09,719.832
3601.54,697.541
3603,709.175
3604.45,719.262
3605.91,697.711
3607.36,722.648
3608.82,683.025
3610.27,707.015
3611.72,719.309
3613.18,699.993
3614.63,690.476
3616.09,713.048
3617.54,699.991
3618.99,697.752
3620.45,740.242
3621.9,714.833
3623.36,708.115
3624.81,695.771
3626.27,699.259
3627.72,726.007
3629.17,716.823
3630.63,705.015
3632.08,698.553
3633.54,690.935
3634.99,715.472
3636.45,708.51
3637.9,730.938
3639.35,727.961
3640.81,724.144
3642.26,708.049
3643.72,704.946
3645.17,728.768
3646.62,705.467
3648.08,698.017
3649.53,698.014
3650.99,721.198
3652.44,737.673
3653.9,723.749
3655.35,705.634
3656.8,731.369
3658.26,730.81
3659.71,701.215
3661.17,725.313
3662.62,728.005
3664.08,700.618
3665.53,708.616
3666.98,736.242
3668.44,719.914
3669.89,715.612
3671.35,724.414
3672.8,724.613
3674.25,707.937
3675.71,695.941
3677.16,699.196
3678.62,707.085
3680.07,704.327
3681.53,708.989
3682.98,733.636
3684.43,723.938
3685.89,692.344
3687.34,727.379
3688.8,707.94
3690.25,712.694
3691.71,711.42
3693.16,713.907
3694.61,685.691
3696.07,696.805
3697.52,708.946
3698.98,727.139
3700.43,721.83
3701.89,717.274
3703.34,704.134
3704.79,731.438
3706.25,731.392
3707.7,703.106
3709.16,708.723
3710.61,693.2
3712.06,700.491
3713.52,728.664
3714.97,718.68
3716.43,732.297
3717.88,710.192
3719.34,710.336
3720.79,696.685
3722.24,699.539
3723.7,719.72
3725.15,723.758
3726.61,713.848
3728.06,724.355
3729.52,718.147
3730.97,751.666
3732.42,745.099
3733.88,716.932
3735.33,726.371
3736.79,700.378
3738.24,731.63
3739.69,722.726
3741.15,709.687
3742.6,758.073
3744.06,716.89
3745.51,715.954
3746.97,728.709
3748.42,714.603
3749.87,696.029
3751.33,703.143
3752.78,718.082
3754.24,702.381
3755.69,720.966
3757.15,721.198
3758.6,719.557
3760.05,718.709
3761.51,696.358
3762.96,706.576
3764.42,711.029
3765.87,705.672
3767.32,726.585
3768.78,709.872
3770.23,713.453
3771.69,719.363
3773.14,749.249
3774.6,722.131
3776.05,730.024
3777.5,735.44
3778.96,712.867
3780.41,731.572
3781.87,724.811
3783.32,726.115
3784.78,718.192
3786.23,726.919
3787.68,726.263
3789.14,731.943
3790.59,718.591
3792.05,735
3793.5,715.943
3794.96,722.811
3796.41,749.112
3797.86,739.151
3799.32,715.844
3800.77,709.19
3802.23,700.926
3803.68,746.365
3805.13,723.535
3806.59,722.705
3808.04,726.817
3809.5,720.878
3810.95,727.453
3812.41,730.126
3813.86,742.274
3815.31,734.898
3816.77,729.359
3818.22,710.541
3819.68,732.375
3821.13,739.598
3822.59,735.569
3824.04,729.787
3825.49,726.824
3826.95,735.268
3828.4,723.699
3829.86,696.461
3831.31,740.085
3832.76,722.452
3834.22,718.89
3835.67,725.423
3837.13,752.433
3838.58,707.031
3840.04,745.801
3841.49,763.709
3842.94,721.899
3844.4,739.203
3845.85,729.473
3847.31,739.382
3848.76,719.992
3850.22,763.655
3851.67,736.974
3853.12,731.729
3854.58,735.207
3856.03,740.229
3857.49,736.303
3858.94,732.549
3860.4,730.442
3861.85,731.457
3863.3,741.051
3864.76,754.203
3866.21,716.175
3867.67,741.921
3869.12,740.926
3870.57,735.2
3872.03,718.83
3873.48,730.349
3874.94,732.374
3876.39,747.405
3877.85,730.679
3879.3,738.294
3880.75,750.058
3882.21,754.961
3883.66,771.133
3885.12,764.992
3886.57,759.127
3888.03,754.899
3889.48,735.502
3890.93,745.705
3892.39,765.124
3893.84,748.708
3895.3,739.527
3896.75,735.358
3898.2,748.756
3899.66,759.595
3901.11,754.96
3902.57,778.903
3904.02,773.785
3905.48,742.628
3906.93,771.062
3908.38,769.385
3909.84,756.439
3911.29,747.951
3912.75,754.509
3914.2,772.809
3915.66,773.573
3917.11,789.233
3918.56,783.835
3920.02,784.637
3921.47,772.451
3922.93,774.901
3924.38,792.651
3925.83,773.482
3927.29,767.586
3928.74,765.764
3930.2,776.528
3931.65,785.848
3933.11,774.048
3934.56,782.191
3936.01,792.226
3937.47,775.427
3938.92,796.604
3940.38,769.955
3941.83,761.561
3943.29,775.322
3944.74,785.863
3946.19,784.525
3947.65,794.555
3949.1,796.133
3950.56,796.085
3952.01,814.926
3953.47,799.201
3954.92,797.562
3956.37,789.164
3957.83,775.209
3959.28,776.039
3960.74,806.199
3962.19,791.715
3963.64,817.377
3965.1,800.204
3966.55,818.46
3968.01,809.042
3969.46,833.599
3970.92,813.352
3972.37,813.392
3973.82,803.716
3975.28,841.171
3976.73,815.594
3978.19,812.159
3979.64,825.487
3981.1,831.449
3982.55,828.734
3984,830.801
3985.46,824.376
3986.91,814.31
3988.37,829.544
3989.82,842.954
3991.27,847.565
3992.73,863.037
3994.18,866.303
3995.64,839.745
3997.09,829.965
3998.55,841.949
4000,855.264
