0.897666,103.095
2.35189,103.095
3.8061,531.844
5.26032,184.294
6.71454,168.297
8.16876,152.654
9.62298,143.134
11.0772,135.953
12.5314,125.469
13.9856,113.305
15.4399,106.607
16.8941,99.0546
18.3483,89.9142
19.8025,83.6629
21.2567,80.6004
22.711,77.4158
24.1652,74.0254
25.6194,72.6521
27.0736,71.6868
28.5278,70.5124
29.982,68.5896
31.4363,66.5619
32.8905,63.4904
34.3447,63.4589
35.7989,58.8214
37.2531,57.5047
38.7074,59.8815
40.1616,67.1101
41.6158,75.8257
43.07,82.9684
44.5242,98.8212
45.9785,127.495
47.4327,171.608
48.8869,266.394
50.3411,408.011
51.7953,567.924
53.2495,750.282
54.7038,934.781
56.158,1105.25
57.6122,1258.59
59.0664,1367.59
60.5206,1455.92
61.9749,1492.24
63.4291,1535.18
64.8833,1576.06
66.3375,1616.79
67.7917,1611.43
69.246,1632.23
70.7002,1637.65
72.1544,1681.37
73.6086,1721.09
75.0628,1723.61
76.5171,1718.19
77.9713,1771.01
79.4255,1836.95
80.8797,1865.05
82.3339,1834.35
83.7882,1844.32
85.2424,1807.34
86.6966,1755.94
88.1508,1717.04
89.605,1697.8
91.0592,1626.54
92.5135,1561.75
93.9677,1505.87
95.4219,1444.25
96.8761,1408.62
98.3303,1362.59
99.7846,1312.24
101.239,1289.32
102.693,1277.2
104.147,1265.16
105.601,1212.07
107.056,1195.19
108.51,1181.57
109.964,1169.91
111.418,1182.74
112.873,1168.25
114.327,1155.28
115.781,1135.19
117.235,1100.12
118.689,1059.77
120.144,1067.18
121.598,1067.26
123.052,1042.42
124.506,1010.53
125.961,1009.42
127.415,991.79
128.869,965.135
130.323,947.279
131.777,932.602
133.232,946.425
134.686,909.404
136.14,872.967
137.594,864.925
139.048,864.177
140.503,845.605
141.957,843.906
143.411,839.645
144.865,827.448
146.32,827.034
147.774,802.173
149.228,784.488
150.682,772.837
152.136,762.816
153.591,732.806
155.045,739.348
156.499,740.291
157.953,731.948
159.408,729.816
160.862,736.333
162.316,734.426
163.77,740.455
165.224,739.865
166.679,714.468
168.133,696.45
169.587,713.242
171.041,715.723
172.496,698.458
173.95,686.361
175.404,685.151
176.858,689.629
178.312,691.065
179.767,692.819
181.221,692.636
182.675,702.152
184.129,705.166
185.583,701.665
187.038,691.635
188.492,678.922
189.946,685.62
191.4,697.166
192.855,699.766
194.309,716.585
195.763,725.056
197.217,698.038
198.671,688.703
200.126,691.897
201.58,684.582
203.034,666.056
204.488,651.077
205.943,669.566
207.397,675.544
208.851,669.826
210.305,661.119
211.759,662.214
213.214,658.766
214.668,664.218
216.122,659.938
217.576,648.037
219.031,657.589
220.485,658.226
221.939,664.325
223.393,662.355
224.847,650.809
226.302,673.831
227.756,656.912
229.21,670.736
230.664,675.955
232.118,662.581
233.573,646.266
235.027,661.027
236.481,661.573
237.935,655.765
239.39,659.545
240.844,658.593
242.298,665.89
243.752,661.702
245.206,660.456
246.661,655.778
248.115,661.346
249.569,631.779
251.023,628.342
252.478,631.091
253.932,634.362
255.386,628.646
256.84,637.805
258.294,641.043
259.749,627.18
261.203,631.281
262.657,654.913
264.111,622.104
265.566,633.228
267.02,625.212
268.474,619.03
269.928,632.938
271.382,626.049
272.837,615.545
274.291,615.034
275.745,618.893
277.199,618.9
278.654,612.511
280.108,597.846
281.562,593.434
283.016,599.486
284.47,598.112
285.925,583.135
287.379,597.44
288.833,582.589
290.287,577.936
291.741,580.818
293.196,575.235
294.65,565.078
296.104,557.964
297.558,559.768
299.013,553.553
300.467,548.371
301.921,556.949
303.375,545.65
304.829,550.242
306.284,556.563
307.738,558.837
309.192,546.437
310.646,552.068
312.101,551.593
313.555,549.561
315.009,550.587
316.463,542.033
317.917,544.937
319.372,533.864
320.826,524.72
322.28,522.512
323.734,525.068
325.189,526.556
326.643,520.024
328.097,515.184
329.551,513.453
331.005,517.209
332.46,536.845
333.914,541.442
335.368,520.508
336.822,517.311
338.276,525.995
339.731,517.117
341.185,524.252
342.639,526.397
344.093,526.993
345.548,522.027
347.002,513.774
348.456,534.451
349.91,513.507
351.364,497.409
352.819,501.617
354.273,515.431
355.727,516.974
357.181,498.824
358.636,502.251
360.09,509.816
361.544,514.194
362.998,517.079
364.452,514.478
365.907,515.921
367.361,512.17
368.815,498.059
370.269,484.279
371.724,505.313
373.178,505.789
374.632,509.277
376.086,506.365
377.54,505.661
378.995,515.639
380.449,523.023
381.903,495.209
383.357,496.12
384.811,498.797
386.266,497.927
387.72,515.939
389.174,507.786
390.628,508.182
392.083,507.999
393.537,502.568
394.991,492.202
396.445,506.103
397.899,509.194
399.354,513.599
400.808,513.012
402.262,503.889
403.716,485.471
405.171,515.77
406.625,503.617
408.079,504.167
409.533,505.41
410.987,495.761
412.442,521.364
413.896,518.139
415.35,489.936
416.804,492.531
418.259,514.433
419.713,500.29
421.167,500.648
422.621,507.301
424.075,513.193
425.53,514.469
426.984,513.926
428.438,516.655
429.892,515.984
431.346,529.337
432.801,528.431
434.255,519.42
435.709,519.176
437.163,496.349
438.618,505.347
440.072,512.422
441.526,523.374
442.98,528.806
444.434,524.406
445.889,513.117
447.343,504.894
448.797,510.766
450.251,524.847
451.706,535.541
453.16,519.656
454.614,514.018
456.068,513.783
457.522,511.939
458.977,520.492
460.431,535.759
461.885,527.691
463.339,538.702
464.794,524.922
466.248,509.029
467.702,512.524
469.156,530.406
470.61,517.593
472.065,522.137
473.519,528.762
474.973,522.257
476.427,512.785
477.882,539.721
479.336,533.145
480.79,527.157
482.244,514.646
483.698,508.971
485.153,513.432
486.607,516.322
488.061,518.404
489.515,511.863
490.969,501.52
492.424,501.916
493.878,519.354
495.332,516.25
496.786,500.936
498.241,513.318
499.695,517.585
501.149,512.229
502.603,506.78
504.057,491.911
505.512,493.735
506.966,493.826
508.42,491.94
509.874,495.332
511.329,488.648
512.783,496.676
514.237,477.124
515.691,482.459
517.145,493.102
518.6,494.396
520.054,494.273
521.508,496.412
522.962,484.001
524.417,485.187
525.871,491.898
527.325,490.717
528.779,478.786
530.233,490.323
531.688,488.185
533.142,492.677
534.596,491.767
536.05,486.698
537.505,500.426
538.959,486.122
540.413,483.317
541.867,482.238
543.321,481.907
544.776,491.194
546.23,503.774
547.684,489.514
549.138,504.815
550.592,506.016
552.047,494.908
553.501,487.166
554.955,490.84
556.409,490.226
557.864,490.355
559.318,486.985
560.772,479.758
562.226,489.207
563.68,499.804
565.135,497.199
566.589,490.302
568.043,486.138
569.497,495.57
570.952,488.194
572.406,477.695
573.86,482.986
575.314,500.333
576.768,505.297
578.223,502.127
579.677,491.475
581.131,494.469
582.585,485.888
584.039,487.82
585.494,492.791
586.948,488.34
588.402,491.31
589.856,504.214
591.311,483.601
592.765,491.772
594.219,472.628
595.673,471.185
597.127,491.673
598.582,497.193
600.036,474.953
601.49,490.973
602.944,492.033
604.399,495.568
605.853,499.326
607.307,490.605
608.761,474.351
610.215,498.632
611.67,518.437
613.124,515.118
614.578,504.01
616.032,498.603
617.487,478.779
618.941,500.422
620.395,503.525
621.849,501.008
623.303,496.626
624.758,505.24
626.212,507.615
627.666,493.239
629.12,500.906
630.575,501.997
632.029,507.13
633.483,511.499
634.937,503.488
636.391,505.136
637.846,486.007
639.3,493.765
640.754,497.042
642.208,506.555
643.662,504.317
645.117,481.667
646.571,499.486
648.025,503.028
649.479,499.895
650.934,501.074
652.388,503.883
653.842,502.62
655.296,525.594
656.75,519.253
658.205,502.074
659.659,499.906
661.113,512.335
662.567,505.94
664.022,501.951
665.476,512.52
666.93,513.871
668.384,508.015
669.838,497.911
671.293,505.204
672.747,510.58
674.201,525.599
675.655,509.199
677.109,515.76
678.564,525.829
680.018,521.047
681.472,529.306
682.926,524.962
684.381,521.173
685.835,516.101
687.289,513.92
688.743,517.12
690.198,512.712
691.652,517.392
693.106,523.226
694.56,514.452
696.014,521.207
697.469,524.237
698.923,524.075
700.377,519.224
701.831,531.551
703.285,523.272
704.74,509.099
706.194,518.489
707.648,524.562
709.102,524.602
710.557,527.361
712.011,529.994
713.465,529.349
714.919,527.653
716.373,524.128
717.828,527.149
719.282,542.334
720.736,539.398
722.19,528.591
723.645,525.584
725.099,526.619
726.553,531.217
728.007,534.981
729.461,522.686
730.916,514.77
732.37,526.909
733.824,533.7
735.278,533.074
736.732,530.716
738.187,523.068
739.641,521.017
741.095,526.979
742.549,534.949
744.004,541.756
745.458,536.274
746.912,536.812
748.366,526.664
749.82,523.336
751.275,522.3
752.729,528.689
754.183,533.809
755.637,527.97
757.092,532.165
758.546,523.901
760,533.891
761.454,542.461
762.908,550.301
764.363,551.028
765.817,542.642
767.271,539.184
768.725,542.556
770.18,544.502
771.634,542.292
773.088,536.743
774.542,541.025
775.996,529.425
777.451,521.679
778.905,549.213
780.359,531.93
781.813,533.371
783.268,543.402
784.722,546.145
786.176,541.388
787.63,546.256
789.084,551.65
790.539,542.552
791.993,527.598
793.447,536.456
794.901,541.267
796.355,552.638
797.81,558.377
799.264,553.828
800.718,545.81
802.172,543.183
803.627,545.483
805.081,552.745
806.535,554.052
807.989,559.204
809.443,549.555
810.898,561.688
812.352,560.421
813.806,567.336
815.26,564.735
816.715,553.099
818.169,547.608
819.623,557.801
821.077,558.932
822.531,570.27
823.986,567.819
825.44,567.602
826.894,564.752
828.348,569.46
829.802,562.682
831.257,586.199
832.711,567.825
834.165,578.253
835.619,579.033
837.074,568.85
838.528,563.668
839.982,559.372
841.436,563.218
842.891,577.778
844.345,577.581
845.799,577.929
847.253,581.73
848.707,584.794
850.162,578.734
851.616,594.578
853.07,604.622
854.524,591.612
855.978,582.078
857.433,599.753
858.887,606.649
860.341,606.142
861.795,602.637
863.25,593.616
864.704,584.425
866.158,585.26
867.612,599.569
869.066,602.825
870.521,578.239
871.975,570.296
873.429,572.125
874.883,571.463
876.338,573.146
877.792,583.392
879.246,589.661
880.7,579.694
882.154,584.771
883.609,579.376
885.063,589.663
886.517,596.023
887.971,585.131
889.425,580.046
890.88,582.255
892.334,581.836
893.788,593.909
895.242,592.357
896.697,587.478
898.151,585.271
899.605,585.598
901.059,591.843
902.513,587.731
903.968,585.836
905.422,597.132
906.876,580.451
908.33,599.74
909.785,610.734
911.239,603.312
912.693,592.69
914.147,602.944
915.601,595.541
917.056,616.641
918.51,610.776
919.964,602.968
921.418,606.147
922.873,612.916
924.327,617.292
925.781,601.824
927.235,604.812
928.689,617.465
930.144,609.524
931.598,605.276
933.052,617.485
934.506,631.245
935.961,621.233
937.415,611.974
938.869,615.23
940.323,620.43
941.777,607.668
943.232,602.351
944.686,608.359
946.14,607.945
947.594,608.581
949.048,601.621
950.503,627.749
951.957,624.67
953.411,601.246
954.865,590.627
956.32,604.936
957.774,620.927
959.228,619.652
960.682,621.392
962.136,602.878
963.591,626.66
965.045,611.763
966.499,607.185
967.953,616.384
969.408,620.229
970.862,629.268
972.316,641.185
973.77,637.666
975.224,620.351
976.679,614.353
978.133,629.938
979.587,629.247
981.041,632.397
982.495,638.444
983.95,622.416
985.404,638.779
986.858,640.41
988.312,638.146
989.767,655.623
991.221,644.55
992.675,632.381
994.129,636
995.583,638.341
997.038,658.069
998.492,655.876
999.946,637.149
1001.4,645.446
1002.85,649.944
1004.31,646.989
1005.76,656.191
1007.22,657.404
1008.67,688.404
1010.13,669.653
1011.58,682.053
1013.03,683.569
1014.49,674.868
1015.94,671.82
1017.4,670.189
1018.85,683.873
1020.31,677.738
1021.76,673.679
1023.21,699.513
1024.67,706.954
1026.12,707.22
1027.58,703.434
1029.03,695.451
1030.48,708.95
1031.94,730.031
1033.39,707.317
1034.85,707.948
1036.3,729.891
1037.76,729.217
1039.21,731.15
1040.66,740.836
1042.12,746.301
1043.57,748.184
1045.03,742.694
1046.48,735.419
1047.94,754.559
1049.39,755.59
1050.84,758.844
1052.3,768.87
1053.75,770.64
1055.21,783.634
1056.66,770.717
1058.11,787.343
1059.57,787.459
1061.02,791.614
1062.48,788.25
1063.93,811.953
1065.39,824.009
1066.84,824.497
1068.29,842.369
1069.75,840.231
1071.2,828.831
1072.66,842.54
1074.11,849.988
1075.57,866.625
1077.02,867.56
1078.47,869.747
1079.93,886.075
1081.38,885.595
1082.84,874.886
1084.29,892.084
1085.75,882.92
1087.2,887.213
1088.65,883.847
1090.11,866.974
1091.56,873.821
1093.02,912.843
1094.47,886.815
1095.92,878.765
1097.38,878.366
1098.83,877.561
1100.29,878.204
1101.74,875.618
1103.2,875.301
1104.65,862.21
1106.1,855.225
1107.56,868.959
1109.01,877.513
1110.47,856.249
1111.92,873.87
1113.38,865.836
1114.83,859.933
1116.28,859.917
1117.74,843.272
1119.19,860.478
1120.65,867.105
1122.1,829.993
1123.55,830.473
1125.01,849.874
1126.46,846.305
1127.92,844.711
1129.37,838.434
1130.83,818.699
1132.28,831.229
1133.73,835.466
1135.19,858.437
1136.64,845.963
1138.1,834.417
1139.55,854.818
1141.01,856.379
1142.46,846.044
1143.91,856.005
1145.37,853.712
1146.82,843.012
1148.28,839.092
1149.73,848.606
1151.18,818.845
1152.64,833.352
1154.09,842.825
1155.55,841.995
1157,849.468
1158.46,859.079
1159.91,837.881
1161.36,850.346
1162.82,867.438
1164.27,864.21
1165.73,860.347
1167.18,854.42
1168.64,856.469
1170.09,848.59
1171.54,842.361
1173,863.982
1174.45,849.11
1175.91,844.76
1177.36,871.325
1178.82,852.956
1180.27,868.837
1181.72,878.74
1183.18,872.569
1184.63,869.82
1186.09,873.016
1187.54,863.592
1188.99,881.131
1190.45,877.805
1191.9,860.827
1193.36,881.936
1194.81,896.971
1196.27,893.922
1197.72,885.042
1199.17,893.344
1200.63,899.614
1202.08,884.018
1203.54,917.226
1204.99,893.491
1206.45,910.892
1207.9,922.202
1209.35,914.209
1210.81,919.454
1212.26,924.016
1213.72,900.378
1215.17,893.328
1216.62,922.877
1218.08,915.063
1219.53,918.015
1220.99,913.86
1222.44,924.495
1223.9,930.61
1225.35,929.577
1226.8,936.895
1228.26,957.549
1229.71,971.974
1231.17,971.364
1232.62,937.408
1234.08,948.491
1235.53,954.207
1236.98,967.339
1238.44,952.784
1239.89,957.768
1241.35,975.413
1242.8,962.623
1244.25,974.112
1245.71,996.482
1247.16,1003.03
1248.62,1008.71
1250.07,1036.65
1251.53,1024.05
1252.98,1025.13
1254.43,1038.77
1255.89,1047.46
1257.34,1051.63
1258.8,1052.22
1260.25,1066.48
1261.71,1091.15
1263.16,1063.8
1264.61,1102.69
1266.07,1114.68
1267.52,1115.64
1268.98,1124.31
1270.43,1141.89
1271.89,1158.36
1273.34,1188.5
1274.79,1190.86
1276.25,1176.02
1277.7,1217.82
1279.16,1235.61
1280.61,1258.72
1282.06,1274.22
1283.52,1308.33
1284.97,1326.6
1286.43,1344.07
1287.88,1394.57
1289.34,1442.65
1290.79,1457.09
1292.24,1466.34
1293.7,1516.62
1295.15,1543.28
1296.61,1608.69
1298.06,1630.5
1299.52,1677.75
1300.97,1768.47
1302.42,1827.96
1303.88,1866.38
1305.33,1958.11
1306.79,2025.94
1308.24,2083.47
1309.69,2170.53
1311.15,2283.67
1312.6,2375.29
1314.06,2479.53
1315.51,2571.05
1316.97,2699.43
1318.42,2815.89
1319.87,2880.79
1321.33,3038.54
1322.78,3171.18
1324.24,3313.01
1325.69,3381.13
1327.15,3473.98
1328.6,3571
1330.05,3621.42
1331.51,3642.83
1332.96,3686.04
1334.42,3691.92
1335.87,3653.71
1337.32,3637.09
1338.78,3561.41
1340.23,3509.94
1341.69,3418.87
1343.14,3305.83
1344.6,3194.26
1346.05,3097.92
1347.5,2985.52
1348.96,2872.14
1350.41,2756.71
1351.87,2630.31
1353.32,2503.53
1354.78,2413.66
1356.23,2313.88
1357.68,2210.63
1359.14,2143.04
1360.59,2033.69
1362.05,1954.06
1363.5,1892.36
1364.96,1836.89
1366.41,1768.11
1367.86,1715.92
1369.32,1687.28
1370.77,1640.75
1372.23,1595.04
1373.68,1581.58
1375.13,1512.53
1376.59,1510.18
1378.04,1445.38
1379.5,1420.78
1380.95,1391.09
1382.41,1381.11
1383.86,1376.82
1385.31,1350.48
1386.77,1328.41
1388.22,1312.43
1389.68,1297.89
1391.13,1293.8
1392.59,1311.55
1394.04,1258.98
1395.49,1278.17
1396.95,1272.49
1398.4,1259.33
1399.86,1261.63
1401.31,1234.27
1402.76,1215.64
1404.22,1228.07
1405.67,1225.89
1407.13,1213.99
1408.58,1208.1
1410.04,1205.34
1411.49,1202.07
1412.94,1192.31
1414.4,1215.73
1415.85,1210.59
1417.31,1195.12
1418.76,1210.75
1420.22,1223.23
1421.67,1202.36
1423.12,1181.27
1424.58,1193.33
1426.03,1204.63
1427.49,1214.16
1428.94,1226.35
1430.4,1209.11
1431.85,1188.85
1433.3,1207.25
1434.76,1218.41
1436.21,1204.22
1437.67,1227.87
1439.12,1237.7
1440.57,1222.44
1442.03,1223.63
1443.48,1244.56
1444.94,1236.9
1446.39,1253.24
1447.85,1244.88
1449.3,1230.87
1450.75,1274.14
1452.21,1296.34
1453.66,1286.48
1455.12,1271.69
1456.57,1276.43
1458.03,1295.49
1459.48,1302.53
1460.93,1305.46
1462.39,1324.31
1463.84,1319.67
1465.3,1322.24
1466.75,1313.09
1468.2,1364.46
1469.66,1348.68
1471.11,1366.06
1472.57,1384.69
1474.02,1405.86
1475.48,1404.97
1476.93,1427.43
1478.38,1455.27
1479.84,1457.38
1481.29,1463.84
1482.75,1501.6
1484.2,1520.96
1485.66,1504.67
1487.11,1567.38
1488.56,1586.47
1490.02,1609.5
1491.47,1613.91
1492.93,1612.26
1494.38,1604.04
1495.83,1672.5
1497.29,1716.61
1498.74,1760.85
1500.2,1813.42
1501.65,1843.41
1503.11,1874.33
1504.56,1882.05
1506.01,1897.01
1507.47,1990.36
1508.92,2044.75
1510.38,2096.02
1511.83,2160.77
1513.29,2227.68
1514.74,2288.1
1516.19,2367.77
1517.65,2464.5
1519.1,2585.47
1520.56,2717.1
1522.01,2825.23
1523.46,2976.7
1524.92,3146.17
1526.37,3308.44
1527.83,3524.49
1529.28,3773.73
1530.74,3898.22
1532.19,4205.41
1533.64,4542.75
1535.1,4880.96
1536.55,5262.94
1538.01,5745.84
1539.46,6244.03
1540.92,6770.84
1542.37,7329.55
1543.82,7943.52
1545.28,8629.82
1546.73,9311.47
1548.19,10093.9
1549.64,10780.5
1551.1,11599.8
1552.55,12378.4
1554,13216
1555.46,13995.3
1556.91,14767.7
1558.37,15556.7
1559.82,16289.3
1561.27,16944.1
1562.73,17472.7
1564.18,17882.3
1565.64,18041.5
1567.09,18064.8
1568.55,18108.4
1570,17822.7
1571.45,17369.3
1572.91,16842.2
1574.36,16092.6
1575.82,15128.3
1577.27,14246.9
1578.73,13386.5
1580.18,12350.1
1581.63,11381.8
1583.09,10438.1
1584.54,9619.4
1586,8885.71
1587.45,8129.65
1588.9,7485.83
1590.36,6941.1
1591.81,6465.17
1593.27,5971.1
1594.72,5648.1
1596.18,5256.62
1597.63,5016.93
1599.08,4775.7
1600.54,4490.67
1601.99,4264.37
1603.45,4102.69
1604.9,3873.46
1606.36,3725.14
1607.81,3587.23
1609.26,3437.15
1610.72,3271.77
1612.17,3082.17
1613.63,2937.26
1615.08,2784.63
1616.54,2655.73
1617.99,2536.26
1619.44,2408.98
1620.9,2329.48
1622.35,2208.5
1623.81,2123.14
1625.26,2034.95
1626.71,1982.34
1628.17,1917.57
1629.62,1843.71
1631.08,1805.63
1632.53,1771.5
1633.99,1720.14
1635.44,1675.27
1636.89,1632.49
1638.35,1588.15
1639.8,1550.93
1641.26,1519.7
1642.71,1500.35
1644.17,1469.62
1645.62,1471.89
1647.07,1383.74
1648.53,1406.45
1649.98,1381.29
1651.44,1331.91
1652.89,1353.78
1654.34,1317.16
1655.8,1317.95
1657.25,1285.94
1658.71,1247.08
1660.16,1236.05
1661.62,1239.2
1663.07,1214.69
1664.52,1204.6
1665.98,1205.85
1667.43,1201.52
1668.89,1176.17
1670.34,1171.87
1671.8,1172.52
1673.25,1158.05
1674.7,1159.84
1676.16,1119.65
1677.61,1162.34
1679.07,1180.62
1680.52,1115.86
1681.97,1114.08
1683.43,1093.37
1684.88,1090.82
1686.34,1108.06
1687.79,1103.03
1689.25,1077.05
1690.7,1062.5
1692.15,1063.92
1693.61,1068.85
1695.06,1065.04
1696.52,1053.92
1697.97,1045.85
1699.43,1054.13
1700.88,1030.4
1702.33,1031.62
1703.79,1023.79
1705.24,1014.21
1706.7,1045.21
1708.15,1003.58
1709.6,982.39
1711.06,1002.2
1712.51,986.846
1713.97,1007.52
1715.42,1012.51
1716.88,987.309
1718.33,1003.83
1719.78,993.522
1721.24,991.001
1722.69,999.97
1724.15,987.716
1725.6,977.145
1727.06,971.437
1728.51,979.975
1729.96,983.911
1731.42,973.958
1732.87,988.611
1734.33,977.357
1735.78,980.26
1737.24,968.949
1738.69,975.877
1740.14,973.706
1741.6,971.657
1743.05,979.178
1744.51,980.284
1745.96,975.828
1747.41,965.371
1748.87,967.217
1750.32,949.775
1751.78,939.912
1753.23,944.222
1754.69,955.858
1756.14,958.777
1757.59,932.358
1759.05,935.017
1760.5,933.098
1761.96,934.302
1763.41,937.652
1764.87,907.696
1766.32,915.697
1767.77,938.701
1769.23,929.691
1770.68,927.748
1772.14,934.115
1773.59,909.826
1775.04,910.753
1776.5,927.821
1777.95,915.055
1779.41,890.149
1780.86,918.12
1782.32,916.575
1783.77,913.331
1785.22,896.093
1786.68,879.659
1788.13,894.832
1789.59,885.376
1791.04,897.353
1792.5,901.297
1793.95,897.353
1795.4,905.127
1796.86,895.995
1798.31,902.899
1799.77,895.548
1801.22,894.849
1802.68,879.554
1804.13,874
1805.58,884.384
1807.04,893.71
1808.49,882.896
1809.95,879.651
1811.4,877.57
1812.85,873.561
1814.31,865.348
1815.76,874.163
1817.22,871.414
1818.67,878.082
1820.13,861.819
1821.58,878.822
1823.03,873.04
1824.49,865.332
1825.94,871.829
1827.4,878.432
1828.85,852.314
1830.31,852.045
1831.76,869.162
1833.21,891.368
1834.67,877.041
1836.12,865.43
1837.58,885.083
1839.03,880.058
1840.48,877.545
1841.94,890.815
1843.39,886.571
1844.85,899.849
1846.3,898.402
1847.76,903.736
1849.21,908.867
1850.66,889.799
1852.12,882.18
1853.57,890.905
1855.03,899.329
1856.48,934.822
1857.94,917.901
1859.39,923.471
1860.84,918.023
1862.3,922.877
1863.75,898.296
1865.21,929.13
1866.66,919.698
1868.11,927.585
1869.57,906.249
1871.02,902.102
1872.48,892.913
1873.93,901.337
1875.39,912.258
1876.84,897.353
1878.29,917.998
1879.75,903.338
1881.2,905.85
1882.66,921.706
1884.11,901.541
1885.57,893.263
1887.02,896.605
1888.47,881.578
1889.93,878.432
1891.38,870.853
1892.84,875.87
1894.29,884.302
1895.75,874.829
1897.2,861.388
1898.65,869.178
1900.11,855.851
1901.56,870.755
1903.02,843.93
1904.47,852.802
1905.92,844.044
1907.38,867.836
1908.83,840.556
1910.29,858.607
1911.74,840.922
1913.2,831.563
1914.65,866.885
1916.1,845.776
1917.56,844.158
1919.01,819.781
1920.47,858.697
1921.92,827.18
1923.38,820.504
1924.83,860.079
1926.28,824.789
1927.74,825.537
1929.19,829.652
1930.65,846.435
1932.1,838.645
1933.55,838.369
1935.01,843.003
1936.46,824.367
1937.92,848.256
1939.37,871.569
1940.83,843.589
1942.28,848.216
1943.73,850.102
1945.19,833.449
1946.64,830.132
1948.1,852.94
1949.55,846.02
1951.01,838.263
1952.46,832.555
1953.91,829.57
1955.37,839.613
1956.82,856.615
1958.28,869.276
1959.73,862.445
1961.18,847.134
1962.64,858.201
1964.09,870.138
1965.55,866.267
1967,859.827
1968.46,865.991
1969.91,868.715
1971.36,881.627
1972.82,877.96
1974.27,867.958
1975.73,847.435
1977.18,876.399
1978.64,877.879
1980.09,886.229
1981.54,871.414
1983,864.242
1984.45,868.902
1985.91,888.409
1987.36,863.974
1988.82,863.478
1990.27,882.627
1991.72,885.742
1993.18,882.123
1994.63,896.654
1996.09,891.417
1997.54,901.183
1998.99,858.518
2000.45,880.765
2001.9,884.416
2003.36,866.544
2004.81,865.186
2006.27,880.594
2007.72,890.482
2009.17,906.371
2010.63,873.634
2012.08,874.764
2013.54,893.718
2014.99,877.513
2016.45,835.409
2017.9,859.762
2019.35,872.073
2020.81,870.829
2022.26,858.071
2023.72,857.046
2025.17,847.842
2026.62,845.955
2028.08,881.261
2029.53,874.26
2030.99,857.388
2032.44,844.061
2033.9,851.899
2035.35,858.51
2036.8,840.353
2038.26,834.384
2039.71,835.775
2041.17,838.653
2042.62,845.573
2044.08,826.741
2045.53,831.587
2046.98,828.928
2048.44,844.02
2049.89,841.979
2051.35,819.065
2052.8,825.627
2054.25,828.725
2055.71,846.72
2057.16,831.693
2058.62,805.991
2060.07,798.566
2061.53,814.105
2062.98,824.895
2064.43,829.18
2065.89,817.593
2067.34,799.928
2068.8,784.878
2070.25,796.667
2071.71,806.311
2073.16,808.333
2074.61,800.979
2076.07,789.179
2077.52,798.033
2078.98,813
2080.43,797.817
2081.89,797.919
2083.34,793.592
2084.79,779.824
2086.25,780.519
2087.7,789.748
2089.16,794.717
2090.61,796.264
2092.06,799.838
2093.52,810.154
2094.97,801.635
2096.43,792.067
2097.88,807.69
2099.34,813.341
2100.79,803.829
2102.24,784.402
2103.7,800.428
2105.15,860.193
2106.61,879.009
2108.06,816.43
2109.52,808.503
2110.97,805.45
2112.42,805.306
2113.88,805.838
2115.33,801.888
2116.79,797.084
2118.24,796.17
2119.69,805.059
2121.15,809.468
2122.6,799.86
2124.06,809.158
2125.51,813.528
2126.97,812.616
2128.42,808.125
2129.87,811.923
2131.33,817.829
2132.78,816.983
2134.24,813.129
2135.69,813.406
2137.15,809.89
2138.6,806.864
2140.05,810.144
2141.51,810.035
2142.96,822.854
2144.42,817.52
2145.87,814.414
2147.32,823.838
2148.78,829.522
2150.23,818.016
2151.69,818.512
2153.14,818.081
2154.6,821.683
2156.05,823.171
2157.5,812.674
2158.96,814.788
2160.41,823.659
2161.87,840.621
2163.32,836.645
2164.78,831.116
2166.23,829.351
2167.68,840.385
2169.14,830.717
2170.59,847.045
2172.05,841.336
2173.5,845.069
2174.96,836.612
2176.41,843.516
2177.86,859.86
2179.32,857.184
2180.77,862.462
2182.23,843.353
2183.68,844.939
2185.13,839.409
2186.59,851.151
2188.04,855.143
2189.5,848.338
2190.95,857.209
2192.41,867.04
2193.86,849.606
2195.31,858.388
2196.77,860.136
2198.22,840.678
2199.68,849.801
2201.13,860.136
2202.59,850.175
2204.04,869.577
2205.49,841.377
2206.95,855.957
2208.4,862.681
2209.86,851.566
2211.31,863.6
2212.76,865.909
2214.22,849.972
2215.67,854.582
2217.13,848.703
2218.58,853.452
2220.04,846.63
2221.49,895.296
2222.94,848.671
2224.4,834.547
2225.85,868.65
2227.31,866.479
2228.76,863.925
2230.22,854.387
2231.67,853.737
2233.12,876.122
2234.58,850.509
2236.03,852.72
2237.49,870.089
2238.94,863.909
2240.4,855.989
2241.85,871.065
2243.3,887.839
2244.76,878.432
2246.21,870.707
2247.67,864.421
2249.12,868.097
2250.57,856.501
2252.03,864.771
2253.48,882.798
2254.94,878.423
2256.39,851.647
2257.85,859.689
2259.3,876.163
2260.75,869.113
2262.21,870.951
2263.66,877.48
2265.12,891.864
2266.57,877.96
2268.03,877.724
2269.48,878.871
2270.93,883.026
2272.39,896.662
2273.84,860.266
2275.3,874.87
2276.75,887.831
2278.2,897.28
2279.66,901.126
2281.11,879.521
2282.57,889.563
2284.02,904.736
2285.48,904.793
2286.93,901.939
2288.38,867.17
2289.84,924.121
2291.29,902.321
2292.75,911.518
2294.2,906.07
2295.66,919.576
2297.11,931.204
2298.56,931.74
2300.02,923.666
2301.47,913.111
2302.93,908.574
2304.38,920.779
2305.83,926.674
2307.29,916.73
2308.74,932.293
2310.2,921.007
2311.65,927.634
2313.11,941.473
2314.56,929.309
2316.01,936.229
2317.47,927.463
2318.92,938.603
2320.38,961.647
2321.83,967.136
2323.29,958.354
2324.74,958.175
2326.19,962.273
2327.65,952.142
2329.1,938.79
2330.56,961.265
2332.01,984.927
2333.47,952.906
2334.92,982.553
2336.37,973.429
2337.83,987.732
2339.28,996.612
2340.74,977.089
2342.19,981.422
2343.64,1013.06
2345.1,996.961
2346.55,1001.69
2348.01,1014.68
2349.46,992.017
2350.92,1016.68
2352.37,1007.13
2353.82,1020.54
2355.28,1025.33
2356.73,1008.84
2358.19,1024.21
2359.64,1036.35
2361.1,1046.09
2362.55,1051.14
2364,1071.73
2365.46,1064.31
2366.91,1046.36
2368.37,1058.46
2369.82,1072.03
2371.27,1079.38
2372.73,1092.45
2374.18,1085.46
2375.64,1101.09
2377.09,1123.74
2378.55,1122.03
2380,1124.67
2381.45,1124.41
2382.91,1134.1
2384.36,1151
2385.82,1187.75
2387.27,1209.59
2388.73,1167.44
2390.18,1217.17
2391.63,1237.18
2393.09,1251.9
2394.54,1235.9
2396,1234.07
2397.45,1269.04
2398.9,1307.93
2400.36,1322.94
2401.81,1346.96
2403.27,1373.01
2404.72,1384.07
2406.18,1400.14
2407.63,1421.67
2409.08,1452.57
2410.54,1464.08
2411.99,1462.66
2413.45,1511.71
2414.9,1516.79
2416.36,1507.81
2417.81,1529.67
2419.26,1542.69
2420.72,1534.24
2422.17,1596.1
2423.63,1600.26
2425.08,1626.71
2426.53,1631.32
2427.99,1607.92
2429.44,1623.92
2430.9,1603.65
2432.35,1611.61
2433.81,1625.92
2435.26,1601.99
2436.71,1618.15
2438.17,1603.11
2439.62,1615.55
2441.08,1630.95
2442.53,1626.95
2443.99,1633.32
2445.44,1615.74
2446.89,1558.17
2448.35,1574.84
2449.8,1561.74
2451.26,1572.05
2452.71,1544.47
2454.17,1529.93
2455.62,1549.6
2457.07,1547.64
2458.53,1526.82
2459.98,1528.47
2461.44,1483.68
2462.89,1516.81
2464.34,1491.54
2465.8,1495.59
2467.25,1475.71
2468.71,1469.67
2470.16,1455.55
2471.62,1445.42
2473.07,1438.66
2474.52,1447.5
2475.98,1447.39
2477.43,1454.53
2478.89,1430.4
2480.34,1433.44
2481.8,1394.79
2483.25,1398.49
2484.7,1443.26
2486.16,1400.82
2487.61,1396.95
2489.07,1360.84
2490.52,1396.51
2491.97,1409.64
2493.43,1406.1
2494.88,1407.56
2496.34,1418.5
2497.79,1438.46
2499.25,1413.83
2500.7,1403.91
2502.15,1427.24
2503.61,1415.02
2505.06,1399.65
2506.52,1404.32
2507.97,1419.78
2509.43,1420.8
2510.88,1414.97
2512.33,1437.94
2513.79,1430.31
2515.24,1445.91
2516.7,1428.92
2518.15,1432.5
2519.6,1458.05
2521.06,1443.52
2522.51,1447.07
2523.97,1446.92
2525.42,1453.68
2526.88,1459.75
2528.33,1488.42
2529.78,1499.17
2531.24,1516.05
2532.69,1519.83
2534.15,1532.37
2535.6,1542.95
2537.06,1564.75
2538.51,1583.59
2539.96,1560.51
2541.42,1590.19
2542.87,1568.27
2544.33,1615.74
2545.78,1632.31
2547.24,1651.16
2548.69,1672
2550.14,1658.2
2551.6,1693.85
2553.05,1717.9
2554.51,1736.18
2555.96,1767.88
2557.41,1773.68
2558.87,1787.09
2560.32,1816.81
2561.78,1835.18
2563.23,1846.41
2564.69,1894.88
2566.14,1904.96
2567.59,1928.16
2569.05,2006.8
2570.5,1981.72
2571.96,2005.01
2573.41,2065.82
2574.87,2103.72
2576.32,2153.91
2577.77,2190.72
2579.23,2262.77
2580.68,2292.04
2582.14,2335.85
2583.59,2380.67
2585.04,2412.93
2586.5,2486.3
2587.95,2576.11
2589.41,2598.55
2590.86,2645.41
2592.32,2699.32
2593.77,2786.88
2595.22,2881.55
2596.68,3008.58
2598.13,3042.97
2599.59,3126.85
2601.04,3231.31
2602.5,3337.31
2603.95,3456.94
2605.4,3528.71
2606.86,3657.61
2608.31,3790.79
2609.77,3937.86
2611.22,4072.39
2612.68,4250.57
2614.13,4308.51
2615.58,4590.47
2617.04,4683.79
2618.49,4860.97
2619.95,5078.98
2621.4,5265.2
2622.85,5467.32
2624.31,5646.97
2625.76,5902.51
2627.22,6128.74
2628.67,6329.15
2630.13,6612.38
2631.58,6860.21
2633.03,7200.48
2634.49,7479.19
2635.94,7705.71
2637.4,7959.48
2638.85,8262.94
2640.31,8526.47
2641.76,8795.05
2643.21,9057.45
2644.67,9314.96
2646.12,9595.9
2647.58,9841.22
2649.03,10091
2650.48,10264.8
2651.94,10480.4
2653.39,10677.3
2654.85,10780.3
2656.3,10968
2657.76,11032.9
2659.21,11244.9
2660.66,11289.2
2662.12,11292.5
2663.57,11337.1
2665.03,11327.7
2666.48,11315.3
2667.94,11256.1
2669.39,11238.6
2670.84,11119.1
2672.3,10991.6
2673.75,10786.1
2675.21,10606.3
2676.66,10391.9
2678.11,10154.9
2679.57,9977.74
2681.02,9719.25
2682.48,9505.8
2683.93,9184.78
2685.39,8827.9
2686.84,8615.18
2688.29,8375.23
2689.75,8115.65
2691.2,7789.24
2692.66,7455.32
2694.11,7231.41
2695.57,6964.08
2697.02,6662.71
2698.47,6467.73
2699.93,6085.94
2701.38,5788.73
2702.84,5592.35
2704.29,5385.89
2705.75,5165.74
2707.2,4958.27
2708.65,4744.09
2710.11,4587.73
2711.56,4391.65
2713.02,4165.6
2714.47,4110.33
2715.92,3915.91
2717.38,3758.66
2718.83,3615.09
2720.29,3475.75
2721.74,3353.04
2723.2,3218.45
2724.65,3147.59
2726.1,3044.64
2727.56,2964.77
2729.01,2838.06
2730.47,2745.35
2731.92,2672.57
2733.38,2620.6
2734.83,2456.4
2736.28,2406.38
2737.74,2376.96
2739.19,2331.13
2740.65,2209.35
2742.1,2185.98
2743.55,2163.37
2745.01,2116.22
2746.46,2033.96
2747.92,2035.86
2749.37,1933.95
2750.83,1965.8
2752.28,1919.61
2753.73,1840.32
2755.19,1812.59
2756.64,1758.38
2758.1,1757.2
2759.55,1764.99
2761.01,1723.72
2762.46,1675.99
2763.91,1689.92
2765.37,1652.72
2766.82,1640.47
2768.28,1615.31
2769.73,1598.45
2771.18,1572.78
2772.64,1547.68
2774.09,1545.36
2775.55,1516.49
2777,1480.57
2778.46,1473.8
2779.91,1472.63
2781.36,1451.55
2782.82,1426.74
2784.27,1415.74
2785.73,1398.74
2787.18,1400.22
2788.64,1406.02
2790.09,1396.43
2791.54,1378.55
2793,1361.92
2794.45,1335.26
2795.91,1314.73
2797.36,1320.79
2798.82,1308.89
2800.27,1329.31
2801.72,1291.83
2803.18,1272.76
2804.63,1284.41
2806.09,1285.7
2807.54,1272.98
2808.99,1269.77
2810.45,1279.18
2811.9,1243.93
2813.36,1244.68
2814.81,1238.52
2816.27,1217.5
2817.72,1255
2819.17,1213.94
2820.63,1231.72
2822.08,1216.22
2823.54,1210.49
2824.99,1213.37
2826.45,1196.62
2827.9,1190.15
2829.35,1217.78
2830.81,1196.99
2832.26,1153.4
2833.72,1186.17
2835.17,1198.72
2836.62,1179.56
2838.08,1163.37
2839.53,1158.08
2840.99,1174.17
2842.44,1161.64
2843.9,1144.97
2845.35,1126.72
2846.8,1165.16
2848.26,1161.78
2849.71,1153.29
2851.17,1162.49
2852.62,1149.97
2854.08,1153.18
2855.53,1152.17
2856.98,1156.85
2858.44,1159.61
2859.89,1146.12
2861.35,1124.33
2862.8,1138.65
2864.25,1140.79
2865.71,1141.76
2867.16,1137.18
2868.62,1128.2
2870.07,1150.24
2871.53,1183.18
2872.98,1172.78
2874.43,1169
2875.89,1154.23
2877.34,1175.7
2878.8,1174.04
2880.25,1166.16
2881.71,1154.5
2883.16,1165.92
2884.61,1168.42
2886.07,1156.05
2887.52,1161.14
2888.98,1169.61
2890.43,1206.24
2891.89,1196.01
2893.34,1210.77
2894.79,1209.18
2896.25,1182.46
2897.7,1187.89
2899.16,1191.38
2900.61,1196.49
2902.06,1212.8
2903.52,1166.57
2904.97,1188.74
2906.43,1208.72
2907.88,1198.74
2909.34,1214.46
2910.79,1221.57
2912.24,1204.77
2913.7,1202.72
2915.15,1175.83
2916.61,1197.91
2918.06,1171.69
2919.52,1162.57
2920.97,1145.53
2922.42,1161.88
2923.88,1155.37
2925.33,1157.4
2926.79,1133.01
2928.24,1125.41
2929.69,1117.57
2931.15,1108.95
2932.6,1087.21
2934.06,1135.2
2935.51,1099.06
2936.97,1092.62
2938.42,1089.73
2939.87,1107.2
2941.33,1070.29
2942.78,1058.39
2944.24,1068.24
2945.69,1048.19
2947.15,1017.57
2948.6,1014.58
2950.05,993.416
2951.51,1009.3
2952.96,985.992
2954.42,971.462
2955.87,971.486
2957.32,974.706
2958.78,985.927
2960.23,980.634
2961.69,969.697
2963.14,936.57
2964.6,915.469
2966.05,914.925
2967.5,922.275
2968.96,920.405
2970.41,909.656
2971.87,918.673
2973.32,899.971
2974.78,908.346
2976.23,918.616
2977.68,890.1
2979.14,868.593
2980.59,856.176
2982.05,857.737
2983.5,843.239
2984.96,838.604
2986.41,852.541
2987.86,857.274
2989.32,851.24
2990.77,826.489
2992.23,829.286
2993.68,849.216
2995.13,840.027
2996.59,838.011
2998.04,835.645
2999.5,841.589
3000.95,830.937
3002.41,831.823
3003.86,819.61
3005.31,818.341
3006.77,815.585
3008.22,809.025
3009.68,818.154
3011.13,797.713
3012.59,791.152
3014.04,797.037
3015.49,811.764
3016.95,790.797
3018.4,788.183
3019.86,804.71
3021.31,792.119
3022.76,788.72
3024.22,798.622
3025.67,783.244
3027.13,809.062
3028.58,820.797
3030.04,798.395
3031.49,790.871
3032.94,790.861
3034.4,783.958
3035.85,780.068
3037.31,784.739
3038.76,797.093
3040.22,788.412
3041.67,799.718
3043.12,798.317
3044.58,778.121
3046.03,773.524
3047.49,767.587
3048.94,784.387
3050.4,786.86
3051.85,761.208
3053.3,766.285
3054.76,790.601
3056.21,779.368
3057.67,789.609
3059.12,792.266
3060.57,806.039
3062.03,777.877
3063.48,793.126
3064.94,779.852
3066.39,784.761
3067.85,783.951
3069.3,797.571
3070.75,798.598
3072.21,789.217
3073.66,768.961
3075.12,755.808
3076.57,773.837
3078.03,800.936
3079.48,795.539
3080.93,801.063
3082.39,789.854
3083.84,804.3
3085.3,814.959
3086.75,817.268
3088.2,824.521
3089.66,822.195
3091.11,823.114
3092.57,804.34
3094.02,794.782
3095.48,840.637
3096.93,829.408
3098.38,839.873
3099.84,833.384
3101.29,860.282
3102.75,870.52
3104.2,863.885
3105.66,864.535
3107.11,910.322
3108.56,882.343
3110.02,912.355
3111.47,896.825
3112.93,882.782
3114.38,888.815
3115.83,953.134
3117.29,944.458
3118.74,942.124
3120.2,942.604
3121.65,974.885
3123.11,1005.75
3124.56,1005.62
3126.01,1022.27
3127.47,1022.61
3128.92,1007.97
3130.38,1040.88
3131.83,1043.77
3133.29,1036.06
3134.74,1048.32
3136.19,1072.14
3137.65,1058.65
3139.1,1067.07
3140.56,1082.92
3142.01,1068.79
3143.47,1092.45
3144.92,1097.41
3146.37,1105.2
3147.83,1081.87
3149.28,1107.16
3150.74,1101.29
3152.19,1099.7
3153.64,1104.25
3155.1,1134
3156.55,1123.48
3158.01,1078.5
3159.46,1086.53
3160.92,1118.13
3162.37,1127.12
3163.82,1118.72
3165.28,1140.92
3166.73,1125.87
3168.19,1115.29
3169.64,1105.22
3171.1,1141.51
3172.55,1138.79
3174,1137.93
3175.46,1123.77
3176.91,1124.34
3178.37,1146.07
3179.82,1160.52
3181.27,1178.88
3182.73,1187.79
3184.18,1208.59
3185.64,1175.32
3187.09,1197.61
3188.55,1225.76
3190,1193.94
3191.45,1247.54
3192.91,1244.99
3194.36,1244.47
3195.82,1266.23
3197.27,1255.05
3198.73,1255.57
3200.18,1266.98
3201.63,1319.38
3203.09,1311.06
3204.54,1285.23
3206,1301.88
3207.45,1291.83
3208.9,1314.21
3210.36,1292.15
3211.81,1285.94
3213.27,1296.3
3214.72,1278.23
3216.18,1271.89
3217.63,1266.56
3219.08,1233.2
3220.54,1207.35
3221.99,1194.23
3223.45,1178.22
3224.9,1158.07
3226.36,1126.55
3227.81,1122.91
3229.26,1097.54
3230.72,1056.08
3232.17,1045.83
3233.63,994.018
3235.08,983.911
3236.53,964.786
3237.99,944.978
3239.44,949.019
3240.9,912.054
3242.35,875.195
3243.81,888.514
3245.26,850.696
3246.71,854.9
3248.17,798.256
3249.62,796.383
3251.08,789.704
3252.53,786.645
3253.99,777.775
3255.44,767.856
3256.89,746.029
3258.35,739.566
3259.8,726.315
3261.26,714.784
3262.71,699.495
3264.17,713.218
3265.62,705.468
3267.07,699.481
3268.53,697.6
3269.98,685.235
3271.44,673.672
3272.89,678.06
3274.34,681.05
3275.8,692.031
3277.25,678.489
3278.71,674.208
3280.16,653.457
3281.62,644.458
3283.07,653.994
3284.52,651.782
3285.98,673.437
3287.43,671.63
3288.89,637.722
3290.34,625.597
3291.8,636.062
3293.25,630.075
3294.7,639.208
3296.16,641.268
3297.61,649.969
3299.07,645.185
3300.52,617.172
3301.97,632.077
3303.43,628.307
3304.88,627.711
3306.34,634.607
3307.79,640.193
3309.25,650.732
3310.7,648.893
3312.15,636.905
3313.61,643.71
3315.06,632.026
3316.52,637.78
3317.97,635.249
3319.43,624.818
3320.88,625.896
3322.33,618.449
3323.79,639.649
3325.24,633.624
3326.7,633.798
3328.15,623.23
3329.6,621.652
3331.06,623.707
3332.51,620.669
3333.97,621.131
3335.42,597.667
3336.88,618.52
3338.33,623.497
3339.78,618.748
3341.24,613.76
3342.69,620.253
3344.15,626.176
3345.6,621.853
3347.06,621.557
3348.51,619.299
3349.96,628.106
3351.42,616.427
3352.87,616.391
3354.33,618.757
3355.78,623.342
3357.24,621.806
3358.69,603.037
3360.14,608.264
3361.6,611.408
3363.05,606.136
3364.51,617.128
3365.96,625.048
3367.41,625.5
3368.87,613.989
3370.32,603.465
3371.78,611.107
3373.23,608.632
3374.69,594.011
3376.14,612.905
3377.59,614.174
3379.05,583.947
3380.5,600.238
3381.96,613.986
3383.41,608.675
3384.87,605.523
3386.32,597.102
3387.77,597.863
3389.23,596.675
3390.68,606.757
3392.14,603.259
3393.59,604.492
3395.04,619.181
3396.5,620.377
3397.95,600.172
3399.41,591.606
3400.86,604.7
3402.32,598.71
3403.77,606.007
3405.22,587.257
3406.68,609.106
3408.13,602.223
3409.59,620.369
3411.04,612.435
3412.5,612.829
3413.95,617.615
3415.4,590.612
3416.86,609.113
3418.31,594.412
3419.77,596.784
3421.22,596.2
3422.68,598.908
3424.13,609.692
3425.58,599.331
3427.04,621.583
3428.49,606.497
3429.95,583.608
3431.4,587.505
3432.85,598.858
3434.31,579.934
3435.76,601.079
3437.22,593.395
3438.67,577.46
3440.13,599.666
3441.58,588.44
3443.03,598.246
3444.49,582.737
3445.94,592.53
3447.4,578.053
3448.85,593.316
3450.31,592.02
3451.76,608.903
3453.21,570.422
3454.67,588.345
3456.12,593.123
3457.58,576.652
3459.03,603.588
3460.48,592.867
3461.94,599.853
3463.39,580.737
3464.85,597.93
3466.3,593.353
3467.76,580.651
3469.21,581.357
3470.66,572.643
3472.12,565.119
3473.57,575.089
3475.03,582.079
3476.48,589.323
3477.94,598.38
3479.39,594.232
3480.84,596.386
3482.3,598.308
3483.75,574.964
3485.21,594.332
3486.66,571.705
3488.11,594.927
3489.57,607.103
3491.02,594.349
3492.48,585.383
3493.93,595.904
3495.39,609.957
3496.84,607.089
3498.29,594.753
3499.75,588.657
3501.2,580.34
3502.66,582.565
3504.11,585.471
3505.57,575.178
3507.02,609.362
3508.47,582.168
3509.93,611.043
3511.38,580.022
3512.84,591.699
3514.29,581.035
3515.75,572.197
3517.2,574.8
3518.65,606.45
3520.11,593.945
3521.56,571.883
3523.02,599.059
3524.47,595.718
3525.92,582.818
3527.38,581.269
3528.83,574.401
3530.29,586.335
3531.74,586.723
3533.2,592.752
3534.65,580.908
3536.1,573.854
3537.56,595.438
3539.01,590.128
3540.47,593.674
3541.92,588.282
3543.38,580.226
3544.83,576.701
3546.28,583.274
3547.74,573.484
3549.19,580.164
3550.65,585.404
3552.1,579.223
3553.55,586.518
3555.01,597.673
3556.46,581.721
3557.92,584.928
3559.37,588.587
3560.83,569.952
3562.28,574.033
3563.73,580.867
3565.19,570.475
3566.64,558.378
3568.1,575.895
3569.55,589.87
3571.01,581.789
3572.46,589.797
3573.91,581.97
3575.37,586.269
3576.82,578.14
3578.28,566.902
3579.73,581.003
3581.18,584.321
3582.64,584.074
3584.09,575.338
3585.55,577.923
3587,591.617
3588.46,585.347
3589.91,588.597
3591.36,591.204
3592.82,576.461
3594.27,585.666
3595.73,575.014
3597.18,577.028
3598.64,576.689
3600.09,585.316
3601.54,567.191
3603,576.651
3604.45,584.853
3605.91,567.329
3607.36,587.606
3608.82,555.388
3610.27,574.894
3611.72,584.891
3613.18,569.185
3614.63,561.446
3616.09,579.8
3617.54,569.183
3618.99,567.362
3620.45,601.912
3621.9,581.252
3623.36,575.789
3624.81,565.752
3626.27,568.588
3627.72,590.337
3629.17,582.87
3630.63,573.268
3632.08,568.014
3633.54,561.819
3634.99,581.771
3636.45,576.11
3637.9,594.347
3639.35,591.926
3640.81,588.823
3642.26,575.735
3643.72,573.212
3645.17,592.582
3646.62,573.636
3648.08,567.578
3649.53,567.576
3650.99,586.427
3652.44,599.823
3653.9,588.501
3655.35,573.772
3656.8,594.697
3658.26,594.243
3659.71,570.178
3661.17,589.773
3662.62,591.962
3664.08,569.693
3665.53,576.196
3666.98,598.66
3668.44,585.383
3669.89,581.885
3671.35,589.042
3672.8,589.204
3674.25,575.644
3675.71,565.89
3677.16,568.537
3678.62,574.951
3680.07,572.709
3681.53,576.5
3682.98,596.541
3684.43,588.655
3685.89,562.965
3687.34,591.453
3688.8,575.647
3690.25,579.512
3691.71,578.476
3693.16,580.499
3694.61,557.555
3696.07,566.592
3697.52,576.465
3698.98,591.258
3700.43,586.941
3701.89,583.236
3703.34,572.552
3704.79,594.754
3706.25,594.716
3707.7,571.716
3709.16,576.283
3710.61,563.661
3712.06,569.59
3713.52,592.498
3714.97,584.38
3716.43,595.452
3717.88,577.478
3719.34,577.595
3720.79,566.495
3722.24,568.815
3723.7,585.225
3725.15,588.509
3726.61,580.451
3728.06,588.994
3729.52,583.946
3730.97,611.202
3732.42,605.862
3733.88,582.958
3735.33,590.633
3736.79,569.498
3738.24,594.91
3739.69,587.67
3741.15,577.067
3742.6,616.411
3744.06,582.924
3745.51,582.163
3746.97,592.534
3748.42,581.065
3749.87,565.961
3751.33,571.746
3752.78,583.893
3754.24,571.126
3755.69,586.238
3757.15,586.427
3758.6,585.093
3760.05,584.403
3761.51,566.229
3762.96,574.537
3764.42,578.158
3765.87,573.802
3767.32,590.807
3768.78,577.218
3770.23,580.129
3771.69,584.935
3773.14,609.236
3774.6,587.186
3776.05,593.604
3777.5,598.008
3778.96,579.653
3780.41,594.862
3781.87,589.365
3783.32,590.425
3784.78,583.983
3786.23,591.079
3787.68,590.546
3789.14,595.164
3790.59,584.307
3792.05,597.65
3793.5,582.154
3794.96,587.739
3796.41,609.125
3797.86,601.025
3799.32,582.074
3800.77,576.663
3802.23,569.943
3803.68,606.891
3805.13,588.327
3806.59,587.652
3808.04,590.996
3809.5,586.167
3810.95,591.513
3812.41,593.687
3813.86,603.565
3815.31,597.567
3816.77,593.063
3818.22,577.762
3819.68,595.515
3821.13,601.389
3822.59,598.113
3824.04,593.411
3825.49,591.002
3826.95,597.868
3828.4,588.461
3829.86,566.313
3831.31,601.785
3832.76,587.447
3834.22,584.55
3835.67,589.862
3837.13,611.825
3838.58,574.907
3840.04,606.432
3841.49,620.994
3842.94,586.997
3844.4,601.068
3845.85,593.156
3847.31,601.213
3848.76,585.446
3850.22,620.95
3851.67,599.255
3853.12,594.99
3854.58,597.818
3856.03,601.902
3857.49,598.709
3858.94,595.657
3860.4,593.944
3861.85,594.769
3863.3,602.57
3864.76,613.264
3866.21,582.343
3867.67,603.278
3869.12,602.469
3870.57,597.813
3872.03,584.502
3873.48,593.868
3874.94,595.515
3876.39,607.737
3877.85,594.136
3879.3,600.328
3880.75,609.894
3882.21,613.881
3883.66,627.031
3885.12,622.037
3886.57,617.268
3888.03,613.83
3889.48,598.058
3890.93,606.354
3892.39,622.145
3893.84,608.796
3895.3,601.331
3896.75,597.941
3898.2,608.835
3899.66,617.649
3901.11,613.88
3902.57,633.349
3904.02,629.187
3905.48,603.852
3906.93,626.973
3908.38,625.609
3909.84,615.083
3911.29,608.181
3912.75,613.513
3914.2,628.393
3915.66,629.015
3917.11,641.748
3918.56,637.359
3920.02,638.011
3921.47,628.102
3922.93,630.095
3924.38,644.528
3925.83,628.941
3927.29,624.146
3928.74,622.665
3930.2,631.418
3931.65,638.996
3933.11,629.401
3934.56,636.022
3936.01,644.182
3937.47,630.522
3938.92,647.742
3940.38,626.073
3941.83,619.247
3943.29,630.437
3944.74,639.008
3946.19,637.92
3947.65,646.076
3949.1,647.359
3950.56,647.32
3952.01,662.64
3953.47,649.854
3954.92,648.521
3956.37,641.692
3957.83,630.345
3959.28,631.02
3960.74,655.544
3962.19,643.766
3963.64,664.633
3965.1,650.669
3966.55,665.514
3968.01,657.856
3969.46,677.824
3970.92,661.36
3972.37,661.393
3973.82,653.525
3975.28,683.981
3976.73,663.183
3978.19,660.39
3979.64,671.227
3981.1,676.075
3982.55,673.868
3984,675.549
3985.46,670.324
3986.91,662.139
3988.37,674.526
3989.82,685.43
3991.27,689.18
3992.73,701.76
3994.18,704.416
3995.64,682.821
3997.09,674.869
3998.55,684.613
4000,695.44
