0.897666,80.9214
2.35189,80.9214
3.8061,417.456
5.26032,144.656
6.71454,132.1
8.16876,119.821
9.62298,112.349
11.0772,106.712
12.5314,98.4833
13.9856,88.9352
15.4399,83.678
16.8941,77.75
18.3483,70.5755
19.8025,65.6687
21.2567,63.2649
22.711,60.7653
24.1652,58.1041
25.6194,57.0262
27.0736,56.2685
28.5278,55.3466
29.982,53.8374
31.4363,52.2458
32.8905,49.8349
34.3447,49.8102
35.7989,46.1701
37.2531,45.1366
38.7074,47.0022
40.1616,52.6761
41.6158,59.5171
43.07,65.1237
44.5242,77.5668
45.9785,100.073
47.4327,134.699
48.8869,209.098
50.3411,320.256
51.7953,445.776
53.2495,588.912
54.7038,733.729
56.158,867.53
57.6122,987.896
59.0664,1073.45
60.5206,1142.78
61.9749,1171.29
63.4291,1204.99
64.8833,1237.09
66.3375,1269.05
67.7917,1264.85
69.246,1281.17
70.7002,1285.43
72.1544,1319.74
73.6086,1350.92
75.0628,1352.9
76.5171,1348.64
77.9713,1390.1
79.4255,1441.86
80.8797,1463.92
82.3339,1439.82
83.7882,1447.64
85.2424,1418.62
86.6966,1378.28
88.1508,1347.74
89.605,1332.64
91.0592,1276.71
92.5135,1225.85
93.9677,1181.99
95.4219,1133.62
96.8761,1105.66
98.3303,1069.53
99.7846,1030
101.239,1012.02
102.693,1002.5
104.147,993.053
105.601,951.376
107.056,938.133
108.51,927.442
109.964,918.283
111.418,928.355
112.873,916.981
114.327,906.801
115.781,891.037
117.235,863.509
118.689,831.833
120.144,837.648
121.598,837.718
123.052,818.213
124.506,793.188
125.961,792.314
127.415,778.476
128.869,757.555
130.323,743.539
131.777,732.019
133.232,742.869
134.686,713.81
136.14,685.21
137.594,678.898
139.048,678.311
140.503,663.733
141.957,662.399
143.411,659.055
144.865,649.481
146.32,649.156
147.774,629.642
149.228,615.761
150.682,606.616
152.136,598.75
153.591,575.194
155.045,580.33
156.499,581.07
157.953,574.521
159.408,572.848
160.862,577.963
162.316,576.467
163.77,581.198
165.224,580.735
166.679,560.801
168.133,546.658
169.587,559.838
171.041,561.786
172.496,548.234
173.95,538.739
175.404,537.789
176.858,541.304
178.312,542.432
179.767,543.808
181.221,543.665
182.675,551.133
184.129,553.499
185.583,550.752
187.038,542.879
188.492,532.9
189.946,538.157
191.4,547.22
192.855,549.261
194.309,562.463
195.763,569.111
197.217,547.905
198.671,540.578
200.126,543.085
201.58,537.343
203.034,522.801
204.488,511.044
205.943,525.556
207.397,530.249
208.851,525.76
210.305,518.926
211.759,519.786
213.214,517.079
214.668,521.358
216.122,517.999
217.576,508.658
219.031,516.155
220.485,516.656
221.939,521.442
223.393,519.897
224.847,510.834
226.302,528.904
227.756,515.624
229.21,526.475
230.664,530.571
232.118,520.073
233.573,507.268
235.027,518.854
236.481,519.283
237.935,514.724
239.39,517.691
240.844,516.943
242.298,522.671
243.752,519.383
245.206,518.406
246.661,514.734
248.115,519.104
249.569,495.896
251.023,493.199
252.478,495.357
253.932,497.924
255.386,493.437
256.84,500.627
258.294,503.168
259.749,492.286
261.203,495.505
262.657,514.055
264.111,488.302
265.566,497.033
267.02,490.742
268.474,485.889
269.928,496.806
271.382,491.399
272.837,483.154
274.291,482.753
275.745,485.782
277.199,485.788
278.654,480.772
280.108,469.262
281.562,465.799
283.016,470.549
284.47,469.47
285.925,457.715
287.379,468.943
288.833,457.286
290.287,453.634
291.741,455.896
293.196,451.514
294.65,443.542
296.104,437.958
297.558,439.373
299.013,434.495
300.467,430.428
301.921,437.161
303.375,428.292
304.829,431.896
306.284,436.858
307.738,438.643
309.192,428.909
310.646,433.329
312.101,432.957
313.555,431.362
315.009,432.167
316.463,425.453
317.917,427.733
319.372,419.041
320.826,411.864
322.28,410.13
323.734,412.136
325.189,413.305
326.643,408.178
328.097,404.379
329.551,403.02
331.005,405.968
332.46,421.381
333.914,424.989
335.368,408.558
336.822,406.048
338.276,412.865
339.731,405.896
341.185,411.496
342.639,413.18
344.093,413.648
345.548,409.75
347.002,403.272
348.456,419.502
349.91,403.063
351.364,390.427
352.819,393.73
354.273,404.573
355.727,405.784
357.181,391.537
358.636,394.227
360.09,400.166
361.544,403.602
362.998,405.866
364.452,403.825
365.907,404.957
367.361,402.013
368.815,390.937
370.269,380.121
371.724,396.63
373.178,397.004
374.632,399.742
376.086,397.456
377.54,396.904
378.995,404.736
380.449,410.532
381.903,388.7
383.357,389.415
384.811,391.516
386.266,390.833
387.72,404.972
389.174,398.572
390.628,398.883
392.083,398.739
393.537,394.476
394.991,386.34
396.445,397.251
397.899,399.677
399.354,403.135
400.808,402.674
402.262,395.513
403.716,381.057
405.171,404.839
406.625,395.3
408.079,395.731
409.533,396.707
410.987,389.133
412.442,409.229
413.896,406.698
415.35,384.561
416.804,386.598
418.259,403.789
419.713,392.688
421.167,392.969
422.621,398.191
424.075,402.816
425.53,403.818
426.984,403.391
428.438,405.533
429.892,405.007
431.346,415.488
432.801,414.777
434.255,407.704
435.709,407.512
437.163,389.595
438.618,396.657
440.072,402.211
441.526,410.807
442.98,415.071
444.434,411.618
445.889,402.756
447.343,396.302
448.797,400.911
450.251,411.963
451.706,420.358
453.16,407.889
454.614,403.463
456.068,403.279
457.522,401.831
458.977,408.545
460.431,420.528
461.885,414.195
463.339,422.838
464.794,412.022
466.248,399.547
467.702,402.291
469.156,416.327
470.61,406.27
472.065,409.836
473.519,415.037
474.973,409.931
476.427,402.496
477.882,423.638
479.336,418.477
480.79,413.777
482.244,403.956
483.698,399.502
485.153,403.004
486.607,405.272
488.061,406.906
489.515,401.772
490.969,393.654
492.424,393.964
493.878,407.652
495.332,405.215
496.786,393.195
498.241,402.914
499.695,406.263
501.149,402.059
502.603,397.782
504.057,386.111
505.512,387.543
506.966,387.615
508.42,386.134
509.874,388.797
511.329,383.55
512.783,389.851
514.237,374.504
515.691,378.692
517.145,387.046
518.6,388.062
520.054,387.965
521.508,389.644
522.962,379.903
524.417,380.833
525.871,386.101
527.325,385.174
528.779,375.809
530.233,384.865
531.688,383.186
533.142,386.712
534.596,385.998
536.05,382.019
537.505,392.795
538.959,381.567
540.413,379.366
541.867,378.519
543.321,378.259
544.776,385.549
546.23,395.423
547.684,384.23
549.138,396.24
550.592,397.182
552.047,388.463
553.501,382.387
554.955,385.27
556.409,384.788
557.864,384.89
559.318,382.244
560.772,376.572
562.226,383.989
563.68,392.306
565.135,390.262
566.589,384.848
568.043,381.58
569.497,388.983
570.952,383.193
572.406,374.952
573.86,379.106
575.314,392.722
576.768,396.618
578.223,394.13
579.677,385.769
581.131,388.119
582.585,381.383
584.039,382.9
585.494,386.802
586.948,383.308
588.402,385.64
589.856,395.768
591.311,379.589
592.765,386.002
594.219,370.976
595.673,369.843
597.127,385.924
598.582,390.257
600.036,372.8
601.49,385.375
602.944,386.207
604.399,388.982
605.853,391.931
607.307,385.086
608.761,372.328
610.215,391.387
611.67,406.932
613.124,404.327
614.578,395.608
616.032,391.364
617.487,375.803
618.941,392.791
620.395,395.228
621.849,393.251
623.303,389.812
624.758,396.574
626.212,398.437
627.666,387.154
629.12,393.172
630.575,394.028
632.029,398.057
633.483,401.486
634.937,395.198
636.391,396.492
637.846,381.477
639.3,387.567
640.754,390.139
642.208,397.606
643.662,395.849
645.117,378.07
646.571,392.057
648.025,394.838
649.479,392.378
650.934,393.303
652.388,395.508
653.842,394.517
655.296,412.549
656.75,407.572
658.205,394.088
659.659,392.387
661.113,402.142
662.567,397.123
664.022,393.992
665.476,402.288
666.93,403.348
668.384,398.752
669.838,390.821
671.293,396.545
672.747,400.765
674.201,412.554
675.655,399.681
677.109,404.83
678.564,412.734
680.018,408.981
681.472,415.464
682.926,412.053
684.381,409.079
685.835,405.099
687.289,403.387
688.743,405.898
690.198,402.438
691.652,406.112
693.106,410.691
694.56,403.804
696.014,409.106
697.469,411.484
698.923,411.357
700.377,407.549
701.831,417.226
703.285,410.727
704.74,399.602
706.194,406.973
707.648,411.739
709.102,411.771
710.557,413.936
712.011,416.004
713.465,415.497
714.919,414.166
716.373,411.399
717.828,413.77
719.282,425.689
720.736,423.385
722.19,414.902
723.645,412.542
725.099,413.354
726.553,416.963
728.007,419.918
729.461,410.267
730.916,404.054
732.37,413.582
733.824,418.912
735.278,418.421
736.732,416.57
738.187,410.567
739.641,408.957
741.095,413.637
742.549,419.892
744.004,425.236
745.458,420.933
746.912,421.355
748.366,413.389
749.82,410.777
751.275,409.964
752.729,414.979
754.183,418.998
755.637,414.415
757.092,417.707
758.546,411.221
760,419.062
761.454,425.789
762.908,431.943
764.363,432.513
765.817,425.931
767.271,423.217
768.725,425.863
770.18,427.391
771.634,425.656
773.088,421.301
774.542,424.662
775.996,415.557
777.451,409.477
778.905,431.088
780.359,417.523
781.813,418.654
783.268,426.527
784.722,428.681
786.176,424.947
787.63,428.768
789.084,433.001
790.539,425.861
791.993,414.123
793.447,421.076
794.901,424.852
796.355,433.777
797.81,438.282
799.264,434.711
800.718,428.418
802.172,426.356
803.627,428.161
805.081,433.861
806.535,434.887
807.989,438.931
809.443,431.357
810.898,440.881
812.352,439.886
813.806,445.314
815.26,443.272
816.715,434.139
818.169,429.829
819.623,437.829
821.077,438.717
822.531,447.617
823.986,445.693
825.44,445.523
826.894,443.286
828.348,446.981
829.802,441.661
831.257,460.12
832.711,445.698
834.165,453.883
835.619,454.495
837.074,446.502
838.528,442.435
839.982,439.063
841.436,442.081
842.891,453.51
844.345,453.355
845.799,453.629
847.253,456.612
848.707,459.017
850.162,454.26
851.616,466.697
853.07,474.581
854.524,464.368
855.978,456.885
857.433,470.759
858.887,476.171
860.341,475.774
861.795,473.022
863.25,465.942
864.704,458.727
866.158,459.383
867.612,470.614
869.066,473.17
870.521,453.872
871.975,447.637
873.429,449.073
874.883,448.553
876.338,449.874
877.792,457.917
879.246,462.837
880.7,455.014
882.154,458.999
883.609,454.765
885.063,462.838
886.517,467.831
887.971,459.281
889.425,455.29
890.88,457.024
892.334,456.695
893.788,466.171
895.242,464.954
896.697,461.123
898.151,459.391
899.605,459.648
901.059,464.55
902.513,461.322
903.968,459.835
905.422,468.701
906.876,455.608
908.33,470.749
909.785,479.378
911.239,473.552
912.693,465.215
914.147,473.263
915.601,467.452
917.056,484.015
918.51,479.411
919.964,473.282
921.418,475.777
922.873,481.091
924.327,484.525
925.781,472.384
927.235,474.729
928.689,484.661
930.144,478.428
931.598,475.094
933.052,484.676
934.506,495.477
935.961,487.619
937.415,480.351
938.869,482.907
940.323,486.989
941.777,476.971
943.232,472.798
944.686,477.513
946.14,477.189
947.594,477.688
949.048,472.225
950.503,492.733
951.957,490.317
953.411,471.93
954.865,463.595
956.32,474.827
957.774,487.378
959.228,486.378
960.682,487.743
962.136,473.212
963.591,491.878
965.045,480.186
966.499,476.592
967.953,483.813
969.408,486.831
970.862,493.926
972.316,503.279
973.77,500.518
975.224,486.926
976.679,482.219
978.133,494.452
979.587,493.909
981.041,496.382
982.495,501.128
983.95,488.547
985.404,501.391
986.858,502.671
988.312,500.894
989.767,514.612
991.221,505.92
992.675,496.369
994.129,499.21
995.583,501.047
997.038,516.532
998.492,514.81
999.946,500.112
1001.4,506.624
1002.85,510.154
1004.31,507.835
1005.76,515.058
1007.22,516.01
1008.67,540.343
1010.13,525.625
1011.58,535.358
1013.03,536.548
1014.49,529.718
1015.94,527.326
1017.4,526.045
1018.85,536.786
1020.31,531.971
1021.76,528.785
1023.21,549.062
1024.67,554.903
1026.12,555.112
1027.58,552.14
1029.03,545.874
1030.48,556.47
1031.94,573.016
1033.39,555.188
1034.85,555.683
1036.3,572.906
1037.76,572.377
1039.21,573.895
1040.66,581.498
1042.12,585.787
1043.57,587.266
1045.03,582.956
1046.48,577.246
1047.94,592.269
1049.39,593.079
1050.84,595.632
1052.3,603.502
1053.75,604.891
1055.21,615.091
1056.66,604.952
1058.11,618.002
1059.57,618.093
1061.02,621.354
1062.48,618.714
1063.93,637.318
1065.39,646.782
1066.84,647.165
1068.29,661.193
1069.75,659.515
1071.2,650.566
1072.66,661.327
1074.11,667.173
1075.57,680.232
1077.02,680.966
1078.47,682.683
1079.93,695.499
1081.38,695.122
1082.84,686.716
1084.29,700.215
1085.75,693.022
1087.2,696.392
1088.65,693.75
1090.11,680.506
1091.56,685.88
1093.02,716.51
1094.47,696.079
1095.92,689.761
1097.38,689.448
1098.83,688.816
1100.29,689.32
1101.74,687.291
1103.2,687.042
1104.65,676.766
1106.1,671.284
1107.56,682.064
1109.01,688.778
1110.47,672.088
1111.92,685.919
1113.38,679.613
1114.83,674.979
1116.28,674.966
1117.74,661.902
1119.19,675.407
1120.65,680.608
1122.1,651.479
1123.55,651.856
1125.01,667.084
1126.46,664.282
1127.92,663.031
1129.37,658.104
1130.83,642.614
1132.28,652.449
1133.73,655.774
1135.19,673.805
1136.64,664.014
1138.1,654.951
1139.55,670.965
1141.01,672.19
1142.46,664.078
1143.91,671.896
1145.37,670.097
1146.82,661.697
1148.28,658.621
1149.73,666.088
1151.18,642.729
1152.64,654.115
1154.09,661.551
1155.55,660.9
1157,666.765
1158.46,674.309
1159.91,657.67
1161.36,667.454
1162.82,680.87
1164.27,678.336
1165.73,675.305
1167.18,670.652
1168.64,672.26
1170.09,666.076
1171.54,661.187
1173,678.158
1174.45,666.484
1175.91,663.07
1177.36,683.921
1178.82,669.503
1180.27,681.968
1181.72,689.742
1183.18,684.897
1184.63,682.74
1186.09,685.248
1187.54,677.851
1188.99,691.618
1190.45,689.008
1191.9,675.681
1193.36,692.25
1194.81,704.051
1196.27,701.658
1197.72,694.688
1199.17,701.205
1200.63,706.125
1202.08,693.884
1203.54,719.95
1204.99,701.319
1206.45,714.978
1207.9,723.856
1209.35,717.582
1210.81,721.698
1212.26,725.279
1213.72,706.725
1215.17,701.192
1216.62,724.385
1218.08,718.252
1219.53,720.569
1220.99,717.307
1222.44,725.656
1223.9,730.455
1225.35,729.645
1226.8,735.389
1228.26,751.6
1229.71,762.922
1231.17,762.444
1232.62,735.791
1234.08,744.49
1235.53,748.977
1236.98,759.285
1238.44,747.86
1239.89,751.772
1241.35,765.622
1242.8,755.583
1244.25,764.601
1245.71,782.159
1247.16,787.297
1248.62,791.758
1250.07,813.688
1251.53,803.796
1252.98,804.644
1254.43,815.354
1255.89,822.171
1257.34,825.445
1258.8,825.911
1260.25,837.099
1261.71,856.463
1263.16,834.999
1264.61,865.526
1266.07,874.934
1267.52,875.687
1268.98,882.497
1270.43,896.29
1271.89,909.22
1273.34,932.88
1274.79,934.731
1276.25,923.083
1277.7,955.895
1279.16,969.853
1280.61,987.992
1282.06,1000.16
1283.52,1026.94
1284.97,1041.27
1286.43,1054.99
1287.88,1094.63
1289.34,1132.37
1290.79,1143.7
1292.24,1150.96
1293.7,1190.43
1295.15,1211.35
1296.61,1262.7
1298.06,1279.82
1299.52,1316.9
1300.97,1388.11
1302.42,1434.81
1303.88,1464.96
1305.33,1536.96
1306.79,1590.2
1308.24,1635.36
1309.69,1703.7
1311.15,1792.5
1312.6,1864.41
1314.06,1946.24
1315.51,2018.07
1316.97,2118.84
1318.42,2210.25
1319.87,2261.2
1321.33,2385.01
1322.78,2489.12
1324.24,2600.45
1325.69,2653.92
1327.15,2726.8
1328.6,2802.95
1330.05,2842.53
1331.51,2859.34
1332.96,2893.25
1334.42,2897.87
1335.87,2867.88
1337.32,2854.82
1338.78,2795.42
1340.23,2755.02
1341.69,2683.54
1343.14,2594.82
1344.6,2507.24
1346.05,2431.62
1347.5,2343.39
1348.96,2254.4
1350.41,2163.8
1351.87,2064.58
1353.32,1965.08
1354.78,1894.53
1356.23,1816.21
1357.68,1735.17
1359.14,1682.12
1360.59,1596.29
1362.05,1533.78
1363.5,1485.35
1364.96,1441.81
1366.41,1387.83
1367.86,1346.86
1369.32,1324.38
1370.77,1287.86
1372.23,1251.98
1373.68,1241.42
1375.13,1187.22
1376.59,1185.37
1378.04,1134.51
1379.5,1115.2
1380.95,1091.9
1382.41,1084.06
1383.86,1080.7
1385.31,1060.02
1386.77,1042.7
1388.22,1030.15
1389.68,1018.74
1391.13,1015.53
1392.59,1029.47
1394.04,988.203
1395.49,1003.27
1396.95,998.804
1398.4,988.471
1399.86,990.283
1401.31,968.807
1402.76,954.178
1404.22,963.937
1405.67,962.226
1407.13,952.889
1408.58,948.262
1410.04,946.098
1411.49,943.532
1412.94,935.867
1414.4,954.255
1415.85,950.221
1417.31,938.075
1418.76,950.342
1420.22,960.139
1421.67,943.756
1423.12,927.2
1424.58,936.671
1426.03,945.543
1427.49,953.016
1428.94,962.584
1430.4,949.059
1431.85,933.154
1433.3,947.598
1434.76,956.355
1436.21,945.217
1437.67,963.784
1439.12,971.5
1440.57,959.52
1442.03,960.452
1443.48,976.88
1444.94,970.868
1446.39,983.697
1447.85,977.136
1449.3,966.132
1450.75,1000.1
1452.21,1017.52
1453.66,1009.79
1455.12,998.178
1456.57,1001.9
1458.03,1016.85
1459.48,1022.38
1460.93,1024.68
1462.39,1039.48
1463.84,1035.83
1465.3,1037.85
1466.75,1030.67
1468.2,1071
1469.66,1058.61
1471.11,1072.25
1472.57,1086.87
1474.02,1103.49
1475.48,1102.79
1476.93,1120.42
1478.38,1142.27
1479.84,1143.93
1481.29,1149
1482.75,1178.64
1484.2,1193.83
1485.66,1181.05
1487.11,1230.27
1488.56,1245.25
1490.02,1263.33
1491.47,1266.8
1492.93,1265.49
1494.38,1259.04
1495.83,1312.78
1497.29,1347.41
1498.74,1382.13
1500.2,1423.39
1501.65,1446.93
1503.11,1471.2
1504.56,1477.26
1506.01,1489.01
1507.47,1562.28
1508.92,1604.97
1510.38,1645.21
1511.83,1696.03
1513.29,1748.55
1514.74,1795.98
1516.19,1858.51
1517.65,1934.44
1519.1,2029.39
1520.56,2132.71
1522.01,2217.58
1523.46,2336.48
1524.92,2469.49
1526.37,2596.86
1527.83,2766.45
1529.28,2962.08
1530.74,3059.8
1532.19,3300.91
1533.64,3565.7
1535.1,3831.17
1536.55,4130.99
1538.01,4510.03
1539.46,4901.07
1540.92,5314.57
1542.37,5753.11
1543.82,6235.04
1545.28,6773.73
1546.73,7308.76
1548.19,7922.94
1549.64,8461.88
1551.1,9104.9
1552.55,9716.08
1554,10373.5
1555.46,10985.2
1556.91,11591.5
1558.37,12210.8
1559.82,12785.8
1561.27,13299.8
1562.73,13714.7
1564.18,14036.2
1565.64,14161.2
1567.09,14179.4
1568.55,14213.6
1570,13989.4
1571.45,13633.5
1572.91,13219.8
1574.36,12631.4
1575.82,11874.6
1577.27,11182.7
1578.73,10507.4
1580.18,9693.87
1581.63,8933.79
1583.09,8193.05
1584.54,7550.47
1586,6974.58
1587.45,6381.13
1588.9,5875.78
1590.36,5448.21
1591.81,5074.64
1593.27,4686.84
1594.72,4433.31
1596.18,4126.03
1597.63,3937.9
1599.08,3748.55
1600.54,3524.82
1601.99,3347.2
1603.45,3220.29
1604.9,3040.36
1606.36,2923.94
1607.81,2815.69
1609.26,2697.89
1610.72,2568.08
1612.17,2419.26
1613.63,2305.52
1615.08,2185.71
1616.54,2084.54
1617.99,1990.76
1619.44,1890.86
1620.9,1828.46
1622.35,1733.5
1623.81,1666.49
1625.26,1597.27
1626.71,1555.98
1628.17,1505.14
1629.62,1447.17
1631.08,1417.27
1632.53,1390.49
1633.99,1350.18
1635.44,1314.95
1636.89,1281.37
1638.35,1246.57
1639.8,1217.36
1641.26,1192.84
1642.71,1177.66
1644.17,1153.53
1645.62,1155.31
1647.07,1086.13
1648.53,1103.95
1649.98,1084.2
1651.44,1045.45
1652.89,1062.61
1654.34,1033.86
1655.8,1034.49
1657.25,1009.36
1658.71,978.859
1660.16,970.198
1661.62,972.674
1663.07,953.438
1664.52,945.517
1665.98,946.5
1667.43,943.098
1668.89,923.198
1670.34,919.822
1671.8,920.339
1673.25,908.978
1674.7,910.382
1676.16,878.834
1677.61,912.341
1679.07,926.695
1680.52,875.859
1681.97,874.468
1683.43,858.206
1684.88,856.208
1686.34,869.739
1687.79,865.794
1689.25,845.402
1690.7,833.978
1692.15,835.095
1693.61,838.963
1695.06,835.976
1696.52,827.245
1697.97,820.907
1699.43,827.41
1700.88,808.78
1702.33,809.738
1703.79,803.591
1705.24,796.073
1706.7,820.409
1708.15,787.731
1709.6,771.098
1711.06,786.646
1712.51,774.596
1713.97,790.826
1715.42,794.739
1716.88,774.96
1718.33,787.929
1719.78,779.836
1721.24,777.857
1722.69,784.897
1724.15,775.279
1725.6,766.982
1727.06,762.501
1728.51,769.203
1729.96,772.292
1731.42,764.48
1732.87,775.981
1734.33,767.148
1735.78,769.426
1737.24,760.548
1738.69,765.986
1740.14,764.282
1741.6,762.674
1743.05,768.577
1744.51,769.445
1745.96,765.948
1747.41,757.74
1748.87,759.189
1750.32,745.499
1751.78,737.757
1753.23,741.139
1754.69,750.273
1756.14,752.564
1757.59,731.827
1759.05,733.914
1760.5,732.408
1761.96,733.353
1763.41,735.982
1764.87,712.47
1766.32,718.75
1767.77,736.806
1769.23,729.734
1770.68,728.208
1772.14,733.206
1773.59,714.142
1775.04,714.869
1776.5,728.266
1777.95,718.246
1779.41,698.696
1780.86,720.652
1782.32,719.439
1783.77,716.893
1785.22,703.362
1786.68,690.463
1788.13,702.372
1789.59,694.95
1791.04,704.351
1792.5,707.447
1793.95,704.351
1795.4,710.453
1796.86,703.285
1798.31,708.704
1799.77,702.934
1801.22,702.385
1802.68,690.38
1804.13,686.021
1805.58,694.171
1807.04,701.492
1808.49,693.003
1809.95,690.457
1811.4,688.823
1812.85,685.676
1814.31,679.23
1815.76,686.148
1817.22,683.991
1818.67,689.225
1820.13,676.46
1821.58,689.806
1823.03,685.268
1824.49,679.217
1825.94,684.317
1827.4,689.499
1828.85,668.999
1830.31,668.788
1831.76,682.223
1833.21,699.654
1834.67,688.408
1836.12,679.294
1837.58,694.72
1839.03,690.776
1840.48,688.803
1841.94,699.22
1843.39,695.888
1844.85,706.31
1846.3,705.174
1847.76,709.361
1849.21,713.389
1850.66,698.422
1852.12,692.441
1853.57,699.29
1855.03,705.902
1856.48,733.761
1857.94,720.479
1859.39,724.851
1860.84,720.575
1862.3,724.385
1863.75,705.091
1865.21,729.294
1866.66,721.89
1868.11,728.081
1869.57,711.333
1871.02,708.078
1872.48,700.866
1873.93,707.478
1875.39,716.05
1876.84,704.351
1878.29,720.556
1879.75,709.048
1881.2,711.021
1882.66,723.466
1884.11,707.638
1885.57,701.141
1887.02,703.764
1888.47,691.969
1889.93,689.499
1891.38,683.551
1892.84,687.489
1894.29,694.107
1895.75,686.672
1897.2,676.122
1898.65,682.236
1900.11,671.775
1901.56,683.474
1903.02,662.419
1904.47,669.382
1905.92,662.508
1907.38,681.183
1908.83,659.77
1910.29,673.939
1911.74,660.057
1913.2,652.711
1914.65,680.436
1916.1,663.867
1917.56,662.597
1919.01,643.463
1920.47,674.009
1921.92,649.271
1923.38,644.031
1924.83,675.094
1926.28,647.394
1927.74,647.982
1929.19,651.211
1930.65,664.384
1932.1,658.27
1933.55,658.053
1935.01,661.691
1936.46,647.062
1937.92,665.814
1939.37,684.112
1940.83,662.15
1942.28,665.782
1943.73,667.263
1945.19,654.192
1946.64,651.588
1948.1,669.49
1949.55,664.059
1951.01,657.97
1952.46,653.49
1953.91,651.147
1955.37,659.029
1956.82,672.375
1958.28,682.313
1959.73,676.951
1961.18,664.933
1962.64,673.62
1964.09,682.989
1965.55,679.951
1967,674.896
1968.46,679.734
1969.91,681.872
1971.36,692.007
1972.82,689.129
1974.27,681.279
1975.73,665.169
1977.18,687.904
1978.64,689.065
1980.09,695.62
1981.54,683.991
1983,678.362
1984.45,682.019
1985.91,697.33
1987.36,678.151
1988.82,677.762
1990.27,692.792
1991.72,695.237
1993.18,692.397
1994.63,703.802
1996.09,699.692
1997.54,707.357
1998.99,673.869
2000.45,691.331
2001.9,694.197
2003.36,680.168
2004.81,679.102
2006.27,691.197
2007.72,698.958
2009.17,711.429
2010.63,685.734
2012.08,686.621
2013.54,701.498
2014.99,688.778
2016.45,655.73
2017.9,674.845
2019.35,684.508
2020.81,683.532
2022.26,673.518
2023.72,672.713
2025.17,665.488
2026.62,664.008
2028.08,691.72
2029.53,686.225
2030.99,672.982
2032.44,662.521
2033.9,668.673
2035.35,673.862
2036.8,659.61
2038.26,654.926
2039.71,656.017
2041.17,658.276
2042.62,663.708
2044.08,648.926
2045.53,652.73
2046.98,650.643
2048.44,662.489
2049.89,660.887
2051.35,642.901
2052.8,648.052
2054.25,650.483
2055.71,664.608
2057.16,652.813
2058.62,632.639
2060.07,626.811
2061.53,639.008
2062.98,647.477
2064.43,650.841
2065.89,641.746
2067.34,627.88
2068.8,616.067
2070.25,625.32
2071.71,632.89
2073.16,634.477
2074.61,628.705
2076.07,619.443
2077.52,626.392
2078.98,638.14
2080.43,626.223
2081.89,626.303
2083.34,622.907
2084.79,612.1
2086.25,612.645
2087.7,619.889
2089.16,623.79
2090.61,625.004
2092.06,627.809
2093.52,635.907
2094.97,629.22
2096.43,621.71
2097.88,633.973
2099.34,638.408
2100.79,630.942
2102.24,615.693
2103.7,628.273
2105.15,675.183
2106.61,689.952
2108.06,640.833
2109.52,634.611
2110.97,632.214
2112.42,632.101
2113.88,632.519
2115.33,629.419
2116.79,625.648
2118.24,624.931
2119.69,631.907
2121.15,635.368
2122.6,627.826
2124.06,635.125
2125.51,638.555
2126.97,637.839
2128.42,634.314
2129.87,637.295
2131.33,641.931
2132.78,641.267
2134.24,638.242
2135.69,638.459
2137.15,635.7
2138.6,633.324
2140.05,635.899
2141.51,635.813
2142.96,645.875
2144.42,641.688
2145.87,639.25
2147.32,646.648
2148.78,651.109
2150.23,642.078
2151.69,642.467
2153.14,642.129
2154.6,644.956
2156.05,646.124
2157.5,637.885
2158.96,639.544
2160.41,646.507
2161.87,659.821
2163.32,656.7
2164.78,652.36
2166.23,650.975
2167.68,659.636
2169.14,652.047
2170.59,664.863
2172.05,660.383
2173.5,663.312
2174.96,656.674
2176.41,662.093
2177.86,674.922
2179.32,672.822
2180.77,676.964
2182.23,661.965
2183.68,663.21
2185.13,658.87
2186.59,668.086
2188.04,671.22
2189.5,665.878
2190.95,672.841
2192.41,680.557
2193.86,666.873
2195.31,673.767
2196.77,675.139
2198.22,659.866
2199.68,667.027
2201.13,675.139
2202.59,667.32
2204.04,682.549
2205.49,660.414
2206.95,671.858
2208.4,677.136
2209.86,668.412
2211.31,677.858
2212.76,679.67
2214.22,667.161
2215.67,670.779
2217.13,666.165
2218.58,669.892
2220.04,664.537
2221.49,702.736
2222.94,666.139
2224.4,655.053
2225.85,681.821
2227.31,680.117
2228.76,678.113
2230.22,670.626
2231.67,670.116
2233.12,687.687
2234.58,667.582
2236.03,669.318
2237.49,682.951
2238.94,678.1
2240.4,671.884
2241.85,683.717
2243.3,696.884
2244.76,689.499
2246.21,683.436
2247.67,678.502
2249.12,681.387
2250.57,672.286
2252.03,678.777
2253.48,692.927
2254.94,689.493
2256.39,668.475
2257.85,674.788
2259.3,687.718
2260.75,682.185
2262.21,683.627
2263.66,688.752
2265.12,700.043
2266.57,689.129
2268.03,688.944
2269.48,689.844
2270.93,693.105
2272.39,703.809
2273.84,675.241
2275.3,686.704
2276.75,696.877
2278.2,704.294
2279.66,707.313
2281.11,690.354
2282.57,698.237
2284.02,710.146
2285.48,710.191
2286.93,707.951
2288.38,680.659
2289.84,725.362
2291.29,708.251
2292.75,715.469
2294.2,711.193
2295.66,721.794
2297.11,730.921
2298.56,731.342
2300.02,725.005
2301.47,716.72
2302.93,713.159
2304.38,722.739
2305.83,727.366
2307.29,719.56
2308.74,731.776
2310.2,722.918
2311.65,728.119
2313.11,738.982
2314.56,729.434
2316.01,734.865
2317.47,727.985
2318.92,736.729
2320.38,754.817
2321.83,759.125
2323.29,752.232
2324.74,752.092
2326.19,755.308
2327.65,747.356
2329.1,736.876
2330.56,754.517
2332.01,773.09
2333.47,747.956
2334.92,771.226
2336.37,764.065
2337.83,775.292
2339.28,782.261
2340.74,766.937
2342.19,770.339
2343.64,795.173
2345.1,782.536
2346.55,786.25
2348.01,796.443
2349.46,778.655
2350.92,798.013
2352.37,790.52
2353.82,801.045
2355.28,804.804
2356.73,791.86
2358.19,803.923
2359.64,813.452
2361.1,821.098
2362.55,825.062
2364,841.222
2365.46,835.401
2366.91,821.309
2368.37,830.806
2369.82,841.458
2371.27,847.228
2372.73,857.484
2374.18,852.002
2375.64,864.269
2377.09,882.044
2378.55,880.704
2380,882.778
2381.45,882.574
2382.91,890.182
2384.36,903.444
2385.82,932.286
2387.27,949.436
2388.73,916.349
2390.18,955.384
2391.63,971.091
2393.09,982.644
2394.54,970.083
2396,968.647
2397.45,996.098
2398.9,1026.63
2400.36,1038.4
2401.81,1057.25
2403.27,1077.7
2404.72,1086.38
2406.18,1099
2407.63,1115.9
2409.08,1140.16
2410.54,1149.19
2411.99,1148.07
2413.45,1186.57
2414.9,1190.56
2416.36,1183.51
2417.81,1200.67
2419.26,1210.89
2420.72,1204.26
2422.17,1252.81
2423.63,1256.08
2425.08,1276.84
2426.53,1280.45
2427.99,1262.09
2429.44,1274.65
2430.9,1258.73
2432.35,1264.99
2433.81,1276.22
2435.26,1257.43
2436.71,1270.12
2438.17,1258.31
2439.62,1268.08
2441.08,1280.17
2442.53,1277.03
2443.99,1282.02
2445.44,1268.23
2446.89,1223.04
2448.35,1236.13
2449.8,1225.84
2451.26,1233.93
2452.71,1212.29
2454.17,1200.87
2455.62,1216.32
2457.07,1214.77
2458.53,1198.43
2459.98,1199.73
2461.44,1164.57
2462.89,1190.58
2464.34,1170.74
2465.8,1173.92
2467.25,1158.31
2468.71,1153.58
2470.16,1142.49
2471.62,1134.54
2473.07,1129.24
2474.52,1136.17
2475.98,1136.08
2477.43,1141.69
2478.89,1122.75
2480.34,1125.14
2481.8,1094.8
2483.25,1097.71
2484.7,1132.84
2486.16,1099.53
2487.61,1096.49
2489.07,1068.16
2490.52,1096.15
2491.97,1106.46
2493.43,1103.67
2494.88,1104.82
2496.34,1113.41
2497.79,1129.08
2499.25,1109.74
2500.7,1101.96
2502.15,1120.27
2503.61,1110.68
2505.06,1098.61
2506.52,1102.28
2507.97,1114.42
2509.43,1115.21
2510.88,1110.64
2512.33,1128.67
2513.79,1122.68
2515.24,1134.93
2516.7,1121.59
2518.15,1124.4
2519.6,1144.45
2521.06,1133.05
2522.51,1135.83
2523.97,1135.72
2525.42,1141.02
2526.88,1145.78
2528.33,1168.29
2529.78,1176.73
2531.24,1189.98
2532.69,1192.94
2534.15,1202.79
2535.6,1211.1
2537.06,1228.21
2538.51,1243
2539.96,1224.88
2541.42,1248.17
2542.87,1230.96
2544.33,1268.23
2545.78,1281.23
2547.24,1296.03
2548.69,1312.39
2550.14,1301.55
2551.6,1329.53
2553.05,1348.41
2554.51,1362.76
2555.96,1387.65
2557.41,1392.2
2558.87,1402.72
2560.32,1426.05
2561.78,1440.47
2563.23,1449.29
2564.69,1487.33
2566.14,1495.24
2567.59,1513.45
2569.05,1575.18
2570.5,1555.49
2571.96,1573.78
2573.41,1621.5
2574.87,1651.25
2576.32,1690.65
2577.77,1719.55
2579.23,1776.09
2580.68,1799.07
2582.14,1833.46
2583.59,1868.64
2585.04,1893.96
2586.5,1951.55
2587.95,2022.04
2589.41,2039.66
2590.86,2076.44
2592.32,2118.75
2593.77,2187.48
2595.22,2261.79
2596.68,2361.5
2598.13,2388.49
2599.59,2454.33
2601.04,2536.32
2602.5,2619.52
2603.95,2713.42
2605.4,2769.76
2606.86,2870.93
2608.31,2975.47
2609.77,3090.91
2611.22,3196.51
2612.68,3336.36
2614.13,3381.84
2615.58,3603.16
2617.04,3676.4
2618.49,3815.47
2619.95,3986.6
2621.4,4132.76
2622.85,4291.41
2624.31,4432.42
2625.76,4633
2627.22,4810.58
2628.67,4967.88
2630.13,5190.2
2631.58,5384.72
2633.03,5651.8
2634.49,5870.57
2635.94,6048.37
2637.4,6247.57
2638.85,6485.75
2640.31,6692.6
2641.76,6903.42
2643.21,7109.38
2644.67,7311.51
2646.12,7532.02
2647.58,7724.58
2649.03,7920.65
2650.48,8057.04
2651.94,8226.3
2653.39,8380.82
2654.85,8461.68
2656.3,8608.99
2657.76,8659.99
2659.21,8826.38
2660.66,8861.1
2662.12,8863.71
2663.57,8898.75
2665.03,8891.35
2666.48,8881.58
2667.94,8835.12
2669.39,8821.4
2670.84,8727.64
2672.3,8627.5
2673.75,8466.22
2675.21,8325.1
2676.66,8156.8
2678.11,7970.81
2679.57,7831.74
2681.02,7628.84
2682.48,7461.3
2683.93,7209.33
2685.39,6929.2
2686.84,6762.24
2688.29,6573.89
2689.75,6370.15
2691.2,6113.94
2692.66,5851.84
2694.11,5676.08
2695.57,5466.25
2697.02,5229.7
2698.47,5076.65
2699.93,4776.98
2701.38,4543.7
2702.84,4389.55
2704.29,4227.5
2705.75,4054.7
2707.2,3891.85
2708.65,3723.73
2710.11,3601.01
2711.56,3447.09
2713.02,3269.66
2714.47,3226.29
2715.92,3073.68
2717.38,2950.25
2718.83,2837.56
2720.29,2728.19
2721.74,2631.87
2723.2,2526.23
2724.65,2470.61
2726.1,2389.8
2727.56,2327.11
2729.01,2227.65
2730.47,2154.88
2731.92,2097.75
2733.38,2056.96
2734.83,1928.08
2736.28,1888.82
2737.74,1865.72
2739.19,1829.75
2740.65,1734.17
2742.1,1715.82
2743.55,1698.07
2745.01,1661.06
2746.46,1596.5
2747.92,1597.99
2749.37,1517.99
2750.83,1542.99
2752.28,1506.74
2753.73,1444.51
2755.19,1422.74
2756.64,1380.19
2758.1,1379.26
2759.55,1385.37
2761.01,1352.98
2762.46,1315.52
2763.91,1326.45
2765.37,1297.25
2766.82,1287.64
2768.28,1267.89
2769.73,1254.66
2771.18,1234.51
2772.64,1214.8
2774.09,1212.99
2775.55,1190.33
2777,1162.13
2778.46,1156.82
2779.91,1155.9
2781.36,1139.35
2782.82,1119.88
2784.27,1111.24
2785.73,1097.9
2787.18,1099.06
2788.64,1103.62
2790.09,1096.08
2791.54,1082.06
2793,1069
2794.45,1048.07
2795.91,1031.96
2797.36,1036.72
2798.82,1027.37
2800.27,1043.4
2801.72,1013.99
2803.18,999.015
2804.63,1008.16
2806.09,1009.18
2807.54,999.187
2808.99,996.672
2810.45,1004.06
2811.9,976.389
2813.36,976.976
2814.81,972.138
2816.27,955.64
2817.72,985.075
2819.17,952.851
2820.63,966.803
2822.08,954.638
2823.54,950.138
2824.99,952.397
2826.45,939.25
2827.9,934.176
2829.35,955.863
2830.81,939.543
2832.26,905.327
2833.72,931.048
2835.17,940.903
2836.62,925.859
2838.08,913.152
2839.53,909.003
2840.99,921.634
2842.44,911.792
2843.9,898.708
2845.35,884.386
2846.8,914.556
2848.26,911.907
2849.71,905.244
2851.17,912.463
2852.62,902.634
2854.08,905.155
2855.53,904.363
2856.98,908.04
2858.44,910.203
2859.89,899.615
2861.35,882.51
2862.8,893.749
2864.25,895.428
2865.71,896.187
2867.16,892.594
2868.62,885.548
2870.07,902.851
2871.53,928.706
2872.98,920.543
2874.43,917.575
2875.89,905.978
2877.34,922.834
2878.8,921.532
2880.25,915.341
2881.71,906.189
2883.16,915.156
2884.61,917.115
2886.07,907.408
2887.52,911.403
2888.98,918.054
2890.43,946.806
2891.89,938.771
2893.34,950.361
2894.79,949.11
2896.25,928.138
2897.7,932.401
2899.16,935.139
2900.61,939.147
2902.06,951.951
2903.52,915.667
2904.97,933.065
2906.43,948.747
2907.88,940.915
2909.34,953.253
2910.79,958.837
2912.24,945.651
2913.7,944.043
2915.15,922.936
2916.61,940.264
2918.06,919.688
2919.52,912.526
2920.97,899.149
2922.42,911.984
2923.88,906.872
2925.33,908.467
2926.79,889.32
2928.24,883.359
2929.69,877.206
2931.15,870.441
2932.6,853.374
2934.06,891.043
2935.51,862.673
2936.97,857.618
2938.42,855.353
2939.87,869.062
2941.33,840.092
2942.78,830.748
2944.24,838.484
2945.69,822.745
2947.15,798.715
2948.6,796.366
2950.05,779.753
2951.51,792.224
2952.96,773.926
2954.42,762.52
2955.87,762.54
2957.32,765.067
2958.78,773.875
2960.23,769.72
2961.69,761.135
2963.14,735.133
2964.6,718.571
2966.05,718.143
2967.5,723.913
2968.96,722.445
2970.41,714.008
2971.87,721.086
2973.32,706.406
2974.78,712.98
2976.23,721.041
2977.68,698.658
2979.14,681.776
2980.59,672.03
2982.05,673.256
2983.5,661.876
2984.96,658.238
2986.41,669.177
2987.86,672.892
2989.32,668.156
2990.77,648.728
2992.23,650.924
2993.68,666.567
2995.13,659.355
2996.59,657.772
2998.04,655.915
2999.5,660.58
3000.95,652.219
3002.41,652.915
3003.86,643.329
3005.31,642.333
3006.77,640.169
3008.22,635.021
3009.68,642.186
3011.13,626.142
3012.59,620.992
3014.04,625.611
3015.49,637.17
3016.95,620.713
3018.4,618.661
3019.86,631.634
3021.31,621.75
3022.76,619.083
3024.22,626.855
3025.67,614.785
3027.13,635.049
3028.58,644.261
3030.04,626.677
3031.49,620.771
3032.94,620.763
3034.4,615.345
3035.85,612.292
3037.31,615.958
3038.76,625.655
3040.22,618.841
3041.67,627.715
3043.12,626.616
3044.58,610.764
3046.03,607.155
3047.49,602.495
3048.94,615.682
3050.4,617.623
3051.85,597.488
3053.3,601.473
3054.76,620.559
3056.21,611.742
3057.67,619.78
3059.12,621.866
3060.57,632.677
3062.03,610.572
3063.48,622.541
3064.94,612.122
3066.39,615.976
3067.85,615.339
3069.3,626.03
3070.75,626.836
3072.21,619.473
3073.66,603.573
3075.12,593.25
3076.57,607.401
3078.03,628.672
3079.48,624.435
3080.93,628.771
3082.39,619.973
3083.84,631.312
3085.3,639.678
3086.75,641.491
3088.2,647.184
3089.66,645.358
3091.11,646.08
3092.57,631.343
3094.02,623.841
3095.48,659.834
3096.93,651.02
3098.38,659.234
3099.84,654.141
3101.29,675.254
3102.75,683.289
3104.2,678.081
3105.66,678.592
3107.11,714.531
3108.56,692.569
3110.02,716.127
3111.47,703.936
3112.93,692.914
3114.38,697.649
3115.83,748.134
3117.29,741.324
3118.74,739.493
3120.2,739.869
3121.65,765.207
3123.11,789.435
3124.56,789.333
3126.01,802.404
3127.47,802.666
3128.92,791.177
3130.38,817.007
3131.83,819.273
3133.29,813.229
3134.74,822.847
3136.19,841.548
3137.65,830.953
3139.1,837.565
3140.56,850.004
3142.01,838.912
3143.47,857.484
3144.92,861.378
3146.37,867.492
3147.83,849.181
3149.28,869.037
3150.74,864.422
3152.19,863.178
3153.64,866.752
3155.1,890.099
3156.55,881.846
3158.01,846.539
3159.46,852.838
3160.92,877.64
3162.37,884.699
3163.82,878.106
3165.28,895.53
3166.73,883.716
3168.19,875.413
3169.64,867.511
3171.1,895.996
3172.55,893.858
3174,893.181
3175.46,882.07
3176.91,882.516
3178.37,899.576
3179.82,910.918
3181.27,925.33
3182.73,932.325
3184.18,948.651
3185.64,922.534
3187.09,940.028
3188.55,962.124
3190,937.15
3191.45,979.223
3192.91,977.219
3194.36,976.81
3195.82,993.889
3197.27,985.114
3198.73,985.522
3200.18,994.477
3201.63,1035.6
3203.09,1029.08
3204.54,1008.81
3206,1021.87
3207.45,1013.98
3208.9,1031.55
3210.36,1014.24
3211.81,1009.36
3213.27,1017.49
3214.72,1003.31
3216.18,998.332
3217.63,994.151
3219.08,967.964
3220.54,947.674
3221.99,937.373
3223.45,924.813
3224.9,908.991
3226.36,884.252
3227.81,881.393
3229.26,861.48
3230.72,828.936
3232.17,820.894
3233.63,780.225
3235.08,772.292
3236.53,757.28
3237.99,741.733
3239.44,744.905
3240.9,715.891
3242.35,686.959
3243.81,697.413
3245.26,667.729
3246.71,671.028
3248.17,626.568
3249.62,625.097
3251.08,619.855
3252.53,617.454
3253.99,610.492
3255.44,602.706
3256.89,585.574
3258.35,580.501
3259.8,570.099
3261.26,561.048
3262.71,549.048
3264.17,559.819
3265.62,553.737
3267.07,549.037
3268.53,547.561
3269.98,537.855
3271.44,528.779
3272.89,532.224
3274.34,534.57
3275.8,543.189
3277.25,532.56
3278.71,529.2
3280.16,512.912
3281.62,505.849
3283.07,513.334
3284.52,511.597
3285.98,528.595
3287.43,527.176
3288.89,500.562
3290.34,491.044
3291.8,499.258
3293.25,494.559
3294.7,501.728
3296.16,503.344
3297.61,510.174
3299.07,506.419
3300.52,484.431
3301.97,496.13
3303.43,493.171
3304.88,492.704
3306.34,498.116
3307.79,502.501
3309.25,510.773
3310.7,509.33
3312.15,499.92
3313.61,505.262
3315.06,496.09
3316.52,500.607
3317.97,498.62
3319.43,490.433
3320.88,491.279
3322.33,485.433
3323.79,502.074
3325.24,497.344
3326.7,497.481
3328.15,489.186
3329.6,487.947
3331.06,489.56
3332.51,487.176
3333.97,487.538
3335.42,469.121
3336.88,485.489
3338.33,489.396
3339.78,485.668
3341.24,481.753
3342.69,486.85
3344.15,491.499
3345.6,488.105
3347.06,487.873
3348.51,486.101
3349.96,493.014
3351.42,483.847
3352.87,483.818
3354.33,485.675
3355.78,489.274
3357.24,488.069
3358.69,473.336
3360.14,477.439
3361.6,479.907
3363.05,475.768
3364.51,484.397
3365.96,490.613
3367.41,490.968
3368.87,481.933
3370.32,473.673
3371.78,479.671
3373.23,477.728
3374.69,466.252
3376.14,481.082
3377.59,482.078
3379.05,458.352
3380.5,471.139
3381.96,481.93
3383.41,477.762
3384.87,475.288
3386.32,468.678
3387.77,469.275
3389.23,468.343
3390.68,476.256
3392.14,473.51
3393.59,474.478
3395.04,486.008
3396.5,486.947
3397.95,471.088
3399.41,464.364
3400.86,474.641
3402.32,469.94
3403.77,475.668
3405.22,460.95
3406.68,478.1
3408.13,472.697
3409.59,486.94
3411.04,480.713
3412.5,481.023
3413.95,484.779
3415.4,463.584
3416.86,478.105
3418.31,466.566
3419.77,468.428
3421.22,467.97
3422.68,470.095
3424.13,478.56
3425.58,470.427
3427.04,487.893
3428.49,476.053
3429.95,458.086
3431.4,461.145
3432.85,470.056
3434.31,455.202
3435.76,471.799
3437.22,465.768
3438.67,453.26
3440.13,470.691
3441.58,461.879
3443.03,469.576
3444.49,457.402
3445.94,465.089
3447.4,453.726
3448.85,465.706
3450.31,464.689
3451.76,477.94
3453.21,447.736
3454.67,461.804
3456.12,465.555
3457.58,452.626
3459.03,473.769
3460.48,465.354
3461.94,470.837
3463.39,455.832
3464.85,469.328
3466.3,465.735
3467.76,455.765
3469.21,456.319
3470.66,449.479
3472.12,443.574
3473.57,451.399
3475.03,456.886
3476.48,462.572
3477.94,469.681
3479.39,466.425
3480.84,468.116
3482.3,469.624
3483.75,451.301
3485.21,466.504
3486.66,448.743
3488.11,466.97
3489.57,476.528
3491.02,466.517
3492.48,459.479
3493.93,467.738
3495.39,478.768
3496.84,476.517
3498.29,466.834
3499.75,462.049
3501.2,455.521
3502.66,457.267
3504.11,459.548
3505.57,451.469
3507.02,478.301
3508.47,456.956
3509.93,479.62
3511.38,455.271
3512.84,464.437
3514.29,456.067
3515.75,449.13
3517.2,451.173
3518.65,476.015
3520.11,466.2
3521.56,448.883
3523.02,470.214
3524.47,467.591
3525.92,457.466
3527.38,456.25
3528.83,450.859
3530.29,460.227
3531.74,460.531
3533.2,465.264
3534.65,455.967
3536.1,450.43
3537.56,467.372
3539.01,463.204
3540.47,465.987
3541.92,461.755
3543.38,455.432
3544.83,452.665
3546.28,457.824
3547.74,450.139
3549.19,455.382
3550.65,459.496
3552.1,454.644
3553.55,460.37
3555.01,469.126
3556.46,456.605
3557.92,459.122
3559.37,461.994
3560.83,447.367
3562.28,450.57
3563.73,455.935
3565.19,447.778
3566.64,438.283
3568.1,452.032
3569.55,463.001
3571.01,456.658
3572.46,462.944
3573.91,456.8
3575.37,460.175
3576.82,453.794
3578.28,444.973
3579.73,456.041
3581.18,458.646
3582.64,458.452
3584.09,451.594
3585.55,453.623
3587,464.372
3588.46,459.451
3589.91,462.002
3591.36,464.048
3592.82,452.477
3594.27,459.701
3595.73,451.34
3597.18,452.921
3598.64,452.655
3600.09,459.427
3601.54,445.2
3603,452.625
3604.45,459.063
3605.91,445.308
3607.36,461.224
3608.82,435.935
3610.27,451.247
3611.72,459.093
3613.18,446.765
3614.63,440.691
3616.09,455.097
3617.54,446.764
3618.99,445.335
3620.45,472.453
3621.9,456.236
3623.36,451.949
3624.81,444.07
3626.27,446.296
3627.72,463.368
3629.17,457.507
3630.63,449.97
3632.08,445.846
3633.54,440.984
3634.99,456.644
3636.45,452.201
3637.9,466.515
3639.35,464.615
3640.81,462.179
3642.26,451.907
3643.72,449.926
3645.17,465.13
3646.62,450.259
3648.08,445.504
3649.53,445.502
3650.99,460.299
3652.44,470.814
3653.9,461.927
3655.35,450.365
3656.8,466.79
3658.26,466.434
3659.71,447.545
3661.17,462.925
3662.62,464.643
3664.08,447.164
3665.53,452.268
3666.98,469.901
3668.44,459.479
3669.89,456.734
3671.35,462.351
3672.8,462.478
3674.25,451.835
3675.71,444.179
3677.16,446.256
3678.62,451.291
3680.07,449.531
3681.53,452.507
3682.98,468.237
3684.43,462.048
3685.89,441.883
3687.34,464.244
3688.8,451.837
3690.25,454.871
3691.71,454.058
3693.16,455.645
3694.61,437.637
3696.07,444.73
3697.52,452.479
3698.98,464.091
3700.43,460.702
3701.89,457.794
3703.34,449.408
3704.79,466.834
3706.25,466.805
3707.7,448.752
3709.16,452.337
3710.61,442.429
3712.06,447.083
3713.52,465.064
3714.97,458.692
3716.43,467.383
3717.88,453.274
3719.34,453.366
3720.79,444.654
3722.24,446.475
3723.7,459.355
3725.15,461.933
3726.61,455.608
3728.06,462.314
3729.52,458.352
3730.97,479.745
3732.42,475.553
3733.88,457.576
3735.33,463.6
3736.79,447.011
3738.24,466.957
3739.69,461.274
3741.15,452.952
3742.6,483.834
3744.06,457.549
3745.51,456.952
3746.97,465.093
3748.42,456.09
3749.87,444.235
3751.33,448.775
3752.78,458.31
3754.24,448.289
3755.69,460.151
3757.15,460.299
3758.6,459.251
3760.05,458.71
3761.51,444.445
3762.96,450.966
3764.42,453.809
3765.87,450.389
3767.32,463.737
3768.78,453.07
3770.23,455.356
3771.69,459.128
3773.14,478.202
3774.6,460.894
3776.05,465.932
3777.5,469.389
3778.96,454.982
3780.41,466.92
3781.87,462.605
3783.32,463.437
3784.78,458.38
3786.23,463.95
3787.68,463.532
3789.14,467.157
3790.59,458.635
3792.05,469.108
3793.5,456.945
3794.96,461.328
3796.41,478.115
3797.86,471.757
3799.32,456.882
3800.77,452.635
3802.23,447.36
3803.68,476.361
3805.13,461.79
3806.59,461.261
3808.04,463.885
3809.5,460.095
3810.95,464.291
3812.41,465.997
3813.86,473.75
3815.31,469.043
3816.77,465.508
3818.22,453.497
3819.68,467.432
3821.13,472.042
3822.59,469.471
3824.04,465.781
3825.49,463.89
3826.95,469.279
3828.4,461.895
3829.86,444.511
3831.31,472.353
3832.76,461.099
3834.22,458.826
3835.67,462.995
3837.13,480.234
3838.58,451.257
3840.04,476.001
3841.49,487.431
3842.94,460.746
3844.4,471.79
3845.85,465.58
3847.31,471.905
3848.76,459.529
3850.22,487.397
3851.67,470.368
3853.12,467.02
3854.58,469.24
3856.03,472.445
3857.49,469.939
3858.94,467.544
3860.4,466.199
3861.85,466.847
3863.3,472.97
3864.76,481.364
3866.21,457.093
3867.67,473.525
3869.12,472.89
3870.57,469.235
3872.03,458.787
3873.48,466.139
3874.94,467.432
3876.39,477.025
3877.85,466.35
3879.3,471.21
3880.75,478.718
3882.21,481.848
3883.66,492.169
3885.12,488.25
3886.57,484.507
3888.03,481.808
3889.48,469.428
3890.93,475.94
3892.39,488.334
3893.84,477.857
3895.3,471.997
3896.75,469.336
3898.2,477.887
3899.66,484.805
3901.11,481.847
3902.57,497.129
3904.02,493.862
3905.48,473.976
3906.93,492.124
3908.38,491.054
3909.84,482.791
3911.29,477.374
3912.75,481.559
3914.2,493.239
3915.66,493.727
3917.11,503.722
3918.56,500.276
3920.02,500.788
3921.47,493.011
3922.93,494.574
3924.38,505.903
3925.83,493.669
3927.29,489.906
3928.74,488.743
3930.2,495.613
3931.65,501.561
3933.11,494.03
3934.56,499.227
3936.01,505.632
3937.47,494.91
3938.92,508.426
3940.38,491.418
3941.83,486.06
3943.29,494.843
3944.74,501.571
3946.19,500.717
3947.65,507.118
3949.1,508.125
3950.56,508.095
3952.01,520.12
3953.47,510.084
3954.92,509.038
3956.37,503.678
3957.83,494.771
3959.28,495.301
3960.74,514.55
3962.19,505.306
3963.64,521.684
3965.1,510.724
3966.55,522.375
3968.01,516.365
3969.46,532.038
3970.92,519.115
3972.37,519.141
3973.82,512.965
3975.28,536.871
3976.73,520.546
3978.19,518.354
3979.64,526.86
3981.1,530.666
3982.55,528.933
3984,530.252
3985.46,526.151
3986.91,519.727
3988.37,529.45
3989.82,538.009
3991.27,540.952
3992.73,550.826
3994.18,552.911
3995.64,535.961
3997.09,529.719
3998.55,537.367
4000,545.865
