-20,55.7889
-18.5482,54.9153
-17.0964,53.5833
-15.6446,55.9211
-14.1928,55.4382
-12.7411,59.3724
-11.2893,64.9906
-9.83749,71.9437
-8.3857,81.2859
-6.93391,99.6844
-5.48212,75.5429
-4.03034,75.5429
-2.57855,75.5429
-1.12676,75.5429
0.325027,75.5429
1.77681,75.5429
3.2286,75.5429
4.68039,75.5429
6.13218,75.5429
7.58397,178.048
9.03575,91.4187
10.4875,78.8719
11.9393,73.6841
13.3911,73.0997
14.8429,73.0849
16.2947,71.9319
17.7465,69.4056
19.1983,67.5894
20.6501,66.8813
22.1018,66.2252
23.5536,60.7884
25.0054,59.7431
26.4572,60.2643
27.909,58.6644
29.3608,55.5048
30.8126,53.4172
32.2644,52.4233
33.7161,50.929
35.1679,50.1878
36.6197,51.7095
38.0715,57.139
39.5233,53.8476
40.9751,55.9705
42.4269,60.382
43.8787,63.773
45.3304,69.4355
46.7822,79.6194
48.234,91.6266
49.6858,117.584
51.1376,178.151
52.5894,277.58
54.0412,436.408
55.493,652.314
56.9447,913.683
58.3965,1196.54
59.8483,1452.68
61.3001,1645.1
62.7519,1807.78
64.2037,1975.69
65.6555,2005.97
67.1073,2075.04
68.559,2152.48
70.0108,2196.58
71.4626,2200.89
72.9144,2244.26
74.3662,2267.74
75.818,2257.57
77.2698,2252.74
78.7216,2302.68
80.1733,2375.58
81.6251,2427.33
83.0769,2476.79
84.5287,2494.85
85.9805,2546.66
87.4323,2540.44
88.8841,2504.51
90.3359,2447.6
91.7877,2368.18
93.2394,2281.07
94.6912,2219.33
96.143,2175
97.5948,2130.42
99.0466,2013.93
100.498,1974.29
101.95,1901.84
103.402,1850.89
104.854,1817.3
106.306,1780.26
107.757,1738.95
109.209,1687.84
110.661,1647.73
112.113,1623.11
113.564,1591.5
115.016,1528.94
116.468,1488.63
117.92,1467.78
119.372,1447.43
120.823,1395.41
122.275,1380.05
123.727,1359.84
125.179,1320.43
126.631,1270.68
128.082,1230.72
129.534,1227.24
130.986,1210.92
132.438,1193.01
133.889,1190.6
135.341,1164.86
136.793,1137.97
138.245,1137.61
139.697,1131.43
141.148,1080.97
142.6,1084.1
144.052,1080.57
145.504,1078.41
146.956,1066
148.407,1020.71
149.859,1044.9
151.311,1010.74
152.763,977.56
154.215,961.136
155.666,961.874
157.118,934.289
158.57,939.359
160.022,938.535
161.473,925.045
162.925,927.021
164.377,907.529
165.829,891.472
167.281,881.679
168.732,869.032
170.184,866.907
171.636,850.391
173.088,852.379
174.54,857.887
175.991,867.365
177.443,848.781
178.895,826.761
180.347,818.454
181.798,813.779
183.25,810.385
184.702,798.657
186.154,796.054
187.606,801.705
189.057,793.6
190.509,768.894
191.961,776.258
193.413,756.07
194.865,733.042
196.316,728.941
197.768,736.109
199.22,727.879
200.672,730.046
202.124,727.108
203.575,737.745
205.027,741.457
206.479,707.584
207.931,724.354
209.382,726.789
210.834,725.427
212.286,721.18
213.738,722.132
215.19,707.891
216.641,715.967
218.093,717.057
219.545,706.513
220.997,704.083
222.449,707.726
223.9,714.539
225.352,712.45
226.804,704.913
228.256,681.174
229.707,685.819
231.159,701.318
232.611,707.722
234.063,712.894
235.515,715.406
236.966,704.93
238.418,696.765
239.87,692.659
241.322,691.986
242.774,685.296
244.225,695.788
245.677,688.851
247.129,684.803
248.581,680.112
250.033,667.257
251.484,660.279
252.936,671.657
254.388,671.218
255.84,669.545
257.291,686.284
258.743,679.242
260.195,651.175
261.647,651.39
263.099,662.979
264.55,649.443
266.002,660.47
267.454,638.332
268.906,646.586
270.358,660.156
271.809,662.347
273.261,648.134
274.713,656.019
276.165,643.524
277.616,625.632
279.068,621.332
280.52,603.356
281.972,612.809
283.424,612.437
284.875,605.774
286.327,605.141
287.779,608.131
289.231,611.785
290.683,612.297
292.134,596.556
293.586,582.348
295.038,589.977
296.49,577.539
297.941,571.465
299.393,563.276
300.845,565.877
302.297,570.239
303.749,556.526
305.2,560.334
306.652,546.696
308.104,535.777
309.556,545.119
311.008,537.162
312.459,544.806
313.911,547.922
315.363,534.659
316.815,518.916
318.267,553.788
319.718,537.413
321.17,535.209
322.622,526.791
324.074,518.565
325.525,523.621
326.977,518.142
328.429,508.679
329.881,507.901
331.333,515.062
332.784,515.133
334.236,509.576
335.688,505.356
337.14,519.114
338.592,522.837
340.043,517.292
341.495,516.39
342.947,512.79
344.399,497.842
345.85,501.186
347.302,513.475
348.754,515.452
350.206,499.464
351.658,503.051
353.109,492.047
354.561,493.388
356.013,520.361
357.465,517.132
358.917,506.589
360.368,506.269
361.82,494.73
363.272,481.768
364.724,494.92
366.176,498.774
367.627,481.205
369.079,484.609
370.531,500.818
371.983,516.586
373.434,516.771
374.886,505.037
376.338,507.742
377.79,510.329
379.242,504.69
380.693,490.061
382.145,501.148
383.597,500.894
385.049,490.4
386.501,486.3
387.952,492.333
389.404,487.305
390.856,487.011
392.308,494.701
393.759,496.749
395.211,493.382
396.663,486.883
398.115,489.91
399.567,491.563
401.018,498.358
402.47,502.947
403.922,493.414
405.374,482.998
406.826,481.876
408.277,496.601
409.729,499.664
411.181,488.818
412.633,504.173
414.085,480.911
415.536,494.717
416.988,497.152
418.44,490.345
419.892,489.5
421.343,491.51
422.795,495.66
424.247,497.019
425.699,495.581
427.151,489.669
428.602,492.728
430.054,481.238
431.506,486.609
432.958,486.777
434.41,482.059
435.861,478.332
437.313,475.534
438.765,473.531
440.217,471.198
441.668,471.208
443.12,470.633
444.572,468.743
446.024,490.566
447.476,460.004
448.927,461.416
450.379,472.536
451.831,468.608
453.283,479.923
454.735,488.19
456.186,471.796
457.638,467.615
459.09,477.439
460.542,481.134
461.993,469.483
463.445,471.921
464.897,480.123
466.349,486.589
467.801,485.013
469.252,470.792
470.704,475.535
472.156,472.656
473.608,478.714
475.06,490.083
476.511,494.94
477.963,473.449
479.415,445.25
480.867,453.642
482.319,465.375
483.77,474.684
485.222,488.333
486.674,467.793
488.126,470.151
489.577,473.623
491.029,471.461
492.481,473.194
493.933,465.745
495.385,452.869
496.836,455.138
498.288,465.398
499.74,471.617
501.192,475.011
502.644,464.626
504.095,466.222
505.547,468.046
506.999,455.07
508.451,448.908
509.902,466.173
511.354,465.586
512.806,452.649
514.258,457.356
515.71,444.73
517.161,442.219
518.613,465.169
520.065,449.312
521.517,452.469
522.969,469.772
524.42,474.751
525.872,464.984
527.324,446.863
528.776,454.347
530.228,437.359
531.679,455.337
533.131,467.589
534.583,465.141
536.035,460.816
537.486,457.941
538.938,455.862
540.39,455.232
541.842,444.363
543.294,440.618
544.745,463.336
546.197,463.377
547.649,465.661
549.101,465.107
550.553,458.621
552.004,457.438
553.456,451.287
554.908,459.688
556.36,453.369
557.811,457.184
559.263,456.213
560.715,456.384
562.167,457.681
563.619,446.22
565.07,428.212
566.522,448.408
567.974,457.874
569.426,448.804
570.878,455.235
572.329,441.558
573.781,445.752
575.233,451.522
576.685,451.35
578.137,452.985
579.588,457.958
581.04,453.098
582.492,452.355
583.944,454.636
585.395,449.003
586.847,440.592
588.299,457.337
589.751,470.647
591.203,459.025
592.654,456.401
594.106,456.324
595.558,459.505
597.01,453.602
598.462,434.536
599.913,464.537
601.365,457.877
602.817,459.301
604.269,464.444
605.72,453.922
607.172,444.94
608.624,461.149
610.076,458.201
611.528,454.547
612.979,458.204
614.431,451.563
615.883,464.707
617.335,462.322
618.787,463.452
620.238,453.75
621.69,450.287
623.142,462.339
624.594,471.543
626.046,462.913
627.497,460.28
628.949,462.391
630.401,459.586
631.853,461.158
633.304,456.633
634.756,470.274
636.208,470.225
637.66,471.225
639.112,466.857
640.563,464.315
642.015,465.415
643.467,470.794
644.919,483.945
646.371,466.858
647.822,458.498
649.274,470.342
650.726,486.556
652.178,478.139
653.629,477.141
655.081,473.897
656.533,472.162
657.985,469.072
659.437,470.56
660.888,489.515
662.34,483.902
663.792,474.926
665.244,472.898
666.696,477.499
668.147,473.734
669.599,493.431
671.051,479.562
672.503,481.003
673.954,483.601
675.406,491.256
676.858,491.454
678.31,496.688
679.762,495.085
681.213,495.008
682.665,501.873
684.117,490.716
685.569,483.272
687.021,490.987
688.472,489.033
689.924,489.69
691.376,495.187
692.828,487.341
694.28,484.685
695.731,487.958
697.183,492.392
698.635,489.914
700.087,483.35
701.538,499.777
702.99,493.682
704.442,482.286
705.894,485.706
707.346,516.74
708.797,496.892
710.249,489.866
711.701,500.691
713.153,491.598
714.605,488.797
716.056,495.505
717.508,496.999
718.96,495.556
720.412,490.456
721.863,480.614
723.315,474.934
724.767,486.723
726.219,509.003
727.671,485.908
729.122,492.578
730.574,488.41
732.026,481.655
733.478,482.575
734.93,486.856
736.381,502.021
737.833,488.395
739.285,491.383
740.737,488.15
742.189,486.429
743.64,476.055
745.092,483.592
746.544,481.057
747.996,461.151
749.447,488.501
750.899,493.473
752.351,493.705
753.803,504.232
755.255,497.867
756.706,493.055
758.158,486.324
759.61,489.621
761.062,489.489
762.514,486.633
763.965,503.724
765.417,502.616
766.869,491.852
768.321,494.121
769.772,488.45
771.224,484.435
772.676,483.224
774.128,496.752
775.58,518.57
777.031,502.889
778.483,490.295
779.935,491.971
781.387,491.98
782.839,482.814
784.29,488.544
785.742,481.213
787.194,503.194
788.646,501.736
790.098,502.125
791.549,494.182
793.001,496.443
794.453,503.116
795.905,491.616
797.356,497.083
798.808,510.693
800.26,517.313
801.712,504.928
803.164,506.501
804.615,500.025
806.067,503.798
807.519,508.154
808.971,520.382
810.423,521.192
811.874,510.083
813.326,509.086
814.778,505.664
816.23,508.031
817.681,508.994
819.133,512.69
820.585,514.304
822.037,508.625
823.489,508.993
824.94,509.391
826.392,529.617
827.844,528.035
829.296,518.594
830.748,509.297
832.199,517.834
833.651,528.253
835.103,522.522
836.555,528.4
838.007,531.591
839.458,526.09
840.91,527.001
842.362,527.232
843.814,534.274
845.265,532.3
846.717,525.806
848.169,520.224
849.621,544.473
851.073,541.83
852.524,539.622
853.976,543.153
855.428,547.59
856.88,543.194
858.332,541.169
859.783,551.497
861.235,556.809
862.687,551.825
864.139,551.106
865.59,560.056
867.042,577.391
868.494,556.302
869.946,540.136
871.398,542.357
872.849,549.195
874.301,550.083
875.753,552.938
877.205,532.244
878.657,532.729
880.108,540.992
881.56,540.665
883.012,541.951
884.464,542.131
885.915,534.883
887.367,529.269
888.819,542.313
890.271,546.511
891.723,544.676
893.174,557.604
894.626,563.952
896.078,551.853
897.53,543.289
898.982,567.254
900.433,553.56
901.885,544.163
903.337,550.782
904.789,564.944
906.241,573.711
907.692,571.374
909.144,561.745
910.596,560.517
912.048,567.164
913.499,568.237
914.951,584.29
916.403,578.31
917.855,578.885
919.307,591.819
920.758,556.097
922.21,558.403
923.662,577.625
925.114,569.714
926.566,573.653
928.017,590.748
929.469,596.722
930.921,594.647
932.373,593.851
933.824,572.808
935.276,593.415
936.728,580.636
938.18,585.495
939.632,585.641
941.083,579.586
942.535,590.278
943.987,577.026
945.439,594.064
946.891,598.791
948.342,597.985
949.794,591.802
951.246,592.393
952.698,583.888
954.15,580.731
955.601,603.265
957.053,602.672
958.505,583.184
959.957,566.062
961.408,577.494
962.86,597.71
964.312,577.507
965.764,578.702
967.216,571.425
968.667,592.086
970.119,586.095
971.571,587.759
973.023,585.524
974.475,580.173
975.926,579.052
977.378,594.105
978.83,595.793
980.282,592.103
981.733,580.404
983.185,571.21
984.637,573.286
986.089,583.994
987.541,601.313
988.992,601.069
990.444,593.531
991.896,587.855
993.348,587.156
994.8,588.291
996.251,584.609
997.703,591.07
999.155,601.36
1000.61,607.208
1002.06,610.85
1003.51,623.482
1004.96,604.349
1006.41,610.479
1007.87,611.217
1009.32,595.897
1010.77,596.029
1012.22,635.178
1013.67,632.619
1015.12,623.278
1016.58,620.504
1018.03,630.143
1019.48,629.363
1020.93,625.088
1022.38,629.045
1023.84,646.794
1025.29,644.419
1026.74,631.253
1028.19,646.642
1029.64,647.166
1031.09,652.59
1032.55,656.852
1034,668.33
1035.45,671.054
1036.9,676.532
1038.35,675.998
1039.8,684.997
1041.26,684.185
1042.71,682.526
1044.16,695.946
1045.61,704.423
1047.06,716.632
1048.52,711.658
1049.97,730.697
1051.42,700.696
1052.87,690.723
1054.32,723.347
1055.77,741.464
1057.23,740.426
1058.68,757.02
1060.13,784.152
1061.58,755.34
1063.03,759.642
1064.49,770.749
1065.94,788.565
1067.39,792.285
1068.84,780.894
1070.29,776.555
1071.74,808.127
1073.2,812.963
1074.65,816.133
1076.1,847.265
1077.55,840.723
1079,826.899
1080.46,841.01
1081.91,844.296
1083.36,834.266
1084.81,821.193
1086.26,820.42
1087.71,843.52
1089.17,854.319
1090.62,838.953
1092.07,829.719
1093.52,823.638
1094.97,831.412
1096.42,819.122
1097.88,813.134
1099.33,817.45
1100.78,822.244
1102.23,817.682
1103.68,819.258
1105.14,813.181
1106.59,797.734
1108.04,795.31
1109.49,801.993
1110.94,782.004
1112.39,797.072
1113.85,777.83
1115.3,781.242
1116.75,784.703
1118.2,791.28
1119.65,793.92
1121.11,766.475
1122.56,757.904
1124.01,768.2
1125.46,750.769
1126.91,767.734
1128.36,754.359
1129.82,748.781
1131.27,751.178
1132.72,746.704
1134.17,746.49
1135.62,743.096
1137.07,743.916
1138.53,738.886
1139.98,712.933
1141.43,723.58
1142.88,741.795
1144.33,743.247
1145.79,739.378
1147.24,736.791
1148.69,746.359
1150.14,723.343
1151.59,744.147
1153.04,737.339
1154.5,737.111
1155.95,754.3
1157.4,740.613
1158.85,714.461
1160.3,733.952
1161.76,711.988
1163.21,703.4
1164.66,696.421
1166.11,728.536
1167.56,740.828
1169.01,738.129
1170.47,740.361
1171.92,731.552
1173.37,718.967
1174.82,749.092
1176.27,757.08
1177.72,739.545
1179.18,758.195
1180.63,753.261
1182.08,763.373
1183.53,758.465
1184.98,753.022
1186.44,752.321
1187.89,753.74
1189.34,763.403
1190.79,755.257
1192.24,756.071
1193.69,772.134
1195.15,756.053
1196.6,763.52
1198.05,767.735
1199.5,757.795
1200.95,760.229
1202.41,766.805
1203.86,783.647
1205.31,759.537
1206.76,789.766
1208.21,781.483
1209.66,768.584
1211.12,766.992
1212.57,777.542
1214.02,778.95
1215.47,767.8
1216.92,767.756
1218.37,782.68
1219.83,772.752
1221.28,788.407
1222.73,790.532
1224.18,799.202
1225.63,802.931
1227.09,797.48
1228.54,793.823
1229.99,792.714
1231.44,840.16
1232.89,801.951
1234.34,806.109
1235.8,812.514
1237.25,814.104
1238.7,821.462
1240.15,828.163
1241.6,837.954
1243.06,840.168
1244.51,841.792
1245.96,855.748
1247.41,839.305
1248.86,875.575
1250.31,858.708
1251.77,848.941
1253.22,855.528
1254.67,872.517
1256.12,892.783
1257.57,900.089
1259.02,885.727
1260.48,895.978
1261.93,910.839
1263.38,876.218
1264.83,899.053
1266.28,928.336
1267.74,958.007
1269.19,963.372
1270.64,962.528
1272.09,968.467
1273.54,977.656
1274.99,1000.25
1276.45,1013.5
1277.9,1037.62
1279.35,1003.75
1280.8,1042.01
1282.25,1069.99
1283.71,1095.35
1285.16,1109.61
1286.61,1108.72
1288.06,1117.8
1289.51,1153.06
1290.96,1191.2
1292.42,1222.22
1293.87,1221.69
1295.32,1290.96
1296.77,1281.21
1298.22,1310.5
1299.67,1374.28
1301.13,1435.41
1302.58,1473.94
1304.03,1528.43
1305.48,1610.71
1306.93,1652.19
1308.39,1716.67
1309.84,1792.05
1311.29,1839.44
1312.74,1918.75
1314.19,2016.34
1315.64,2099.89
1317.1,2164.14
1318.55,2260.23
1320,2364.28
1321.45,2434.79
1322.9,2557.66
1324.36,2632.53
1325.81,2716.11
1327.26,2811.51
1328.71,2855.47
1330.16,2958.91
1331.61,2959.91
1333.07,2951.22
1334.52,2992.92
1335.97,2981.17
1337.42,2929.81
1338.87,2921.98
1340.33,2879.86
1341.78,2822.14
1343.23,2666.42
1344.68,2627.62
1346.13,2529.18
1347.58,2438.47
1349.04,2353.59
1350.49,2252.62
1351.94,2155.59
1353.39,2060.47
1354.84,1978.45
1356.29,1863.6
1357.75,1826.1
1359.2,1802.65
1360.65,1719.15
1362.1,1651.16
1363.55,1594.72
1365.01,1544.53
1366.46,1495.98
1367.91,1453.95
1369.36,1426.87
1370.81,1372.9
1372.26,1344.41
1373.72,1319.97
1375.17,1298.87
1376.62,1277.72
1378.07,1241.41
1379.52,1235.23
1380.98,1221.34
1382.43,1205.15
1383.88,1197.44
1385.33,1169.84
1386.78,1122.34
1388.23,1127.08
1389.69,1135.37
1391.14,1122.7
1392.59,1099.36
1394.04,1125.86
1395.49,1126.38
1396.94,1103.06
1398.4,1089.48
1399.85,1072.72
1401.3,1071.71
1402.75,1076.04
1404.2,1070.79
1405.66,1069.65
1407.11,1095.62
1408.56,1096.28
1410.01,1042.07
1411.46,1078.86
1412.91,1105.8
1414.37,1095.32
1415.82,1084.6
1417.27,1084.23
1418.72,1094.73
1420.17,1107.93
1421.63,1108.34
1423.08,1094.04
1424.53,1109.21
1425.98,1110.69
1427.43,1118.56
1428.88,1106.17
1430.34,1124.71
1431.79,1139.58
1433.24,1159.77
1434.69,1174.62
1436.14,1175.88
1437.59,1166.87
1439.05,1160.79
1440.5,1180.74
1441.95,1181.32
1443.4,1194.13
1444.85,1199.79
1446.31,1207.24
1447.76,1236.23
1449.21,1229.87
1450.66,1229.52
1452.11,1237.26
1453.56,1259.82
1455.02,1271.12
1456.47,1277.75
1457.92,1279.33
1459.37,1277
1460.82,1301.69
1462.28,1317.65
1463.73,1317.04
1465.18,1365.64
1466.63,1380.84
1468.08,1408.06
1469.53,1424.66
1470.99,1443.93
1472.44,1438.21
1473.89,1451.53
1475.34,1489.39
1476.79,1494.81
1478.24,1531.41
1479.7,1528.87
1481.15,1590.83
1482.6,1584.31
1484.05,1625.06
1485.5,1661.96
1486.96,1682.78
1488.41,1716.04
1489.86,1754.38
1491.31,1783.8
1492.76,1845.77
1494.21,1892.14
1495.67,1892.92
1497.12,1926.36
1498.57,1999.58
1500.02,2070.51
1501.47,2092.39
1502.93,2109.89
1504.38,2157.82
1505.83,2218.64
1507.28,2322.65
1508.73,2369.11
1510.18,2450.59
1511.64,2540.74
1513.09,2648.19
1514.54,2759.69
1515.99,2836.85
1517.44,2928.13
1518.89,3136.28
1520.35,3250.33
1521.8,3383.71
1523.25,3597.8
1524.7,3779.67
1526.15,4043.49
1527.61,4294.76
1529.06,4533.8
1530.51,4891.86
1531.96,5236.86
1533.41,5619.28
1534.86,6045.18
1536.32,6497.44
1537.77,7067.67
1539.22,7642.9
1540.67,8409.71
1542.12,9219.79
1543.58,10065.2
1545.03,11085.7
1546.48,12018.5
1547.93,13093.1
1549.38,14103.6
1550.83,15301.2
1552.29,16509.9
1553.74,17764.8
1555.19,18936
1556.64,20105.2
1558.09,21271.7
1559.54,22424
1561,23483.9
1562.45,24458.7
1563.9,25193.6
1565.35,25871.1
1566.8,26315.9
1568.26,26452.1
1569.71,26365.6
1571.16,25670.3
1572.61,24839.5
1574.06,23932.7
1575.51,22795.1
1576.97,21430.4
1578.42,20031.3
1579.87,18579
1581.32,17056.9
1582.77,15661.7
1584.23,14340
1585.68,13089.4
1587.13,11949.9
1588.58,10828.7
1590.03,9890.55
1591.48,8959.34
1592.94,8247.89
1594.39,7624.54
1595.84,7090.32
1597.29,6598.84
1598.74,6110.37
1600.2,5717.68
1601.65,5384.53
1603.1,5089.87
1604.55,4750.5
1606,4499.33
1607.45,4279.32
1608.91,4029.58
1610.36,3814.76
1611.81,3570.16
1613.26,3387.3
1614.71,3213.76
1616.16,3047.78
1617.62,2890.81
1619.07,2796.84
1620.52,2668.91
1621.97,2570.42
1623.42,2482.95
1624.88,2378.47
1626.33,2284.95
1627.78,2225.67
1629.23,2160.65
1630.68,2061.14
1632.13,1992.42
1633.59,1925.62
1635.04,1875.45
1636.49,1800.34
1637.94,1768.91
1639.39,1730.11
1640.85,1732.85
1642.3,1678.81
1643.75,1647.94
1645.2,1590.93
1646.65,1549.3
1648.1,1514.1
1649.56,1486.76
1651.01,1473.67
1652.46,1466.23
1653.91,1429.22
1655.36,1390.43
1656.81,1382.28
1658.27,1390.41
1659.72,1382.03
1661.17,1339.38
1662.62,1312.52
1664.07,1297.98
1665.53,1286.44
1666.98,1219.87
1668.43,1237.16
1669.88,1227.66
1671.33,1176.38
1672.78,1177.6
1674.24,1187.23
1675.69,1180.05
1677.14,1151.27
1678.59,1129.56
1680.04,1144.95
1681.5,1135.78
1682.95,1120.33
1684.4,1109.27
1685.85,1088
1687.3,1090.48
1688.75,1090.06
1690.21,1050.8
1691.66,1068.58
1693.11,1020.2
1694.56,1046.64
1696.01,1013.5
1697.46,1027.6
1698.92,990.89
1700.37,992.372
1701.82,1003.76
1703.27,996.647
1704.72,963.594
1706.18,973.137
1707.63,1002.46
1709.08,988.281
1710.53,973.141
1711.98,974.725
1713.43,961.463
1714.89,965.094
1716.34,955.115
1717.79,984.614
1719.24,970.238
1720.69,957.753
1722.15,962.718
1723.6,955.94
1725.05,972.437
1726.5,973.444
1727.95,970.586
1729.4,953.685
1730.86,950.466
1732.31,945.683
1733.76,931.54
1735.21,949.968
1736.66,962.512
1738.11,946.317
1739.57,935.195
1741.02,941.994
1742.47,946.852
1743.92,926.394
1745.37,903.987
1746.83,913.364
1748.28,943.445
1749.73,936.51
1751.18,935.432
1752.63,897.862
1754.08,928.975
1755.54,917.811
1756.99,883.893
1758.44,896.927
1759.89,889.737
1761.34,869.388
1762.8,882.783
1764.25,869.608
1765.7,863.225
1767.15,859.4
1768.6,846.822
1770.05,833.836
1771.51,826.698
1772.96,834.992
1774.41,834.392
1775.86,829.227
1777.31,832.698
1778.76,822.586
1780.22,820.949
1781.67,808.183
1783.12,807.722
1784.57,816.659
1786.02,812.181
1787.48,822.734
1788.93,815.42
1790.38,790.228
1791.83,784.983
1793.28,809.657
1794.73,782.087
1796.19,796.675
1797.64,784.824
1799.09,804.689
1800.54,784.552
1801.99,788.204
1803.45,781.814
1804.9,770.632
1806.35,767.243
1807.8,771.794
1809.25,777.962
1810.7,770.703
1812.16,774.525
1813.61,772.95
1815.06,753.447
1816.51,753.821
1817.96,759.762
1819.41,753.491
1820.87,749.481
1822.32,759.044
1823.77,766.205
1825.22,750.734
1826.67,743.439
1828.13,778.399
1829.58,772.12
1831.03,773.109
1832.48,769.582
1833.93,768.687
1835.38,772.636
1836.84,777.168
1838.29,770.377
1839.74,764.9
1841.19,799.392
1842.64,780.526
1844.1,768.97
1845.55,778.346
1847,784.642
1848.45,797.162
1849.9,792.085
1851.35,794.586
1852.81,791.386
1854.26,795.314
1855.71,786.961
1857.16,787.834
1858.61,815.525
1860.07,791.079
1861.52,804.105
1862.97,816.331
1864.42,804.192
1865.87,805.061
1867.32,814.866
1868.78,805.169
1870.23,802.277
1871.68,781.979
1873.13,808.679
1874.58,793.33
1876.03,803.828
1877.49,806.894
1878.94,769.882
1880.39,770.873
1881.84,758.087
1883.29,768.119
1884.75,781.218
1886.2,747.417
1887.65,722.442
1889.1,743.935
1890.55,758.898
1892,751.542
1893.46,739.681
1894.91,731.174
1896.36,735.262
1897.81,743.875
1899.26,733.889
1900.72,714.919
1902.17,717.749
1903.62,727.385
1905.07,735.987
1906.52,725.883
1907.97,711.591
1909.43,715.705
1910.88,717.386
1912.33,711.897
1913.78,704.753
1915.23,686.88
1916.68,693.188
1918.14,690.119
1919.59,684.256
1921.04,680.192
1922.49,700.352
1923.94,692.312
1925.4,676.264
1926.85,703.531
1928.3,695.327
1929.75,677.647
1931.2,704.188
1932.65,698.811
1934.11,674.887
1935.56,701.673
1937.01,678.849
1938.46,692.387
1939.91,702.642
1941.37,699.47
1942.82,692.205
1944.27,701.739
1945.72,699.658
1947.17,707.053
1948.62,703.155
1950.08,714.799
1951.53,701.77
1952.98,699.635
1954.43,710.532
1955.88,710.558
1957.33,703.638
1958.79,705.223
1960.24,711.441
1961.69,708.802
1963.14,707.992
1964.59,704.803
1966.05,705.303
1967.5,717.738
1968.95,724.096
1970.4,719.767
1971.85,720.202
1973.3,717.677
1974.76,719.956
1976.21,725.074
1977.66,742.905
1979.11,734.645
1980.56,731.609
1982.02,729.509
1983.47,719.027
1984.92,717.554
1986.37,734.916
1987.82,756.66
1989.27,744.096
1990.73,719.048
1992.18,729.318
1993.63,739.135
1995.08,743.094
1996.53,741.297
1997.98,744.249
1999.44,723.427
2000.89,702.865
2002.34,704.409
2003.79,696.275
2005.24,728.747
2006.7,717.524
2008.15,737.134
2009.6,710.762
2011.05,697.205
2012.5,716.163
2013.95,720.34
2015.41,716.195
2016.86,700.762
2018.31,699.347
2019.76,711.849
2021.21,689.304
2022.67,696.239
2024.12,700.827
2025.57,671.63
2027.02,670.299
2028.47,692.833
2029.92,688.14
2031.38,690.792
2032.83,688.982
2034.28,657.722
2035.73,671.709
2037.18,665.395
2038.63,665.463
2040.09,639.453
2041.54,650.573
2042.99,657.011
2044.44,652.016
2045.89,645.461
2047.35,653.625
2048.8,642.725
2050.25,651.911
2051.7,653.418
2053.15,635.642
2054.6,630.7
2056.06,636.856
2057.51,636.165
2058.96,622.463
2060.41,621.206
2061.86,616.61
2063.32,630.079
2064.77,626.551
2066.22,621.483
2067.67,620.461
2069.12,613.752
2070.57,627.007
2072.03,624.749
2073.48,629.484
2074.93,640.079
2076.38,629.592
2077.83,610.138
2079.28,612.93
2080.74,620.233
2082.19,619.918
2083.64,621.761
2085.09,625.301
2086.54,612.432
2088,608.51
2089.45,618.547
2090.9,610.878
2092.35,611.474
2093.8,596.281
2095.25,594.768
2096.71,600.332
2098.16,598.132
2099.61,597.433
2101.06,604.147
2102.51,594.478
2103.97,601.335
2105.42,605.035
2106.87,585.377
2108.32,588.418
2109.77,590.391
2111.22,593.356
2112.68,611.363
2114.13,614.488
2115.58,600.349
2117.03,609.598
2118.48,609.491
2119.94,612.419
2121.39,613.228
2122.84,613.255
2124.29,621.74
2125.74,622.393
2127.19,612.399
2128.65,605.802
2130.1,610.926
2131.55,623.562
2133,631.118
2134.45,621.71
2135.9,644.262
2137.36,633.129
2138.81,610.983
2140.26,616.683
2141.71,621.979
2143.16,612.132
2144.62,612.942
2146.07,622.088
2147.52,628.442
2148.97,634.471
2150.42,631.846
2151.87,625.008
2153.33,629.523
2154.78,620.753
2156.23,631.376
2157.68,642.733
2159.13,629.797
2160.58,642.456
2162.04,647.643
2163.49,653.733
2164.94,635.669
2166.39,630.757
2167.84,645.027
2169.3,654.772
2170.75,653.535
2172.2,659.156
2173.65,660.577
2175.1,651.297
2176.55,654.651
2178.01,652.138
2179.46,663.038
2180.91,652.319
2182.36,667.52
2183.81,665.433
2185.27,652.407
2186.72,654.016
2188.17,651.051
2189.62,655.747
2191.07,663.773
2192.52,681.765
2193.98,662.756
2195.43,677.581
2196.88,680.794
2198.33,658.577
2199.78,665.258
2201.24,662.033
2202.69,686.454
2204.14,674.777
2205.59,635.771
2207.04,655.738
2208.49,676.339
2209.95,679.828
2211.4,678.625
2212.85,677.369
2214.3,681.87
2215.75,678.675
2217.2,667.353
2218.66,683.234
2220.11,661.268
2221.56,703.35
2223.01,678.02
2224.46,672.793
2225.92,660.062
2227.37,687.504
2228.82,677.711
2230.27,692.95
2231.72,685.955
2233.17,687.343
2234.63,691.377
2236.08,675.686
2237.53,688.789
2238.98,687.992
2240.43,666.265
2241.89,680.469
2243.34,691.027
2244.79,686.005
2246.24,685.454
2247.69,685.864
2249.14,693.19
2250.6,705.928
2252.05,705.865
2253.5,705.949
2254.95,714.406
2256.4,706.681
2257.85,706.82
2259.31,707.786
2260.76,717.886
2262.21,710.873
2263.66,717.534
2265.11,708.302
2266.57,700.063
2268.02,692.914
2269.47,711.831
2270.92,713.761
2272.37,733.049
2273.82,727.911
2275.28,725.469
2276.73,716.281
2278.18,719.289
2279.63,751.605
2281.08,746.227
2282.54,707.103
2283.99,727.666
2285.44,730.904
2286.89,729.673
2288.34,734.614
2289.79,754.749
2291.25,746.237
2292.7,754.566
2294.15,742.096
2295.6,741.227
2297.05,742.759
2298.5,768.936
2299.96,740.263
2301.41,749.526
2302.86,762.083
2304.31,762.878
2305.76,775.545
2307.22,784.116
2308.67,791.741
2310.12,769.029
2311.57,765.415
2313.02,779.803
2314.47,775.695
2315.93,826.507
2317.38,817.378
2318.83,805.586
2320.28,785.479
2321.73,804.313
2323.19,811.633
2324.64,808.631
2326.09,805.958
2327.54,811.569
2328.99,816.442
2330.44,798.167
2331.9,801.22
2333.35,817.969
2334.8,818.223
2336.25,823.732
2337.7,830.098
2339.16,814.446
2340.61,817.088
2342.06,837.289
2343.51,858.898
2344.96,872.467
2346.41,865.356
2347.87,858.633
2349.32,848.732
2350.77,853.966
2352.22,844.528
2353.67,858.755
2355.12,877.887
2356.58,896.286
2358.03,876.406
2359.48,895.58
2360.93,894.166
2362.38,905.305
2363.84,930.429
2365.29,949.402
2366.74,940.306
2368.19,933.547
2369.64,955.342
2371.09,957.227
2372.55,957.906
2374,956.936
2375.45,965.459
2376.9,988.056
2378.35,1006.91
2379.8,1019.81
2381.26,1043.3
2382.71,1049.24
2384.16,1042.15
2385.61,1054.88
2387.06,1081.92
2388.52,1088.18
2389.97,1120.85
2391.42,1150.59
2392.87,1137.82
2394.32,1169.05
2395.77,1173.51
2397.23,1199.5
2398.68,1208.73
2400.13,1230.81
2401.58,1300.71
2403.03,1296.3
2404.49,1318.42
2405.94,1362.96
2407.39,1364.86
2408.84,1412.73
2410.29,1414.04
2411.74,1432.04
2413.2,1459.89
2414.65,1458.45
2416.1,1490.31
2417.55,1528.97
2419,1563.15
2420.46,1589.3
2421.91,1590.37
2423.36,1578.33
2424.81,1582.94
2426.26,1586.48
2427.71,1618.86
2429.17,1634.62
2430.62,1619.84
2432.07,1659.16
2433.52,1640.04
2434.97,1676.56
2436.42,1632.76
2437.88,1662
2439.33,1641.27
2440.78,1604.17
2442.23,1624.29
2443.68,1626.33
2445.14,1628.39
2446.59,1596.88
2448.04,1575.83
2449.49,1567.15
2450.94,1549.29
2452.39,1542.21
2453.85,1550.62
2455.3,1540.68
2456.75,1539.92
2458.2,1503.19
2459.65,1507.01
2461.1,1496.46
2462.56,1502.57
2464.01,1469.26
2465.46,1482.31
2466.91,1449.28
2468.36,1446.1
2469.82,1417.72
2471.27,1451.02
2472.72,1436.93
2474.17,1425.4
2475.62,1433.7
2477.07,1407.19
2478.53,1412.52
2479.98,1405.22
2481.43,1410.15
2482.88,1420.05
2484.33,1420.7
2485.79,1409.81
2487.24,1394.49
2488.69,1438.64
2490.14,1422.45
2491.59,1433.37
2493.04,1406.76
2494.5,1406.34
2495.95,1412.9
2497.4,1409.14
2498.85,1417.92
2500.3,1423.68
2501.76,1436.47
2503.21,1414.38
2504.66,1456.9
2506.11,1423.69
2507.56,1473.42
2509.01,1479.28
2510.47,1468.33
2511.92,1468.76
2513.37,1459.45
2514.82,1460.01
2516.27,1472.89
2517.72,1484.94
2519.18,1514.66
2520.63,1528.51
2522.08,1560.94
2523.53,1534.02
2524.98,1568.32
2526.44,1564.85
2527.89,1578.31
2529.34,1568.4
2530.79,1590.13
2532.24,1630.18
2533.69,1638.42
2535.15,1631.76
2536.6,1679.08
2538.05,1687.56
2539.5,1715.48
2540.95,1694.2
2542.41,1723.34
2543.86,1777.8
2545.31,1814.25
2546.76,1798.99
2548.21,1824.74
2549.66,1864.09
2551.12,1894.49
2552.57,1947.92
2554.02,1967.19
2555.47,1967.79
2556.92,2003.59
2558.37,2035.68
2559.83,2094.96
2561.28,2094.53
2562.73,2106.96
2564.18,2164.12
2565.63,2226.17
2567.09,2241.04
2568.54,2310.09
2569.99,2354.01
2571.44,2417.81
2572.89,2456.35
2574.34,2503.6
2575.8,2598.97
2577.25,2578.57
2578.7,2655.6
2580.15,2746.53
2581.6,2788.31
2583.06,2854.56
2584.51,2984.01
2585.96,3012.52
2587.41,3117.59
2588.86,3199.04
2590.31,3291.18
2591.77,3450.14
2593.22,3505.12
2594.67,3590.15
2596.12,3727.29
2597.57,3839.99
2599.02,3999.7
2600.48,4118.16
2601.93,4186.23
2603.38,4359.28
2604.83,4493.21
2606.28,4636.23
2607.74,4869.31
2609.19,5029.93
2610.64,5199.9
2612.09,5384.8
2613.54,5545.68
2614.99,5806.17
2616.45,6071.57
2617.9,6314.86
2619.35,6511.54
2620.8,6775.25
2622.25,7065.28
2623.71,7352.45
2625.16,7716.17
2626.61,7981.97
2628.06,8278.4
2629.51,8612.41
2630.96,8885.94
2632.42,9249.58
2633.87,9642.59
2635.32,9864.57
2636.77,10266.4
2638.22,10634.8
2639.68,10916.8
2641.13,11234.1
2642.58,11567.9
2644.03,11848.1
2645.48,12156.1
2646.93,12465.6
2648.39,12798.5
2649.84,12849.4
2651.29,12948.4
2652.74,13266.7
2654.19,13506.7
2655.64,13509.5
2657.1,13705.2
2658.55,13750
2660,13763.6
2661.45,13711.8
2662.9,13626
2664.36,13514.4
2665.81,13433.9
2667.26,13286.4
2668.71,13137.4
2670.16,12991
2671.61,12671.1
2673.07,12411.2
2674.52,12125.2
2675.97,11859.1
2677.42,11493.6
2678.87,11171.4
2680.32,10809.4
2681.78,10472.1
2683.23,10116.6
2684.68,9781.58
2686.13,9429.54
2687.58,9028.63
2689.04,8725.58
2690.49,8470.54
2691.94,8127.49
2693.39,7760.23
2694.84,7461.25
2696.29,7102.99
2697.75,6795.05
2699.2,6542.88
2700.65,6242.87
2702.1,5998.98
2703.55,5710.28
2705.01,5434.46
2706.46,5273.81
2707.91,5076.76
2709.36,4860.2
2710.81,4637.92
2712.26,4461.4
2713.72,4240.33
2715.17,4093.13
2716.62,3898.41
2718.07,3783.12
2719.52,3676.96
2720.98,3547.88
2722.43,3392.31
2723.88,3282.16
2725.33,3171.69
2726.78,3012.73
2728.23,2991.32
2729.69,2882.01
2731.14,2795.68
2732.59,2661.58
2734.04,2584.9
2735.49,2521.5
2736.94,2475.23
2738.4,2387.44
2739.85,2340.85
2741.3,2242.2
2742.75,2237.05
2744.2,2208.92
2745.66,2098.92
2747.11,2077.38
2748.56,2041.06
2750.01,2004.04
2751.46,1974.95
2752.91,1922.77
2754.37,1885.4
2755.82,1857.27
2757.27,1819.9
2758.72,1802.21
2760.17,1764.57
2761.63,1709.91
2763.08,1693.22
2764.53,1683.74
2765.98,1663.63
2767.43,1613.1
2768.88,1628.37
2770.34,1615.75
2771.79,1566.9
2773.24,1541.5
2774.69,1538.06
2776.14,1500.06
2777.59,1494.22
2779.05,1466.45
2780.5,1482.11
2781.95,1399.2
2783.4,1403.92
2784.85,1392.85
2786.31,1377.53
2787.76,1367.97
2789.21,1375.03
2790.66,1371.13
2792.11,1357.49
2793.56,1324.21
2795.02,1274.1
2796.47,1304.61
2797.92,1291.83
2799.37,1267.93
2800.82,1283.75
2802.28,1281.13
2803.73,1260.8
2805.18,1234.92
2806.63,1226.49
2808.08,1228.05
2809.53,1216.72
2810.99,1235.36
2812.44,1207.03
2813.89,1214.7
2815.34,1183.74
2816.79,1184.86
2818.24,1170.48
2819.7,1165.69
2821.15,1169.86
2822.6,1141.32
2824.05,1129.96
2825.5,1140.15
2826.96,1118.69
2828.41,1121.34
2829.86,1107.81
2831.31,1118.05
2832.76,1107.19
2834.21,1107.79
2835.67,1105.99
2837.12,1099.5
2838.57,1089.56
2840.02,1091.64
2841.47,1095.93
2842.93,1079.68
2844.38,1099.52
2845.83,1099.54
2847.28,1107.77
2848.73,1072.15
2850.18,1071.58
2851.64,1071.44
2853.09,1057.8
2854.54,1071.35
2855.99,1079.86
2857.44,1039.42
2858.9,1051.25
2860.35,1055.62
2861.8,1078.16
2863.25,1069.52
2864.7,1073.04
2866.15,1075.49
2867.61,1072.41
2869.06,1083.46
2870.51,1067.58
2871.96,1096.81
2873.41,1056.1
2874.86,1094.32
2876.32,1063.08
2877.77,1073.87
2879.22,1070.22
2880.67,1068.4
2882.12,1081.8
2883.58,1082.64
2885.03,1095.43
2886.48,1111.6
2887.93,1083.22
2889.38,1098.67
2890.83,1095.32
2892.29,1089.19
2893.74,1096.66
2895.19,1083
2896.64,1089.19
2898.09,1111.44
2899.54,1083.07
2901,1099.35
2902.45,1078.18
2903.9,1070.26
2905.35,1054.61
2906.8,1058.79
2908.26,1089.3
2909.71,1094.13
2911.16,1069.7
2912.61,1074.61
2914.06,1057.82
2915.51,1074.02
2916.97,1064.62
2918.42,1030.25
2919.87,1047.39
2921.32,1048.44
2922.77,1023.08
2924.23,1021.89
2925.68,1023.81
2927.13,1013.28
2928.58,1019.61
2930.03,1009.67
2931.48,992.776
2932.94,998.781
2934.39,981.93
2935.84,976.482
2937.29,960.013
2938.74,956.594
2940.2,970.661
2941.65,932.119
2943.1,911.588
2944.55,922.308
2946,927.795
2947.45,891.975
2948.91,887.165
2950.36,881.306
2951.81,881.443
2953.26,877.052
2954.71,862.309
2956.16,842.864
2957.62,855.686
2959.07,853.973
2960.52,839.146
2961.97,816.235
2963.42,800.642
2964.88,810.811
2966.33,828.691
2967.78,816.286
2969.23,823.097
2970.68,805.212
2972.13,802.414
2973.59,774.498
2975.04,771.301
2976.49,769.614
2977.94,798.719
2979.39,781.231
2980.84,763.817
2982.3,770.078
2983.75,742.132
2985.2,747.766
2986.65,760.767
2988.1,751.526
2989.56,760.729
2991.01,761.488
2992.46,718.483
2993.91,737.928
2995.36,705.562
2996.81,718.43
2998.27,731.932
2999.72,725.408
3001.17,727.018
3002.62,725.465
3004.07,736.067
3005.53,720.797
3006.98,735.402
3008.43,726.953
3009.88,725.728
3011.33,694.867
3012.78,698.542
3014.24,682.838
3015.69,684.662
3017.14,700.032
3018.59,711.281
3020.04,695.977
3021.5,684.425
3022.95,705.31
3024.4,710.166
3025.85,688.593
3027.3,706.095
3028.75,696.421
3030.21,689.845
3031.66,695.879
3033.11,700.728
3034.56,695.781
3036.01,704.401
3037.46,694.243
3038.92,720.199
3040.37,717.362
3041.82,716.349
3043.27,692.93
3044.72,702.054
3046.18,699.354
3047.63,691.189
3049.08,678.833
3050.53,701.985
3051.98,714.345
3053.43,689.452
3054.89,686.49
3056.34,702.46
3057.79,701.699
3059.24,713.086
3060.69,705.361
3062.15,728.412
3063.6,705.098
3065.05,716.896
3066.5,713.251
3067.95,710.487
3069.4,710.058
3070.86,721.586
3072.31,738.88
3073.76,724.268
3075.21,716.748
3076.66,717.849
3078.11,732.898
3079.57,737.722
3081.02,730.594
3082.47,737.663
3083.92,743.422
3085.37,757.019
3086.83,766.778
3088.28,779.277
3089.73,785.374
3091.18,777.46
3092.63,767.914
3094.08,784.594
3095.54,810.922
3096.99,827.231
3098.44,813.705
3099.89,833.212
3101.34,834.078
3102.8,866.103
3104.25,883.174
3105.7,858.731
3107.15,873.837
3108.6,866.927
3110.05,930.426
3111.51,923.728
3112.96,924.84
3114.41,947.952
3115.86,970.427
3117.31,971.619
3118.76,999.018
3120.22,1005.19
3121.67,1035.62
3123.12,1059.55
3124.57,1052.25
3126.02,1073.39
3127.48,1076.92
3128.93,1104.35
3130.38,1135.48
3131.83,1172.71
3133.28,1143.68
3134.73,1145.32
3136.19,1172.54
3137.64,1202.13
3139.09,1203.97
3140.54,1257.39
3141.99,1221.62
3143.45,1227.8
3144.9,1249.26
3146.35,1248.47
3147.8,1227.91
3149.25,1229.04
3150.7,1252.42
3152.16,1265.42
3153.61,1283.61
3155.06,1279.94
3156.51,1272.1
3157.96,1290.38
3159.42,1294.1
3160.87,1254.57
3162.32,1270.5
3163.77,1309.82
3165.22,1286.11
3166.67,1301.62
3168.13,1305.45
3169.58,1280.26
3171.03,1308.81
3172.48,1312.45
3173.93,1294.25
3175.38,1300.77
3176.84,1288.16
3178.29,1303.1
3179.74,1336.13
3181.19,1347.65
3182.64,1380.88
3184.1,1357
3185.55,1365.62
3187,1379.34
3188.45,1406.39
3189.9,1431.06
3191.35,1396.22
3192.81,1445.2
3194.26,1468.56
3195.71,1470.79
3197.16,1471.38
3198.61,1506.28
3200.06,1496.35
3201.52,1451.71
3202.97,1522.59
3204.42,1512.34
3205.87,1511.08
3207.32,1511.78
3208.78,1489.65
3210.23,1479.36
3211.68,1459.79
3213.13,1462.83
3214.58,1415.45
3216.03,1402.83
3217.49,1377.45
3218.94,1363.32
3220.39,1339.8
3221.84,1289.19
3223.29,1256.7
3224.75,1236.69
3226.2,1194.47
3227.65,1169.09
3229.1,1174.34
3230.55,1067.53
3232,1089.9
3233.46,1030.04
3234.91,1012.19
3236.36,979.494
3237.81,959.895
3239.26,930.909
3240.72,908.832
3242.17,858.438
3243.62,835.829
3245.07,827.083
3246.52,819.023
3247.97,822.711
3249.43,798.088
3250.88,785.441
3252.33,749.021
3253.78,746.644
3255.23,729.587
3256.68,706.492
3258.14,718.572
3259.59,713.407
3261.04,680.673
3262.49,677.146
3263.94,675.589
3265.4,683.857
3266.85,671.786
3268.3,649.076
3269.75,643.155
3271.2,653.339
3272.65,641.94
3274.11,630.073
3275.56,615.101
3277.01,607.798
3278.46,616.173
3279.91,615.615
3281.37,617.148
3282.82,628.366
3284.27,642.377
3285.72,605.934
3287.17,623.543
3288.62,616.121
3290.08,613.315
3291.53,605.518
3292.98,590.211
3294.43,595.607
3295.88,587.658
3297.33,572.566
3298.79,594.664
3300.24,586.254
3301.69,590.298
3303.14,590.915
3304.59,592.149
3306.05,586.293
3307.5,578.535
3308.95,582.736
3310.4,575.572
3311.85,581.065
3313.3,582.767
3314.76,579.674
3316.21,573.758
3317.66,580.031
3319.11,565.636
3320.56,584.104
3322.02,587.587
3323.47,584.378
3324.92,587.037
3326.37,590.022
3327.82,579.636
3329.27,551.731
3330.73,575.701
3332.18,558.707
3333.63,571.193
3335.08,589.813
3336.53,552.611
3337.98,569.811
3339.44,568.333
3340.89,574.975
3342.34,581.536
3343.79,574.737
3345.24,580.854
3346.7,582.521
3348.15,584.404
3349.6,557.952
3351.05,545.492
3352.5,558.167
3353.95,561.688
3355.41,570.62
3356.86,554.794
3358.31,581.264
3359.76,578.019
3361.21,581.806
3362.67,547.613
3364.12,542.559
3365.57,573.325
3367.02,555.49
3368.47,558.204
3369.92,565.676
3371.38,547.114
3372.83,558.685
3374.28,555.794
3375.73,568.469
3377.18,565.954
3378.63,575.484
3380.09,594.299
3381.54,560.246
3382.99,558.887
3384.44,568.122
3385.89,560.553
3387.35,553.763
3388.8,563.986
3390.25,560.362
3391.7,547.185
3393.15,565.013
3394.6,566.84
3396.06,555.657
3397.51,569.27
3398.96,550.508
3400.41,557.156
3401.86,551.867
3403.32,559.027
3404.77,562.985
3406.22,553.959
3407.67,556.268
3409.12,558.426
3410.57,549.6
3412.03,542.247
3413.48,538.622
3414.93,557.731
3416.38,550.697
3417.83,555.038
3419.28,549.14
3420.74,568.7
3422.19,543.271
3423.64,548.25
3425.09,546.691
3426.54,568.467
3428,572.87
3429.45,561.701
3430.9,527.541
3432.35,539.324
3433.8,531.411
3435.25,551.906
3436.71,543.038
3438.16,555.298
3439.61,541.56
3441.06,553.887
3442.51,552.493
3443.97,560.678
3445.42,536.943
3446.87,547.177
3448.32,541.053
3449.77,550.866
3451.22,542.982
3452.68,558.443
3454.13,548.344
3455.58,566.507
3457.03,552.109
3458.48,534.114
3459.94,554.574
3461.39,535.567
3462.84,552.288
3464.29,539.772
3465.74,540.684
3467.19,542.086
3468.65,538.728
3470.1,553.867
3471.55,561.596
3473,557.4
3474.45,548.124
3475.9,566.121
3477.36,546.504
3478.81,548.394
3480.26,541.68
3481.71,543.56
3483.16,551.307
3484.62,552.763
3486.07,537.903
3487.52,553.094
3488.97,542.352
3490.42,550.523
3491.87,550.247
3493.33,551.112
3494.78,555.004
3496.23,569.528
3497.68,554.73
3499.13,544.601
3500.58,532.843
3502.04,547.885
3503.49,567.378
3504.94,551.268
3506.39,565.83
3507.84,573.173
3509.3,554.395
3510.75,541.973
3512.2,560.327
3513.65,554.455
3515.1,545.247
3516.55,537.596
3518.01,538.34
3519.46,552.178
3520.91,541.869
3522.36,547.364
3523.81,558.385
3525.27,569.901
3526.72,551.398
3528.17,558.33
3529.62,555.133
3531.07,543.024
3532.52,567.192
3533.98,547.382
3535.43,552.237
3536.88,534.836
3538.33,541.606
3539.78,537.775
3541.24,544.433
3542.69,543.336
3544.14,535.348
3545.59,542.624
3547.04,560.247
3548.49,558.8
3549.95,542.721
3551.4,559.291
3552.85,542.978
3554.3,553.309
3555.75,538.625
3557.2,564.746
3558.66,547.48
3560.11,560.874
3561.56,542.605
3563.01,531.835
3564.46,543.884
3565.92,544.403
3567.37,548.783
3568.82,552.245
3570.27,538.635
3571.72,550.657
3573.17,543.593
3574.63,550.386
3576.08,525.702
3577.53,558.297
3578.98,546.711
3580.43,538.732
3581.89,548.446
3583.34,553.359
3584.79,545.465
3586.24,546.134
3587.69,543.529
3589.14,549.561
3590.6,534.576
3592.05,532.401
3593.5,535.04
3594.95,545.396
3596.4,530.248
3597.85,546.028
3599.31,534.206
3600.76,551.972
3602.21,535.356
3603.66,554.642
3605.11,548.852
3606.57,551.255
3608.02,551.713
3609.47,544.415
3610.92,530.349
3612.37,548.154
3613.82,549.355
3615.28,540.677
3616.73,555.52
3618.18,557.431
3619.63,542.507
3621.08,529.12
3622.54,553.028
3623.99,541.257
3625.44,550.134
3626.89,529.434
3628.34,534.896
3629.79,526.985
3631.25,560.504
3632.7,543.577
3634.15,548.736
3635.6,546.232
3637.05,555.289
3638.5,535.628
3639.96,534.946
3641.41,534.797
3642.86,549.568
3644.31,531.966
3645.76,552.395
3647.22,531.172
3648.67,554.747
3650.12,555.349
3651.57,522.714
3653.02,553.966
3654.47,545.301
3655.93,547.293
3657.38,547.2
3658.83,542.922
3660.28,539.805
3661.73,549.783
3663.19,536.053
3664.64,558.605
3666.09,542.594
3667.54,555.321
3668.99,559.253
3670.44,547.792
3671.9,546.77
3673.35,540.51
3674.8,537.971
3676.25,513.105
3677.7,533.771
3679.16,548.472
3680.61,571.752
3682.06,560.004
3683.51,546.265
3684.96,589.777
3686.41,544.362
3687.87,565.682
3689.32,550.856
3690.77,560.688
3692.22,556.714
3693.67,554.166
3695.12,550.068
3696.58,545.2
3698.03,558.25
3699.48,537.715
3700.93,555.62
3702.38,555.736
3703.84,569.244
3705.29,571.907
3706.74,541.975
3708.19,551.071
3709.64,543.343
3711.09,560.004
3712.55,546.271
3714,557.841
3715.45,563.033
3716.9,557.721
3718.35,558.745
3719.8,534.006
3721.26,545.978
3722.71,559.735
3724.16,570.663
3725.61,555.934
3727.06,548.175
3728.52,577.074
3729.97,567.856
3731.42,575.427
3732.87,571.614
3734.32,577.364
3735.77,540.097
3737.23,566.573
3738.68,566.329
3740.13,562.38
3741.58,581.44
3743.03,555.922
3744.49,551.647
3745.94,555.116
3747.39,572
3748.84,580.031
3750.29,561.366
3751.74,563.717
3753.2,549.055
3754.65,576.122
3756.1,561.259
3757.55,558.953
3759,571.125
3760.46,560.648
3761.91,569.176
3763.36,580.888
3764.81,552.231
3766.26,553.253
3767.71,577.846
3769.17,566.667
3770.62,561.01
3772.07,565.216
3773.52,555.845
3774.97,575.559
3776.42,563.163
3777.88,569.618
3779.33,576.589
3780.78,572.466
3782.23,576.11
3783.68,578.406
3785.14,569.109
3786.59,573.116
3788.04,564.171
3789.49,579.698
3790.94,568.61
3792.39,564.843
3793.85,581.904
3795.3,581.858
3796.75,580.571
3798.2,591.861
3799.65,580.823
3801.1,592.495
3802.56,585.668
3804.01,578.374
3805.46,579.503
3806.91,590.613
3808.36,576.489
3809.82,589.735
3811.27,589.042
3812.72,568.732
3814.17,587.034
3815.62,580.859
3817.07,586.726
3818.53,577.539
3819.98,593.36
3821.43,574.804
3822.88,575.008
3824.33,586.262
3825.79,585.243
3827.24,591.644
3828.69,592.672
3830.14,571.092
3831.59,593.861
3833.04,590.817
3834.5,571.259
3835.95,569.183
3837.4,592.788
3838.85,603.747
3840.3,580.09
3841.76,598.218
3843.21,596.559
3844.66,603.983
3846.11,586.908
3847.56,591.206
3849.01,589.372
3850.47,574.897
3851.92,589.742
3853.37,594.178
3854.82,603.395
3856.27,603.895
3857.72,609.253
3859.18,603.945
3860.63,592.237
3862.08,601.689
3863.53,599.299
3864.98,627.166
3866.44,625.573
3867.89,610.387
3869.34,599.913
3870.79,603.45
3872.24,614.323
3873.69,609.853
3875.15,600.469
3876.6,603.497
3878.05,606.894
3879.5,598.881
3880.95,610.416
3882.41,600.683
3883.86,601.292
3885.31,616.751
3886.76,626.779
3888.21,631.027
3889.66,619.788
3891.12,628.247
3892.57,622.599
3894.02,626.721
3895.47,631.945
3896.92,622.142
3898.37,627.324
3899.83,600.64
3901.28,627.788
3902.73,631.331
3904.18,629.476
3905.63,634.859
3907.09,643.15
3908.54,622.659
3909.99,629.867
3911.44,644.525
3912.89,643.236
3914.34,643.364
3915.8,625.534
3917.25,627.284
3918.7,664.486
3920.15,644.755
3921.6,652.398
3923.06,629.215
3924.51,644.542
3925.96,650.665
3927.41,639.792
3928.86,666.996
3930.31,652.795
3931.77,653.617
3933.22,638.817
3934.67,648.038
3936.12,646.531
3937.57,681.684
3939.02,675.491
3940.48,654.44
3941.93,684.887
3943.38,679.226
3944.83,667.323
3946.28,694.358
3947.74,683.647
3949.19,658.602
3950.64,675.569
3952.09,670.887
3953.54,679.235
3954.99,686.496
3956.45,675.072
3957.9,680.252
3959.35,691.053
3960.8,703.418
3962.25,686.995
3963.71,677.16
3965.16,676.498
3966.61,689.589
3968.06,696.838
3969.51,697.403
3970.96,692.339
3972.42,703.405
3973.87,715.651
3975.32,694.301
3976.77,690.363
3978.22,714.522
3979.68,730.709
3981.13,720.323
3982.58,711.927
3984.03,714.233
3985.48,723.181
3986.93,733.732
3988.39,712.453
3989.84,709.195
3991.29,741.754
3992.74,720.179
3994.19,736.764
3995.64,739.203
3997.1,745.776
3998.55,727.703
4000,755.037
