-20,54.0603
-18.5482,57.1285
-17.0964,57.7931
-15.6446,56.7178
-14.1928,59.7043
-12.7411,62.1009
-11.2893,65.6209
-9.83749,70.7177
-8.3857,82.0002
-6.93391,106.364
-5.48212,563.912
-4.03034,4304.27
-2.57855,14805.5
-1.12676,28020.5
0.325027,30315.3
1.77681,25221.9
3.2286,12302.2
4.68039,4038.08
6.13218,975.159
7.58397,154.008
9.03575,92.6321
10.4875,84.9017
11.9393,80.7144
13.3911,78.773
14.8429,76.8794
16.2947,75.7314
17.7465,75.6688
19.1983,71.0941
20.6501,65.5369
22.1018,63.0586
23.5536,65.2768
25.0054,61.1491
26.4572,58.6675
27.909,56.2044
29.3608,56.4752
30.8126,56.2818
32.2644,54.3238
33.7161,53.2995
35.1679,51.9726
36.6197,50.5697
38.0715,57.6957
39.5233,55.7895
40.9751,56.3588
42.4269,58.1107
43.8787,61.8087
45.3304,63.1466
46.7822,72.1187
48.234,90.4367
49.6858,126.322
51.1376,194.889
52.5894,335.656
54.0412,552.022
55.493,832.065
56.9447,1146.03
58.3965,1489.93
59.8483,1754.88
61.3001,2020.14
62.7519,2242.12
64.2037,2392.89
65.6555,2525.46
67.1073,2607.85
68.559,2661.64
70.0108,2724.13
71.4626,2775.8
72.9144,2746.36
74.3662,2752.04
75.818,2786.57
77.2698,2831.79
78.7216,2899.41
80.1733,2935.61
81.6251,3038.92
83.0769,3115.97
84.5287,3130.53
85.9805,3178.49
87.4323,3106.8
88.8841,3037.93
90.3359,2966.84
91.7877,2849.16
93.2394,2701.32
94.6912,2558.32
96.143,2421.13
97.5948,2297.82
99.0466,2200.68
100.498,2125.64
101.95,2045.97
103.402,1986.53
104.854,1952.09
106.306,1928.09
107.757,1898.1
109.209,1864.39
110.661,1835.62
112.113,1809.04
113.564,1782.67
115.016,1726.56
116.468,1726.45
117.92,1719.74
119.372,1689.03
120.823,1651
122.275,1636.33
123.727,1614.31
125.179,1584.76
126.631,1543.54
128.082,1497.4
129.534,1450.66
130.986,1426.55
132.438,1416.84
133.889,1418.06
135.341,1374.54
136.793,1356.34
138.245,1343.42
139.697,1328.23
141.148,1296.78
142.6,1277.47
144.052,1247.22
145.504,1214.86
146.956,1191.89
148.407,1164.32
149.859,1151.63
151.311,1142.11
152.763,1126.79
154.215,1111.42
155.666,1095.75
157.118,1085.88
158.57,1077.06
160.022,1064.72
161.473,1053.77
162.925,1056.62
164.377,1027.48
165.829,1039.8
167.281,1067.9
168.732,1090.12
170.184,1116.17
171.636,1119.81
173.088,1089.36
174.54,1051.26
175.991,1019.67
177.443,968.446
178.895,970.271
180.347,981.058
181.798,986.69
183.25,972.519
184.702,948.434
186.154,943.645
187.606,925.2
189.057,910.39
190.509,914.379
191.961,918.449
193.413,891.205
194.865,898.64
196.316,893.69
197.768,873.822
199.22,877.201
200.672,876.291
202.124,868.337
203.575,864.668
205.027,867.616
206.479,853.575
207.931,852.366
209.382,853.905
210.834,853.242
212.286,855.667
213.738,845.018
215.19,841.455
216.641,847.616
218.093,849.014
219.545,849.54
220.997,841.268
222.449,838.756
223.9,838.347
225.352,845.402
226.804,855.024
228.256,841.881
229.707,850.423
231.159,844.085
232.611,844.638
234.063,845.789
235.515,834.957
236.966,833.51
238.418,838.664
239.87,837.016
241.322,832.824
242.774,829.966
244.225,829.318
245.677,825.402
247.129,823.601
248.581,823.299
250.033,812.518
251.484,804.641
252.936,807.017
254.388,802.014
255.84,789.405
257.291,780.34
258.743,784.776
260.195,790.992
261.647,783.011
263.099,779.101
264.55,790.561
266.002,777.279
267.454,783.604
268.906,772.544
270.358,765.917
271.809,768.506
273.261,758.99
274.713,751.227
276.165,752.807
277.616,752.248
279.068,747.942
280.52,747.063
281.972,730.114
283.424,737.075
284.875,738.034
286.327,732.896
287.779,733.962
289.231,717.648
290.683,705.464
292.134,699.091
293.586,696.912
295.038,683.485
296.49,691.097
297.941,696.814
299.393,695.982
300.845,696.722
302.297,695.197
303.749,689.943
305.2,680.508
306.652,678.862
308.104,675.551
309.556,664.795
311.008,658.241
312.459,650.203
313.911,648.091
315.363,636.747
316.815,626.077
318.267,641.384
319.718,631.962
321.17,617.287
322.622,629.804
324.074,642.771
325.525,618.102
326.977,624.154
328.429,627.711
329.881,628.192
331.333,629.961
332.784,631.715
334.236,631.508
335.688,638.396
337.14,626.272
338.592,615.242
340.043,612.851
341.495,622.533
342.947,637.671
344.399,634.199
345.85,621.784
347.302,612.728
348.754,620.668
350.206,625.821
351.658,608.706
353.109,605.159
354.561,607.321
356.013,606.011
357.465,605.804
358.917,613.353
360.368,618.963
361.82,610.238
363.272,599.647
364.724,603.025
366.176,603.025
367.627,595.59
369.079,587.252
370.531,587.133
371.983,598.794
373.434,610.088
374.886,604.446
376.338,592.9
377.79,578.584
379.242,576.35
380.693,594.565
382.145,595.711
383.597,586.142
385.049,583.548
386.501,587.124
387.952,586.549
389.404,589.92
390.856,605.61
392.308,586.599
393.759,571.974
395.211,583.397
396.663,593.439
398.115,585.827
399.567,587.569
401.018,578.298
402.47,568.484
403.922,587.771
405.374,587.334
406.826,579.596
408.277,578.79
409.729,581.476
411.181,586.587
412.633,591.141
414.085,568.665
415.536,584.87
416.988,590.256
418.44,579.963
419.892,574.996
421.343,590.172
422.795,583.617
424.247,577.276
425.699,578.884
427.151,581.215
428.602,571.841
430.054,568.886
431.506,576.31
432.958,586.773
434.41,589.571
435.861,587.329
437.313,577.774
438.765,581.121
440.217,577.128
441.668,578.368
443.12,583.198
444.572,578.316
446.024,580.202
447.476,573.224
448.927,567.364
450.379,568.687
451.831,569.283
453.283,554.058
454.735,555.217
456.186,567.726
457.638,569.003
459.09,566.001
460.542,570.071
461.993,567.667
463.445,565.162
464.897,571.202
466.349,576.137
467.801,574.765
469.252,560.839
470.704,575.2
472.156,574.533
473.608,571.772
475.06,571.781
476.511,563.608
477.963,571.023
479.415,568.103
480.867,562.156
482.319,564.231
483.77,572.519
485.222,571.335
486.674,563.896
488.126,566.151
489.577,564.267
491.029,562.384
492.481,559.817
493.933,557.426
495.385,561.536
496.836,549.927
498.288,543.424
499.74,546.063
501.192,540.354
502.644,542.531
504.095,552.845
505.547,537.652
506.999,538.858
508.451,548.444
509.902,548.67
511.354,550.275
512.806,551.727
514.258,540.567
515.71,545.001
517.161,551.578
518.613,544.37
520.065,552.138
521.517,556.123
522.969,553.004
524.42,555.774
525.872,552.643
527.324,534.576
528.776,535.663
530.228,539.251
531.679,530.128
533.131,542.102
534.583,556.781
536.035,527.968
537.486,542.087
538.938,541.92
540.39,541.975
541.842,543.516
543.294,553.389
544.745,550.882
546.197,536.398
547.649,545.984
549.101,546.969
550.553,547.239
552.004,546.655
553.456,529.128
554.908,547.755
556.36,545.11
557.811,533.464
559.263,535.625
560.715,544.082
562.167,544.686
563.619,537.271
565.07,541.684
566.522,545.78
567.974,546.239
569.426,540.429
570.878,543.442
572.329,539.404
573.781,538.071
575.233,533.551
576.685,542.048
578.137,551.18
579.588,528.935
581.04,538.83
582.492,541.81
583.944,537.387
585.395,537.214
586.847,541.456
588.299,542.268
589.751,541.597
591.203,542.261
592.654,534.012
594.106,539.823
595.558,548.765
597.01,532.063
598.462,529.8
599.913,532.972
601.365,533.598
602.817,532.511
604.269,532.865
605.72,540.061
607.172,533.83
608.624,541.321
610.076,546.374
611.528,543.331
612.979,543.31
614.431,540.021
615.883,537.029
617.335,534.45
618.787,531.936
620.238,537.322
621.69,542.098
623.142,533.938
624.594,527.583
626.046,543.131
627.497,552.98
628.949,554.174
630.401,553.102
631.853,548.035
633.304,548.821
634.756,529.533
636.208,546.697
637.66,546.518
639.112,548.211
640.563,551.873
642.015,547.201
643.467,559.516
644.919,551.169
646.371,558.029
647.822,564.184
649.274,555.629
650.726,556.087
652.178,559.929
653.629,556.045
655.081,554.878
656.533,554.556
657.985,552.89
659.437,560.301
660.888,554.855
662.34,581.855
663.792,572.231
665.244,570.633
666.696,570.718
668.147,577.442
669.599,568.105
671.051,560.645
672.503,563.641
673.954,583.867
675.406,594.989
676.858,591.326
678.31,579.437
679.762,567.851
681.213,577.474
682.665,574.491
684.117,577.406
685.569,584.985
687.021,587.861
688.472,578.029
689.924,569.034
691.376,576.126
692.828,577.318
694.28,576.697
695.731,567.262
697.183,566.186
698.635,592.324
700.087,575.804
701.538,566.584
702.99,572.902
704.442,585.609
705.894,578.407
707.346,578.765
708.797,580.817
710.249,560.548
711.701,560.028
713.153,570.997
714.605,571.669
716.056,576.249
717.508,570.437
718.96,588.81
720.412,590.478
721.863,583.537
723.315,580.289
724.767,578.081
726.219,590.371
727.671,574.479
729.122,575.847
730.574,581.711
732.026,574.238
733.478,570.297
734.93,574.691
736.381,566.437
737.833,559.245
739.285,569.736
740.737,574.161
742.189,575.12
743.64,578.454
745.092,566.185
746.544,573.665
747.996,576.866
749.447,574.56
750.899,570.732
752.351,576.062
753.803,577.833
755.255,576.336
756.706,589.44
758.158,584.552
759.61,582.117
761.062,583.595
762.514,588.545
763.965,584.005
765.417,574.399
766.869,580.425
768.321,579.618
769.772,583.216
771.224,581.388
772.676,573.791
774.128,569.915
775.58,575.324
777.031,583.056
778.483,590.92
779.935,587.644
781.387,576.238
782.839,572.728
784.29,563.95
785.742,575.524
787.194,581.667
788.646,576.839
790.098,586.123
791.549,595.045
793.001,586.237
794.453,578.075
795.905,574.578
797.356,584.024
798.808,572.607
800.26,582.455
801.712,590.208
803.164,596.579
804.615,587.216
806.067,580.425
807.519,593.29
808.971,590.892
810.423,595.026
811.874,599.598
813.326,602.601
814.778,606.736
816.23,587.224
817.681,592.371
819.133,613.139
820.585,612.296
822.037,607.86
823.489,610.549
824.94,619.753
826.392,595.452
827.844,586.62
829.296,594.074
830.748,624.338
832.199,619.278
833.651,606.434
835.103,608.557
836.555,612.322
838.007,604.811
839.458,624.199
840.91,633.72
842.362,622.455
843.814,628.047
845.265,620.486
846.717,613.066
848.169,618.828
849.621,631.864
851.073,636.813
852.524,640.779
853.976,644.193
855.428,647.441
856.88,668.888
858.332,649.181
859.783,634.034
861.235,628.481
862.687,640.1
864.139,656.064
865.59,660.566
867.042,624.086
868.494,633.522
869.946,634.252
871.398,644.135
872.849,633.843
874.301,630.539
875.753,630.756
877.205,619.757
878.657,624.761
880.108,629.935
881.56,644.253
883.012,638.188
884.464,625.672
885.915,621.253
887.367,630.032
888.819,633.42
890.271,627.379
891.723,637.605
893.174,629.62
894.626,635.067
896.078,639.001
897.53,643.904
898.982,658.098
900.433,652.797
901.885,646.333
903.337,641.033
904.789,641.136
906.241,651.522
907.692,664.682
909.144,666.566
910.596,658.706
912.048,665.434
913.499,653.736
914.951,649.274
916.403,654.163
917.855,657.637
919.307,669.983
920.758,687.056
922.21,673.383
923.662,680
925.114,670.877
926.566,658.29
928.017,660.358
929.469,678.041
930.921,671.286
932.373,666
933.824,667.592
935.276,677.46
936.728,675.425
938.18,676.843
939.632,674.158
941.083,663.672
942.535,661.712
943.987,679.012
945.439,693.543
946.891,680.242
948.342,680.888
949.794,692.65
951.246,687.116
952.698,674.768
954.15,670.743
955.601,671.408
957.053,668.638
958.505,677.04
959.957,669.371
961.408,666.094
962.86,666.86
964.312,663.545
965.764,682.403
967.216,685.545
968.667,678.843
970.119,669.22
971.571,669.094
973.023,674.461
974.475,684.552
975.926,673.289
977.378,663.355
978.83,663.456
980.282,668.009
981.733,656.617
983.185,673.929
984.637,676.626
986.089,671.739
987.541,674.278
988.992,669.887
990.444,696.884
991.896,704.772
993.348,700.402
994.8,690.584
996.251,690.863
997.703,697.095
999.155,710.687
1000.61,713.958
1002.06,707.251
1003.51,707.085
1004.96,707.405
1006.41,705.297
1007.87,707.614
1009.32,699.374
1010.77,694.288
1012.22,716.687
1013.67,717.665
1015.12,720.12
1016.58,730.225
1018.03,733.583
1019.48,724.842
1020.93,727.049
1022.38,728.793
1023.84,750.378
1025.29,751.938
1026.74,769.456
1028.19,771.628
1029.64,761.056
1031.09,754.692
1032.55,776.29
1034,794.019
1035.45,770.214
1036.9,782.67
1038.35,781.489
1039.8,773.186
1041.26,781.282
1042.71,782.745
1044.16,788.67
1045.61,795.537
1047.06,810.382
1048.52,820.351
1049.97,815.738
1051.42,811.365
1052.87,829.33
1054.32,853.138
1055.77,863.982
1057.23,852.441
1058.68,850.561
1060.13,868.431
1061.58,883.144
1063.03,870.555
1064.49,890.565
1065.94,909.4
1067.39,913.634
1068.84,911.882
1070.29,925.623
1071.74,945.341
1073.2,940.515
1074.65,961.791
1076.1,954.493
1077.55,956.061
1079,949.193
1080.46,960.504
1081.91,970.871
1083.36,966.615
1084.81,985.761
1086.26,975.377
1087.71,987.995
1089.17,976.958
1090.62,972.191
1092.07,969.052
1093.52,956.695
1094.97,948.691
1096.42,961.27
1097.88,965.338
1099.33,962.32
1100.78,958.577
1102.23,957.714
1103.68,954.268
1105.14,950.381
1106.59,941.414
1108.04,934.999
1109.49,916.486
1110.94,911.7
1112.39,912.587
1113.85,917.413
1115.3,904.02
1116.75,907.798
1118.2,902.222
1119.65,891.73
1121.11,897.823
1122.56,890.185
1124.01,894.492
1125.46,881.99
1126.91,888.074
1128.36,897.904
1129.82,878.928
1131.27,863.038
1132.72,873.887
1134.17,866.172
1135.62,870.035
1137.07,866.805
1138.53,863.392
1139.98,860.005
1141.43,858.105
1142.88,858.118
1144.33,856.627
1145.79,853.006
1147.24,859.951
1148.69,877.349
1150.14,879.512
1151.59,862.78
1153.04,848.131
1154.5,850.072
1155.95,854.304
1157.4,858.304
1158.85,860.533
1160.3,861.36
1161.76,841.384
1163.21,855.872
1164.66,860.556
1166.11,858.501
1167.56,862.286
1169.01,875.997
1170.47,878.076
1171.92,869.48
1173.37,869.604
1174.82,882.248
1176.27,891.395
1177.72,869.689
1179.18,879.875
1180.63,872.914
1182.08,877.347
1183.53,871.106
1184.98,876.603
1186.44,884.098
1187.89,875.873
1189.34,879.673
1190.79,887.063
1192.24,886.667
1193.69,904.44
1195.15,906.528
1196.6,913.409
1198.05,909.945
1199.5,901.105
1200.95,900.922
1202.41,878.635
1203.86,873.594
1205.31,927.791
1206.76,924.911
1208.21,914.928
1209.66,927.443
1211.12,923.827
1212.57,921.216
1214.02,934.758
1215.47,939.011
1216.92,932.44
1218.37,930.407
1219.83,918.255
1221.28,950.792
1222.73,937.111
1224.18,924.131
1225.63,917.274
1227.09,923.415
1228.54,936.437
1229.99,946.994
1231.44,957.409
1232.89,962.963
1234.34,951.172
1235.8,964.769
1237.25,969.428
1238.7,974.213
1240.15,983.543
1241.6,986.771
1243.06,992.242
1244.51,992.893
1245.96,965.214
1247.41,996.137
1248.86,1005.36
1250.31,996.526
1251.77,1018.86
1253.22,1026.75
1254.67,1030.83
1256.12,1030.04
1257.57,1035.8
1259.02,1052.02
1260.48,1071.26
1261.93,1087.42
1263.38,1068.68
1264.83,1071.5
1266.28,1083.86
1267.74,1102.1
1269.19,1123.5
1270.64,1133.64
1272.09,1139.9
1273.54,1160.02
1274.99,1199.7
1276.45,1212.28
1277.9,1219.4
1279.35,1212.09
1280.8,1230.93
1282.25,1250.33
1283.71,1271.54
1285.16,1290.82
1286.61,1320.1
1288.06,1352.86
1289.51,1386.54
1290.96,1397.73
1292.42,1432.47
1293.87,1453.7
1295.32,1531.28
1296.77,1556.56
1298.22,1592.17
1299.67,1657.45
1301.13,1709.34
1302.58,1741.84
1304.03,1803.12
1305.48,1886.96
1306.93,1958.1
1308.39,2018.26
1309.84,2085.79
1311.29,2207.37
1312.74,2269.01
1314.19,2364.38
1315.64,2473.75
1317.1,2574.27
1318.55,2707.29
1320,2849.84
1321.45,2941.27
1322.9,3026.37
1324.36,3151.56
1325.81,3226.18
1327.26,3366.68
1328.71,3461.22
1330.16,3545.62
1331.61,3557.68
1333.07,3556.77
1334.52,3605.75
1335.97,3635.74
1337.42,3603.09
1338.87,3560.56
1340.33,3503.11
1341.78,3456
1343.23,3338.42
1344.68,3255.56
1346.13,3150.02
1347.58,3034.67
1349.04,2920.5
1350.49,2799.6
1351.94,2678.63
1353.39,2608.96
1354.84,2476.98
1356.29,2360.81
1357.75,2260.51
1359.2,2180.27
1360.65,2071.6
1362.1,2001.85
1363.55,1935.8
1365.01,1877.34
1366.46,1827.36
1367.91,1772.35
1369.36,1722.28
1370.81,1683.5
1372.26,1635.65
1373.72,1601.89
1375.17,1546.85
1376.62,1555.16
1378.07,1516.62
1379.52,1490.69
1380.98,1460.92
1382.43,1431.06
1383.88,1415.34
1385.33,1396.43
1386.78,1376.53
1388.23,1373.49
1389.69,1354.67
1391.14,1346.44
1392.59,1346.91
1394.04,1325.03
1395.49,1306.06
1396.94,1303.8
1398.4,1292.87
1399.85,1279.45
1401.3,1278.72
1402.75,1276.64
1404.2,1266.62
1405.66,1292.23
1407.11,1300.87
1408.56,1305.02
1410.01,1266.08
1411.46,1274.79
1412.91,1286.29
1414.37,1283.28
1415.82,1277.35
1417.27,1269.32
1418.72,1263.71
1420.17,1278.57
1421.63,1285.32
1423.08,1281.71
1424.53,1295.87
1425.98,1305.24
1427.43,1301.93
1428.88,1322.19
1430.34,1306.32
1431.79,1303.51
1433.24,1309.39
1434.69,1315.01
1436.14,1327.89
1437.59,1331.7
1439.05,1332.83
1440.5,1354.3
1441.95,1355.3
1443.4,1365.69
1444.85,1367.43
1446.31,1390.56
1447.76,1401.98
1449.21,1407.45
1450.66,1402.58
1452.11,1414.01
1453.56,1444.94
1455.02,1445.01
1456.47,1436.58
1457.92,1448.85
1459.37,1482.44
1460.82,1498.14
1462.28,1516.51
1463.73,1523.75
1465.18,1535.38
1466.63,1549.95
1468.08,1569.55
1469.53,1579.08
1470.99,1608.33
1472.44,1645.39
1473.89,1664.14
1475.34,1690.37
1476.79,1696.32
1478.24,1701.85
1479.7,1739.72
1481.15,1777.74
1482.6,1800.19
1484.05,1842.22
1485.5,1887.37
1486.96,1929.63
1488.41,1928.42
1489.86,1963.21
1491.31,2001.1
1492.76,2046.52
1494.21,2095.88
1495.67,2143.45
1497.12,2180.55
1498.57,2213.32
1500.02,2301.63
1501.47,2350.99
1502.93,2414.21
1504.38,2482.47
1505.83,2552.77
1507.28,2653.34
1508.73,2717.9
1510.18,2765.22
1511.64,2860.7
1513.09,2994.55
1514.54,3120.37
1515.99,3231.38
1517.44,3377.13
1518.89,3491.3
1520.35,3713.09
1521.8,3902.47
1523.25,4132.65
1524.7,4367.33
1526.15,4683.77
1527.61,5006.63
1529.06,5324.24
1530.51,5687.74
1531.96,6096.53
1533.41,6497.71
1534.86,6970.89
1536.32,7532.63
1537.77,8104.82
1539.22,8804.66
1540.67,9566.82
1542.12,10455.3
1543.58,11401.5
1545.03,12412.9
1546.48,13540.4
1547.93,14663.1
1549.38,15990.6
1550.83,17213.4
1552.29,18540.7
1553.74,19971.8
1555.19,21360.4
1556.64,22736
1558.09,24067.1
1559.54,25308
1561,26403
1562.45,27387
1563.9,27993.5
1565.35,28492.5
1566.8,28623.9
1568.26,28597.8
1569.71,28106.6
1571.16,27479.4
1572.61,26543.6
1574.06,25442.2
1575.51,24105.1
1576.97,22690.4
1578.42,21192.2
1579.87,19697.6
1581.32,18233.4
1582.77,16726.8
1584.23,15350.1
1585.68,13963
1587.13,12780.4
1588.58,11740.6
1590.03,10742.6
1591.48,9831.67
1592.94,9039.76
1594.39,8287.5
1595.84,7667.01
1597.29,7181.68
1598.74,6754.76
1600.2,6309.87
1601.65,5927.85
1603.1,5604.82
1604.55,5293.51
1606,5042.52
1607.45,4795.67
1608.91,4522.78
1610.36,4338.61
1611.81,4067.6
1613.26,3909.56
1614.71,3682.34
1616.16,3474.1
1617.62,3344.07
1619.07,3177.84
1620.52,3009.88
1621.97,2889.34
1623.42,2776.64
1624.88,2671.48
1626.33,2561.16
1627.78,2487.96
1629.23,2401.69
1630.68,2309.34
1632.13,2238.72
1633.59,2154.89
1635.04,2130.61
1636.49,2029.44
1637.94,2002.69
1639.39,1981.74
1640.85,1906.85
1642.3,1889.18
1643.75,1853.76
1645.2,1790.98
1646.65,1764.67
1648.1,1704.04
1649.56,1688.86
1651.01,1660.51
1652.46,1634.49
1653.91,1624.36
1655.36,1610.37
1656.81,1589
1658.27,1539.39
1659.72,1504.78
1661.17,1489.88
1662.62,1484.99
1664.07,1459.87
1665.53,1423.45
1666.98,1393.99
1668.43,1370.44
1669.88,1373.97
1671.33,1345.79
1672.78,1347.52
1674.24,1342.84
1675.69,1333.9
1677.14,1308.17
1678.59,1279.47
1680.04,1272.44
1681.5,1243.31
1682.95,1235.77
1684.4,1250.75
1685.85,1229.72
1687.3,1198.32
1688.75,1201.46
1690.21,1193.23
1691.66,1191.11
1693.11,1189.99
1694.56,1157.13
1696.01,1181.77
1697.46,1137.19
1698.92,1143.6
1700.37,1154.59
1701.82,1137.84
1703.27,1141.8
1704.72,1115.97
1706.18,1114.79
1707.63,1119.19
1709.08,1114.54
1710.53,1120.46
1711.98,1111.95
1713.43,1110.2
1714.89,1113.09
1716.34,1096.61
1717.79,1101.53
1719.24,1118.23
1720.69,1100.59
1722.15,1099.58
1723.6,1091.98
1725.05,1072.35
1726.5,1067.85
1727.95,1094.12
1729.4,1095.27
1730.86,1076.39
1732.31,1087.31
1733.76,1093.84
1735.21,1090.82
1736.66,1077.77
1738.11,1074.04
1739.57,1057.8
1741.02,1053.21
1742.47,1074.63
1743.92,1078.94
1745.37,1062.68
1746.83,1044.95
1748.28,1015.68
1749.73,1017.16
1751.18,1016.89
1752.63,1031.71
1754.08,1015.52
1755.54,1025.94
1756.99,1000.51
1758.44,999.348
1759.89,985.663
1761.34,991.468
1762.8,988.238
1764.25,974.838
1765.7,968.343
1767.15,989.658
1768.6,975.526
1770.05,961.682
1771.51,964.284
1772.96,955.886
1774.41,949.192
1775.86,944.293
1777.31,945.288
1778.76,955.329
1780.22,952.228
1781.67,932.412
1783.12,932.118
1784.57,916.548
1786.02,917.805
1787.48,917.41
1788.93,925.617
1790.38,908.424
1791.83,909.663
1793.28,894.48
1794.73,926.348
1796.19,925.193
1797.64,913.481
1799.09,895.68
1800.54,904.303
1801.99,897.355
1803.45,887.943
1804.9,897.159
1806.35,886.854
1807.8,878.404
1809.25,885.844
1810.7,888.785
1812.16,887.475
1813.61,880.88
1815.06,879.868
1816.51,888.797
1817.96,902.409
1819.41,887.861
1820.87,889.419
1822.32,902.218
1823.77,875.436
1825.22,864.798
1826.67,866.772
1828.13,876.468
1829.58,888.564
1831.03,875.572
1832.48,911.361
1833.93,917.147
1835.38,893.794
1836.84,894.32
1838.29,917.309
1839.74,893.41
1841.19,907.848
1842.64,911.124
1844.1,904.916
1845.55,916.396
1847,925.051
1848.45,925.51
1849.9,918.146
1851.35,921.165
1852.81,922.229
1854.26,933.918
1855.71,932.846
1857.16,916.15
1858.61,932.733
1860.07,933.051
1861.52,942.314
1862.97,953.062
1864.42,922.772
1865.87,924.616
1867.32,923.527
1868.78,904.23
1870.23,919.867
1871.68,936.213
1873.13,927.192
1874.58,916.774
1876.03,900.946
1877.49,900.268
1878.94,904.936
1880.39,904.929
1881.84,886.737
1883.29,884.428
1884.75,887.788
1886.2,867.958
1887.65,875.849
1889.1,869.852
1890.55,861.939
1892,849.693
1893.46,867.368
1894.91,867.022
1896.36,847.137
1897.81,844.567
1899.26,851.052
1900.72,858.676
1902.17,847.325
1903.62,831.21
1905.07,831.016
1906.52,815.845
1907.97,829.067
1909.43,831.151
1910.88,821.495
1912.33,821.426
1913.78,801.155
1915.23,799.079
1916.68,817.84
1918.14,809.768
1919.59,798.258
1921.04,814.785
1922.49,810.911
1923.94,812.474
1925.4,805.309
1926.85,800.306
1928.3,804.885
1929.75,806.89
1931.2,810.117
1932.65,825.68
1934.11,779.864
1935.56,789.386
1937.01,843.554
1938.46,821.057
1939.91,801.39
1941.37,788.53
1942.82,818.176
1944.27,818.84
1945.72,793.062
1947.17,809.065
1948.62,819.226
1950.08,818.7
1951.53,810.506
1952.98,823.126
1954.43,821.52
1955.88,827.878
1957.33,817.577
1958.79,817.22
1960.24,838.358
1961.69,830.16
1963.14,838.261
1964.59,832.777
1966.05,825.211
1967.5,843.13
1968.95,843.29
1970.4,833.462
1971.85,824.734
1973.3,825.589
1974.76,838.685
1976.21,843.381
1977.66,847.034
1979.11,841.294
1980.56,835.948
1982.02,845.109
1983.47,853.505
1984.92,855.574
1986.37,861.678
1987.82,846.934
1989.27,840.597
1990.73,841.183
1992.18,841.078
1993.63,861.411
1995.08,837.992
1996.53,837.974
1997.98,843.329
1999.44,859.315
2000.89,834.151
2002.34,844.231
2003.79,846.686
2005.24,848.159
2006.7,856.453
2008.15,856.357
2009.6,827.364
2011.05,835.443
2012.5,810.071
2013.95,804.021
2015.41,817.295
2016.86,827.341
2018.31,806.202
2019.76,832.427
2021.21,820.716
2022.67,803.419
2024.12,784.389
2025.57,806.31
2027.02,821.097
2028.47,815.561
2029.92,792.869
2031.38,787.456
2032.83,788.154
2034.28,769.708
2035.73,790.455
2037.18,775.687
2038.63,769.72
2040.09,760.848
2041.54,773.13
2042.99,760.056
2044.44,776.131
2045.89,777.339
2047.35,760.734
2048.8,765.849
2050.25,750.906
2051.7,760.869
2053.15,770.521
2054.6,757.037
2056.06,753.28
2057.51,755.688
2058.96,741.499
2060.41,734.65
2061.86,745.842
2063.32,743.902
2064.77,743.767
2066.22,744.491
2067.67,736.906
2069.12,723.554
2070.57,727.065
2072.03,735.272
2073.48,738.904
2074.93,730.147
2076.38,732.049
2077.83,740.965
2079.28,729.473
2080.74,729.947
2082.19,724.208
2083.64,716.837
2085.09,724.064
2086.54,716.747
2088,718.494
2089.45,732.225
2090.9,732.803
2092.35,734.478
2093.8,713.949
2095.25,706.041
2096.71,727.457
2098.16,718.77
2099.61,699.417
2101.06,721.757
2102.51,722.354
2103.97,719.046
2105.42,718.48
2106.87,728.492
2108.32,729.43
2109.77,716.93
2111.22,730.549
2112.68,730.061
2114.13,710.091
2115.58,723.83
2117.03,741.626
2118.48,730.953
2119.94,718.42
2121.39,708.409
2122.84,720.439
2124.29,743.564
2125.74,736.395
2127.19,722.764
2128.65,713.948
2130.1,727.252
2131.55,730.021
2133,724.604
2134.45,730.391
2135.9,738.436
2137.36,731.679
2138.81,734.739
2140.26,734.855
2141.71,741.783
2143.16,740.121
2144.62,747.043
2146.07,749.397
2147.52,750.909
2148.97,750.542
2150.42,750.33
2151.87,744.923
2153.33,753.046
2154.78,750.461
2156.23,738.336
2157.68,738.342
2159.13,765.47
2160.58,765.008
2162.04,757.597
2163.49,764.309
2164.94,762.402
2166.39,747.566
2167.84,760.695
2169.3,766.449
2170.75,752.947
2172.2,772.368
2173.65,771.943
2175.1,776.618
2176.55,778.605
2178.01,773.336
2179.46,766.841
2180.91,771.851
2182.36,767.645
2183.81,776.35
2185.27,789.823
2186.72,782.927
2188.17,779.227
2189.62,783.104
2191.07,783.292
2192.52,784.622
2193.98,789.254
2195.43,789.243
2196.88,797.842
2198.33,779.248
2199.78,789.164
2201.24,790.271
2202.69,785.505
2204.14,786.894
2205.59,785.683
2207.04,799.191
2208.49,795.107
2209.95,814.641
2211.4,796.92
2212.85,790.251
2214.3,794.63
2215.75,785.661
2217.2,786.28
2218.66,774.071
2220.11,790.05
2221.56,795.374
2223.01,791.574
2224.46,850.971
2225.92,791.081
2227.37,796.145
2228.82,806.577
2230.27,792.69
2231.72,799.601
2233.17,807.213
2234.63,807.792
2236.08,784.237
2237.53,798.784
2238.98,820.541
2240.43,817.421
2241.89,807.29
2243.34,808.094
2244.79,812.567
2246.24,804.298
2247.69,808.783
2249.14,821.17
2250.6,823.929
2252.05,827.349
2253.5,827.339
2254.95,816.106
2256.4,814.512
2257.85,825.047
2259.31,836.358
2260.76,840.633
2262.21,836.096
2263.66,838.085
2265.11,831.641
2266.57,843.24
2268.02,848.736
2269.47,862.982
2270.92,863.925
2272.37,847.59
2273.82,835.937
2275.28,844.028
2276.73,845.713
2278.18,847.639
2279.63,849.37
2281.08,866.472
2282.54,856.102
2283.99,866.294
2285.44,864.12
2286.89,868.994
2288.34,869.431
2289.79,874.228
2291.25,875.399
2292.7,897.173
2294.15,898.877
2295.6,886.612
2297.05,896.829
2298.5,869.725
2299.96,890.069
2301.41,910.978
2302.86,903.433
2304.31,910.92
2305.76,891.83
2307.22,899.297
2308.67,915.441
2310.12,895.448
2311.57,917.01
2313.02,921.888
2314.47,924.477
2315.93,927.208
2317.38,936.518
2318.83,945.968
2320.28,934.335
2321.73,936.138
2323.19,929.763
2324.64,926.061
2326.09,954.058
2327.54,953.433
2328.99,954.493
2330.44,963.077
2331.9,958.841
2333.35,966.568
2334.8,980.91
2336.25,975.528
2337.7,974.693
2339.16,974.13
2340.61,984.176
2342.06,971.36
2343.51,996.229
2344.96,1014.1
2346.41,1003.86
2347.87,1017.77
2349.32,1010.82
2350.77,1003.65
2352.22,993.366
2353.67,1014.38
2355.12,1029.9
2356.58,1018.38
2358.03,1042.68
2359.48,1058.99
2360.93,1054.61
2362.38,1072.99
2363.84,1093.31
2365.29,1073.7
2366.74,1081.35
2368.19,1100.69
2369.64,1103.93
2371.09,1120.06
2372.55,1121.38
2374,1125.05
2375.45,1150.85
2376.9,1191.13
2378.35,1180.22
2379.8,1182.65
2381.26,1208.37
2382.71,1214.14
2384.16,1221.47
2385.61,1247.11
2387.06,1268.58
2388.52,1269.34
2389.97,1286.74
2391.42,1324.66
2392.87,1357.17
2394.32,1357.32
2395.77,1372.55
2397.23,1379.23
2398.68,1412.56
2400.13,1449.21
2401.58,1461.28
2403.03,1475.37
2404.49,1505.36
2405.94,1554.94
2407.39,1546.76
2408.84,1595.85
2410.29,1634.64
2411.74,1648.39
2413.2,1661.63
2414.65,1655.74
2416.1,1683.97
2417.55,1714.83
2419,1743.57
2420.46,1792.32
2421.91,1787.68
2423.36,1788.06
2424.81,1826.5
2426.26,1816.42
2427.71,1807.94
2429.17,1829.53
2430.62,1829.91
2432.07,1820.2
2433.52,1807.78
2434.97,1810.05
2436.42,1814.01
2437.88,1810.34
2439.33,1790.88
2440.78,1799.89
2442.23,1786.34
2443.68,1788.46
2445.14,1795.46
2446.59,1775.53
2448.04,1794.46
2449.49,1749.9
2450.94,1730
2452.39,1742.5
2453.85,1736.58
2455.3,1716.45
2456.75,1686.66
2458.2,1656.62
2459.65,1675.56
2461.1,1685.05
2462.56,1683.01
2464.01,1675.81
2465.46,1652.47
2466.91,1618.25
2468.36,1618.02
2469.82,1621.18
2471.27,1640.92
2472.72,1654.61
2474.17,1643.52
2475.62,1607.88
2477.07,1611.42
2478.53,1625.09
2479.98,1608.54
2481.43,1610.72
2482.88,1577.57
2484.33,1576.58
2485.79,1585.27
2487.24,1589.49
2488.69,1581.5
2490.14,1607.88
2491.59,1613.97
2493.04,1616.17
2494.5,1614.1
2495.95,1607.1
2497.4,1636.11
2498.85,1624.3
2500.3,1622.5
2501.76,1608.46
2503.21,1653.21
2504.66,1621.32
2506.11,1640.31
2507.56,1650.75
2509.01,1657.45
2510.47,1630.47
2511.92,1640.96
2513.37,1660.99
2514.82,1681.77
2516.27,1692.3
2517.72,1714.97
2519.18,1735.1
2520.63,1736.65
2522.08,1729.67
2523.53,1750.48
2524.98,1753.03
2526.44,1756.33
2527.89,1782.82
2529.34,1847.49
2530.79,1834.34
2532.24,1820.25
2533.69,1871
2535.15,1872.67
2536.6,1907.22
2538.05,1950.03
2539.5,1959.77
2540.95,1964.92
2542.41,1993.42
2543.86,2025.19
2545.31,2031.79
2546.76,2052.76
2548.21,2058.46
2549.66,2111.86
2551.12,2131.93
2552.57,2145.83
2554.02,2199.42
2555.47,2236.11
2556.92,2294.57
2558.37,2367.86
2559.83,2347.14
2561.28,2383.71
2562.73,2433.51
2564.18,2476.8
2565.63,2532.06
2567.09,2593.92
2568.54,2629.08
2569.99,2688.11
2571.44,2728.59
2572.89,2792.69
2574.34,2867.66
2575.8,2937.15
2577.25,3014.9
2578.7,3089.85
2580.15,3142.41
2581.6,3164.24
2583.06,3312.37
2584.51,3392.32
2585.96,3473.8
2587.41,3583.23
2588.86,3688.83
2590.31,3782.52
2591.77,3900.66
2593.22,3986.51
2594.67,4115.62
2596.12,4214.67
2597.57,4397.46
2599.02,4541.76
2600.48,4663.38
2601.93,4805.82
2603.38,5015.9
2604.83,5183.35
2606.28,5384.08
2607.74,5590.72
2609.19,5753.89
2610.64,5980.09
2612.09,6221.25
2613.54,6435.4
2614.99,6700.75
2616.45,6948.44
2617.9,7238.09
2619.35,7504.3
2620.8,7781.48
2622.25,8090.49
2623.71,8363.3
2625.16,8756
2626.61,9030.37
2628.06,9342.83
2629.51,9761.87
2630.96,10088
2632.42,10424
2633.87,10796.6
2635.32,11135.2
2636.77,11481.2
2638.22,11769.9
2639.68,12106.8
2641.13,12434.2
2642.58,12775.4
2644.03,13099
2645.48,13415
2646.93,13650
2648.39,13857.4
2649.84,14104.8
2651.29,14188.3
2652.74,14433.2
2654.19,14500.7
2655.64,14508.4
2657.1,14612.2
2658.55,14595.5
2660,14567
2661.45,14490.8
2662.9,14363
2664.36,14240.2
2665.81,14110.1
2667.26,13873
2668.71,13731.1
2670.16,13388.1
2671.61,13180.4
2673.07,12914.4
2674.52,12622.6
2675.97,12301.8
2677.42,11929.5
2678.87,11610.9
2680.32,11274.9
2681.78,10920
2683.23,10522.4
2684.68,10206.2
2686.13,9812.87
2687.58,9420.99
2689.04,9117.08
2690.49,8778.93
2691.94,8452.17
2693.39,8130.35
2694.84,7767.51
2696.29,7462.56
2697.75,7137.91
2699.2,6797.76
2700.65,6528.78
2702.1,6286
2703.55,6076.12
2705.01,5804.87
2706.46,5586.61
2707.91,5347.96
2709.36,5087.28
2710.81,4891.5
2712.26,4681.25
2713.72,4550.3
2715.17,4377.53
2716.62,4184.74
2718.07,4038.64
2719.52,3920.44
2720.98,3755.99
2722.43,3659.28
2723.88,3516.45
2725.33,3418.83
2726.78,3289.48
2728.23,3156.52
2729.69,3069.48
2731.14,2990.48
2732.59,2907.64
2734.04,2817.25
2735.49,2766.81
2736.94,2678.08
2738.4,2621.17
2739.85,2590.5
2741.3,2513.14
2742.75,2456.85
2744.2,2413.12
2745.66,2309.49
2747.11,2266.99
2748.56,2258.91
2750.01,2166.49
2751.46,2101.25
2752.91,2087.76
2754.37,2062.45
2755.82,2026.78
2757.27,1992.53
2758.72,1978.55
2760.17,1936.66
2761.63,1939.43
2763.08,1900.39
2764.53,1858.52
2765.98,1837.7
2767.43,1839.74
2768.88,1807.52
2770.34,1758.17
2771.79,1735.34
2773.24,1708.01
2774.69,1716.15
2776.14,1683.36
2777.59,1655.69
2779.05,1647.5
2780.5,1630.27
2781.95,1570.38
2783.4,1577.74
2784.85,1566.81
2786.31,1551.61
2787.76,1538.76
2789.21,1548.39
2790.66,1516.61
2792.11,1484.03
2793.56,1483.52
2795.02,1501.62
2796.47,1478.44
2797.92,1409.26
2799.37,1451.44
2800.82,1458.83
2802.28,1420.18
2803.73,1391.71
2805.18,1379.35
2806.63,1378.24
2808.08,1368.89
2809.53,1360.89
2810.99,1336.54
2812.44,1324.58
2813.89,1326.82
2815.34,1329.96
2816.79,1307.92
2818.24,1316.84
2819.7,1338.75
2821.15,1315.82
2822.6,1307.15
2824.05,1291.3
2825.5,1289.3
2826.96,1247.77
2828.41,1290.38
2829.86,1273.91
2831.31,1254.12
2832.76,1265.65
2834.21,1265.95
2835.67,1257.21
2837.12,1243.52
2838.57,1227.11
2840.02,1223.94
2841.47,1223.61
2842.93,1232.4
2844.38,1214.13
2845.83,1221.74
2847.28,1231.52
2848.73,1246.29
2850.18,1226.74
2851.64,1221.04
2853.09,1205.47
2854.54,1212.91
2855.99,1203.1
2857.44,1197.85
2858.9,1223.75
2860.35,1202.04
2861.8,1205.86
2863.25,1209.91
2864.7,1215.32
2866.15,1205.72
2867.61,1218.87
2869.06,1227.09
2870.51,1206.71
2871.96,1224.94
2873.41,1204.42
2874.86,1212.8
2876.32,1232.56
2877.77,1214.54
2879.22,1243.11
2880.67,1232.1
2882.12,1226.7
2883.58,1233.59
2885.03,1228
2886.48,1231.13
2887.93,1221.08
2889.38,1228.98
2890.83,1229.4
2892.29,1246.9
2893.74,1242.77
2895.19,1232.83
2896.64,1239.43
2898.09,1261.27
2899.54,1247.4
2901,1217.13
2902.45,1250.39
2903.9,1224.5
2905.35,1246.13
2906.8,1219.52
2908.26,1232.42
2909.71,1232.64
2911.16,1228.13
2912.61,1217.59
2914.06,1212.43
2915.51,1188.32
2916.97,1221.75
2918.42,1198.14
2919.87,1192.66
2921.32,1185.61
2922.77,1185.33
2924.23,1167.42
2925.68,1182.71
2927.13,1158.44
2928.58,1135.5
2930.03,1148.48
2931.48,1139.87
2932.94,1106.07
2934.39,1106.33
2935.84,1113.25
2937.29,1096.27
2938.74,1079.67
2940.2,1080.31
2941.65,1081.03
2943.1,1050.58
2944.55,1044.91
2946,1042.06
2947.45,1052.24
2948.91,1024.7
2950.36,1010.59
2951.81,1017.63
2953.26,1007.96
2954.71,1000.45
2956.16,985.057
2957.62,974.946
2959.07,972.352
2960.52,983.842
2961.97,968.162
2963.42,946.91
2964.88,943.057
2966.33,925.438
2967.78,909.159
2969.23,931.788
2970.68,910.919
2972.13,915.645
2973.59,913.451
2975.04,893.471
2976.49,891.511
2977.94,868.902
2979.39,870.771
2980.84,867.93
2982.3,882.367
2983.75,867.248
2985.2,862.895
2986.65,853.685
2988.1,846.803
2989.56,847.785
2991.01,855.202
2992.46,852.817
2993.91,866.575
2995.36,820.654
2996.81,842.179
2998.27,833.74
2999.72,825.142
3001.17,825.999
3002.62,830.099
3004.07,821.825
3005.53,799.678
3006.98,835.277
3008.43,820.327
3009.88,824.81
3011.33,825.206
3012.78,806.205
3014.24,801.009
3015.69,812.755
3017.14,822.069
3018.59,823.116
3020.04,806.396
3021.5,812.449
3022.95,827.146
3024.4,801.31
3025.85,804.196
3027.3,815.75
3028.75,796.155
3030.21,802.149
3031.66,811.463
3033.11,787.884
3034.56,803.439
3036.01,807.974
3037.46,798.425
3038.92,787.245
3040.37,788.605
3041.82,815.011
3043.27,811.713
3044.72,798.878
3046.18,789.957
3047.63,778.006
3049.08,797.342
3050.53,790.644
3051.98,798.372
3053.43,799.32
3054.89,801.605
3056.34,799.251
3057.79,807.028
3059.24,801.152
3060.69,796.95
3062.15,797.691
3063.6,825.923
3065.05,800.78
3066.5,814.422
3067.95,813.411
3069.4,824.245
3070.86,819.552
3072.31,836.968
3073.76,839.984
3075.21,822.92
3076.66,820.75
3078.11,831.677
3079.57,852.439
3081.02,842.154
3082.47,852.849
3083.92,871.355
3085.37,862.376
3086.83,869.709
3088.28,863.927
3089.73,879.526
3091.18,888.635
3092.63,896.236
3094.08,911.163
3095.54,927.178
3096.99,922.558
3098.44,946.759
3099.89,963.54
3101.34,980.568
3102.8,972.958
3104.25,987.698
3105.7,1002.09
3107.15,1016.92
3108.6,998.215
3110.05,1062.83
3111.51,1057.18
3112.96,1069.05
3114.41,1081.79
3115.86,1106.09
3117.31,1116.29
3118.76,1125.57
3120.22,1130.43
3121.67,1139.36
3123.12,1154.37
3124.57,1187.26
3126.02,1215.74
3127.48,1238.61
3128.93,1217.26
3130.38,1208.52
3131.83,1273.31
3133.28,1276.95
3134.73,1282.91
3136.19,1309.58
3137.64,1312.65
3139.09,1324.67
3140.54,1310.76
3141.99,1326.85
3143.45,1320.36
3144.9,1355.44
3146.35,1357.93
3147.8,1370.32
3149.25,1356.51
3150.7,1379.21
3152.16,1354.31
3153.61,1341.38
3155.06,1347.63
3156.51,1363.17
3157.96,1343
3159.42,1356.32
3160.87,1357.05
3162.32,1365.59
3163.77,1387.02
3165.22,1393.29
3166.67,1395.21
3168.13,1387.89
3169.58,1399.45
3171.03,1433.59
3172.48,1453.03
3173.93,1421.76
3175.38,1422.35
3176.84,1434.11
3178.29,1434.29
3179.74,1431.97
3181.19,1453.09
3182.64,1440.18
3184.1,1486.65
3185.55,1499.1
3187,1492.47
3188.45,1521.01
3189.9,1547.16
3191.35,1546.43
3192.81,1582.42
3194.26,1584.69
3195.71,1584.47
3197.16,1569.91
3198.61,1560.54
3200.06,1581.13
3201.52,1570.4
3202.97,1599.49
3204.42,1602.64
3205.87,1618.08
3207.32,1581.38
3208.78,1551.22
3210.23,1551.15
3211.68,1561.35
3213.13,1514.58
3214.58,1497.91
3216.03,1470.69
3217.49,1431.42
3218.94,1394.41
3220.39,1378.3
3221.84,1367.65
3223.29,1322.64
3224.75,1288.81
3226.2,1244.27
3227.65,1204.49
3229.1,1189.33
3230.55,1158.95
3232,1126.52
3233.46,1101.58
3234.91,1082.9
3236.36,1055.93
3237.81,1000.9
3239.26,1007.58
3240.72,947.632
3242.17,931.054
3243.62,917.433
3245.07,905.244
3246.52,885.526
3247.97,860.935
3249.43,863.912
3250.88,832.129
3252.33,825.39
3253.78,824.196
3255.23,801.35
3256.68,790.376
3258.14,788.358
3259.59,752.233
3261.04,761.928
3262.49,748.519
3263.94,737.488
3265.4,735.735
3266.85,736.24
3268.3,724.185
3269.75,732.425
3271.2,727.901
3272.65,709.841
3274.11,701.521
3275.56,707.287
3277.01,687.074
3278.46,718.777
3279.91,692.616
3281.37,701.413
3282.82,685.758
3284.27,676.152
3285.72,675.563
3287.17,696.893
3288.62,680.481
3290.08,687.746
3291.53,681.478
3292.98,673.07
3294.43,652.616
3295.88,673.77
3297.33,673.401
3298.79,649.884
3300.24,658.698
3301.69,667.858
3303.14,652.919
3304.59,665.295
3306.05,662.452
3307.5,672.435
3308.95,647.598
3310.4,650.371
3311.85,652.563
3313.3,667.933
3314.76,647.523
3316.21,673.163
3317.66,650.808
3319.11,645.746
3320.56,650.868
3322.02,657.25
3323.47,655.125
3324.92,660.645
3326.37,646.038
3327.82,654.007
3329.27,634.568
3330.73,647.518
3332.18,648.398
3333.63,662.701
3335.08,654.895
3336.53,633.872
3337.98,637.505
3339.44,636.054
3340.89,622.701
3342.34,640.96
3343.79,636.242
3345.24,641.236
3346.7,652.125
3348.15,637.465
3349.6,628.047
3351.05,634.25
3352.5,645.504
3353.95,657.12
3355.41,640.511
3356.86,642.064
3358.31,645.841
3359.76,667.185
3361.21,645.863
3362.67,630.418
3364.12,647.09
3365.57,624.317
3367.02,629.321
3368.47,623.893
3369.92,639.007
3371.38,638.229
3372.83,649.504
3374.28,638.077
3375.73,637.695
3377.18,626.315
3378.63,614.638
3380.09,636.45
3381.54,619.751
3382.99,632.463
3384.44,639.404
3385.89,618.87
3387.35,632.309
3388.8,619.058
3390.25,619.947
3391.7,617.675
3393.15,630.732
3394.6,623.904
3396.06,625.501
3397.51,608.295
3398.96,629.49
3400.41,634.367
3401.86,632.289
3403.32,629.814
3404.77,636.317
3406.22,633.622
3407.67,628.336
3409.12,632.419
3410.57,623.938
3412.03,624.75
3413.48,622.849
3414.93,623.26
3416.38,623.573
3417.83,610.794
3419.28,623.781
3420.74,624.264
3422.19,616.412
3423.64,612.378
3425.09,611.096
3426.54,605.69
3428,625.2
3429.45,618.505
3430.9,645.997
3432.35,631.675
3433.8,632.532
3435.25,607.007
3436.71,641.107
3438.16,623.167
3439.61,623.831
3441.06,627.531
3442.51,608.904
3443.97,597.005
3445.42,609.182
3446.87,611.443
3448.32,615.352
3449.77,619.897
3451.22,625.097
3452.68,624.908
3454.13,608.566
3455.58,618.133
3457.03,623.414
3458.48,619.569
3459.94,605.811
3461.39,594.984
3462.84,608.343
3464.29,602.401
3465.74,593.083
3467.19,620.161
3468.65,617.586
3470.1,609.52
3471.55,613.672
3473,614.911
3474.45,608.372
3475.9,622.474
3477.36,608.784
3478.81,608.051
3480.26,616.273
3481.71,609.964
3483.16,620.986
3484.62,616.185
3486.07,617.142
3487.52,599.867
3488.97,599.98
3490.42,610.65
3491.87,627.651
3493.33,626.593
3494.78,613.323
3496.23,611.855
3497.68,604.735
3499.13,624.716
3500.58,620.065
3502.04,625.458
3503.49,629.162
3504.94,604.201
3506.39,605.137
3507.84,622.508
3509.3,610.59
3510.75,618.563
3512.2,627.152
3513.65,618.408
3515.1,631.013
3516.55,625.711
3518.01,618.749
3519.46,613.163
3520.91,625.827
3522.36,632.382
3523.81,630.843
3525.27,623.377
3526.72,614.267
3528.17,599.175
3529.62,613.893
3531.07,608.797
3532.52,602.367
3533.98,619.992
3535.43,604.79
3536.88,610.678
3538.33,628.603
3539.78,627.288
3541.24,607.304
3542.69,615.527
3544.14,601.531
3545.59,610.73
3547.04,611.742
3548.49,602.086
3549.95,608.199
3551.4,599.41
3552.85,618.287
3554.3,630.622
3555.75,619.015
3557.2,600.265
3558.66,599.862
3560.11,595.877
3561.56,617.331
3563.01,622.533
3564.46,620.039
3565.92,613.076
3567.37,612.607
3568.82,584.805
3570.27,611.933
3571.72,613.618
3573.17,591.782
3574.63,606.246
3576.08,606.974
3577.53,607.365
3578.98,616.668
3580.43,607.022
3581.89,611.326
3583.34,609.107
3584.79,620.119
3586.24,604.897
3587.69,595.221
3589.14,607.81
3590.6,615.756
3592.05,612.549
3593.5,615.241
3594.95,618.545
3596.4,608.544
3597.85,615.138
3599.31,603.32
3600.76,607.742
3602.21,600.267
3603.66,598.538
3605.11,590.012
3606.57,598.072
3608.02,603.415
3609.47,605.214
3610.92,619.169
3612.37,597.068
3613.82,600.857
3615.28,614.184
3616.73,610.029
3618.18,602.388
3619.63,606.763
3621.08,609.976
3622.54,607.578
3623.99,600.11
3625.44,611.013
3626.89,615.897
3628.34,606.796
3629.79,604.269
3631.25,611.951
3632.7,604.962
3634.15,604.367
3635.6,612.871
3637.05,620.109
3638.5,609.44
3639.96,613.341
3641.41,614.23
3642.86,614.249
3644.31,603.437
3645.76,600.098
3647.22,615.319
3648.67,621.814
3650.12,625.681
3651.57,620.815
3653.02,606.322
3654.47,610.219
3655.93,595.615
3657.38,625.492
3658.83,629.864
3660.28,613.93
3661.73,612.155
3663.19,606.941
3664.64,611.327
3666.09,618.651
3667.54,614.695
3668.99,606.152
3670.44,618.708
3671.9,614.071
3673.35,614.195
3674.8,621.003
3676.25,620.041
3677.7,633.792
3679.16,604.183
3680.61,611.607
3682.06,607.528
3683.51,607.698
3684.96,621.713
3686.41,619.535
3687.87,615.265
3689.32,613.684
3690.77,626.137
3692.22,632.06
3693.67,604.169
3695.12,608.324
3696.58,608.106
3698.03,639.582
3699.48,630.321
3700.93,626.29
3702.38,641.851
3703.84,617.02
3705.29,602.698
3706.74,596.315
3708.19,605.833
3709.64,633.614
3711.09,630.677
3712.55,626.336
3714,625.887
3715.45,626.183
3716.9,620.901
3718.35,614.815
3719.8,602.113
3721.26,627.747
3722.71,585.531
3724.16,636.365
3725.61,630.445
3727.06,613.468
3728.52,615.502
3729.97,623.431
3731.42,611.37
3732.87,618.376
3734.32,632.805
3735.77,598.972
3737.23,633.503
3738.68,637.026
3740.13,630.707
3741.58,642.957
3743.03,614.995
3744.49,628.479
3745.94,628.498
3747.39,628.407
3748.84,632.923
3750.29,644.144
3751.74,637.237
3753.2,630.244
3754.65,630.964
3756.1,624.458
3757.55,638.32
3759,647.897
3760.46,626.249
3761.91,631.766
3763.36,630.242
3764.81,626.467
3766.26,640.187
3767.71,630.731
3769.17,649.694
3770.62,646.649
3772.07,648.832
3773.52,637.585
3774.97,632.293
3776.42,638.153
3777.88,625.909
3779.33,622.987
3780.78,634.757
3782.23,636.02
3783.68,631.61
3785.14,655.727
3786.59,633.352
3788.04,632.019
3789.49,619.22
3790.94,628.564
3792.39,622.948
3793.85,643.548
3795.3,626.38
3796.75,652.012
3798.2,648.722
3799.65,656.967
3801.1,656.259
3802.56,639.249
3804.01,646.333
3805.46,644.634
3806.91,654.955
3808.36,636.316
3809.82,636.962
3811.27,637.979
3812.72,654.439
3814.17,664.838
3815.62,650.015
3817.07,650.587
3818.53,654.75
3819.98,653.217
3821.43,651.529
3822.88,641.659
3824.33,647.395
3825.79,649.204
3827.24,656.919
3828.69,658.948
3830.14,653.756
3831.59,644.186
3833.04,657.307
3834.5,651.657
3835.95,648.293
3837.4,645.452
3838.85,643.05
3840.3,651.144
3841.76,652.651
3843.21,643.553
3844.66,645.341
3846.11,648.087
3847.56,659.146
3849.01,656.967
3850.47,651.6
3851.92,648.289
3853.37,667.295
3854.82,652.033
3856.27,658.779
3857.72,670.667
3859.18,681.186
3860.63,659.72
3862.08,659.289
3863.53,673.507
3864.98,673.877
3866.44,676.172
3867.89,665.732
3869.34,673.756
3870.79,658.095
3872.24,667.775
3873.69,667.017
3875.15,657.614
3876.6,683.003
3878.05,672.62
3879.5,668.86
3880.95,668.287
3882.41,668.045
3883.86,681.926
3885.31,670.121
3886.76,682.494
3888.21,699.336
3889.66,661.628
3891.12,676.922
3892.57,697.013
3894.02,674.266
3895.47,687.656
3896.92,693.541
3898.37,699.223
3899.83,673.213
3901.28,694.961
3902.73,700.226
3904.18,702.262
3905.63,707.402
3907.09,689.48
3908.54,692.897
3909.99,693.273
3911.44,706.48
3912.89,710.942
3914.34,689.362
3915.8,720.346
3917.25,717.261
3918.7,699.253
3920.15,712.182
3921.6,708.376
3923.06,721.344
3924.51,717.312
3925.96,708.067
3927.41,715.463
3928.86,725.242
3930.31,722.28
3931.77,737.206
3933.22,721.309
3934.67,717.656
3936.12,720.549
3937.57,703.646
3939.02,738.528
3940.48,737.245
3941.93,734.38
3943.38,730.192
3944.83,742.19
3946.28,745.871
3947.74,725.494
3949.19,749.556
3950.64,752.11
3952.09,757.891
3953.54,750.182
3954.99,763.648
3956.45,739.707
3957.9,764.15
3959.35,747.487
3960.8,747.595
3962.25,749.684
3963.71,735.499
3965.16,773.123
3966.61,773.345
3968.06,745.676
3969.51,783.32
3970.96,759.816
3972.42,768.864
3973.87,779.575
3975.32,789.042
3976.77,772.033
3978.22,783.552
3979.68,778.1
3981.13,794.982
3982.58,785.643
3984.03,786.171
3985.48,804.054
3986.93,800.886
3988.39,803.583
3989.84,799.513
3991.29,788.273
3992.74,793.312
3994.19,791.886
3995.64,784.208
3997.1,810.154
3998.55,811.972
4000,799.161
