-20,72.4036
-18.5482,70.1435
-17.0964,72.1041
-15.6446,77.957
-14.1928,77.8411
-12.7411,77.1996
-11.2893,81.1997
-9.83749,90.1675
-8.3857,88.9758
-6.93391,108.349
-5.48212,324.745
-4.03034,3257.17
-2.57855,12391.7
-1.12676,33198.2
0.325027,37871.1
1.77681,34218.9
3.2286,14150.2
4.68039,4234.05
6.13218,871.597
7.58397,156.373
9.03575,108.587
10.4875,104.196
11.9393,98.0689
13.3911,97.6562
14.8429,96.6392
16.2947,93.3376
17.7465,88.9875
19.1983,84.6709
20.6501,85.2864
22.1018,84.95
23.5536,78.6987
25.0054,81.474
26.4572,77.9612
27.909,73.0339
29.3608,72.5173
30.8126,71.4154
32.2644,74.5597
33.7161,73.4725
35.1679,72.8479
36.6197,75.0954
38.0715,70.7681
39.5233,72.5175
40.9751,74.5525
42.4269,74.5775
43.8787,77.1164
45.3304,83.1184
46.7822,95.1849
48.234,117.857
49.6858,161.584
51.1376,241.022
52.5894,398.45
54.0412,655.41
55.493,1000.82
56.9447,1408.71
58.3965,1847.33
59.8483,2253.28
61.3001,2622.52
62.7519,2947.41
64.2037,3198.8
65.6555,3342.19
67.1073,3485.21
68.559,3611.23
70.0108,3703
71.4626,3757.44
72.9144,3793.73
74.3662,3794.78
75.818,3768.83
77.2698,3776.58
78.7216,3806.37
80.1733,3847.53
81.6251,3916.03
83.0769,3991.38
84.5287,4094.9
85.9805,4143.55
87.4323,4150.9
88.8841,4153.86
90.3359,4112.16
91.7877,4006.76
93.2394,3949.19
94.6912,3747.78
96.143,3603.28
97.5948,3467.91
99.0466,3272.8
100.498,3141.75
101.95,3020.84
103.402,2921.6
104.854,2842.05
106.306,2757.41
107.757,2756.66
109.209,2720.59
110.661,2660.49
112.113,2580.42
113.564,2503.74
115.016,2474.59
116.468,2414.9
117.92,2359.58
119.372,2287.52
120.823,2200.99
122.275,2192.41
123.727,2170.9
125.179,2133.64
126.631,2075.99
128.082,2027.18
129.534,2006.09
130.986,2020.86
132.438,2040.78
133.889,2022.48
135.341,1957.34
136.793,1953.96
138.245,1896.02
139.697,1824.11
141.148,1810.17
142.6,1750.05
144.052,1707.72
145.504,1678.67
146.956,1642.38
148.407,1588
149.859,1600.9
151.311,1567.7
152.763,1548.41
154.215,1540.53
155.666,1512.55
157.118,1518.05
158.57,1512.89
160.022,1499.13
161.473,1496.53
162.925,1493.64
164.377,1479.51
165.829,1489.5
167.281,1511.11
168.732,1522.53
170.184,1469.91
171.636,1458.17
173.088,1437.76
174.54,1411.92
175.991,1388.91
177.443,1345.41
178.895,1339.36
180.347,1320.02
181.798,1313.34
183.25,1312.17
184.702,1280.14
186.154,1276.15
187.606,1264.44
189.057,1251.03
190.509,1232.1
191.961,1212.76
193.413,1194.72
194.865,1201.91
196.316,1199
197.768,1180.11
199.22,1161.73
200.672,1170.4
202.124,1154.68
203.575,1154.93
205.027,1168.19
206.479,1120.84
207.931,1128.11
209.382,1121.15
210.834,1122.1
212.286,1138.07
213.738,1131.82
215.19,1105.54
216.641,1109.91
218.093,1117.14
219.545,1122.57
220.997,1134.75
222.449,1118.38
223.9,1120.49
225.352,1109.62
226.804,1094.23
228.256,1110.59
229.707,1100.13
231.159,1080.84
232.611,1071.38
234.063,1078.42
235.515,1080.94
236.966,1072.9
238.418,1081.02
239.87,1079.34
241.322,1083.82
242.774,1097.13
244.225,1073.23
245.677,1077.53
247.129,1075.94
248.581,1065.81
250.033,1046.07
251.484,1027.55
252.936,1039.3
254.388,1055.12
255.84,1051.68
257.291,1041.53
258.743,1052.5
260.195,1044.88
261.647,1039.61
263.099,1040.75
264.55,1051.31
266.002,1038.77
267.454,1035.73
268.906,1010.56
270.358,991.323
271.809,1001.21
273.261,991.709
274.713,1001.8
276.165,996.704
277.616,989.586
279.068,985.505
280.52,971.799
281.972,954.874
283.424,958.162
284.875,950.027
286.327,930.669
287.779,921.555
289.231,922.481
290.683,928.369
292.134,920.794
293.586,910.92
295.038,915.404
296.49,896.87
297.941,887.652
299.393,897.804
300.845,901.489
302.297,877.222
303.749,870.591
305.2,883.763
306.652,874.617
308.104,863.924
309.556,861.475
311.008,847.639
312.459,855.444
313.911,852.364
315.363,847.966
316.815,845.318
318.267,844.718
319.718,813.424
321.17,828.166
322.622,824.82
324.074,813.742
325.525,827.25
326.977,815.845
328.429,833.05
329.881,825.983
331.333,814.981
332.784,822.591
334.236,816.65
335.688,807.592
337.14,802.185
338.592,796.864
340.043,797.345
341.495,826.343
342.947,804.828
344.399,801.974
345.85,802.755
347.302,804.11
348.754,793.626
350.206,809.195
351.658,793.341
353.109,786.901
354.561,786.634
356.013,789.07
357.465,785.178
358.917,782.174
360.368,785.829
361.82,789.595
363.272,783.209
364.724,781.959
366.176,787.627
367.627,775.053
369.079,763.108
370.531,760.069
371.983,763.441
373.434,767.399
374.886,769.226
376.338,768.946
377.79,769.674
379.242,769.615
380.693,763.721
382.145,773.29
383.597,773.11
385.049,766.01
386.501,767.913
387.952,775.556
389.404,782.847
390.856,764.935
392.308,752.147
393.759,750.174
395.211,757.294
396.663,769.995
398.115,758.552
399.567,750.336
401.018,750.81
402.47,757.367
403.922,760.706
405.374,778.146
406.826,766.123
408.277,771.676
409.729,770.004
411.181,755.927
412.633,775.05
414.085,754.192
415.536,744.461
416.988,750.73
418.44,762.876
419.892,781.342
421.343,772.799
422.795,767.466
424.247,750.155
425.699,743.792
427.151,756.203
428.602,761.73
430.054,728.093
431.506,762.193
432.958,776.797
434.41,756.58
435.861,736.202
437.313,754.579
438.765,738.997
440.217,745.575
441.668,742.75
443.12,728.27
444.572,730.942
446.024,737.673
447.476,726.825
448.927,722.649
450.379,728.708
451.831,754.295
453.283,773.519
454.735,745.84
456.186,748.54
457.638,747.25
459.09,738.729
460.542,747.046
461.993,738.65
463.445,736.055
464.897,734.687
466.349,748.27
467.801,763.947
469.252,744.715
470.704,745.119
472.156,757.272
473.608,750.586
475.06,757.274
476.511,776.477
477.963,739.82
479.415,741.388
480.867,735.813
482.319,751.083
483.77,761.89
485.222,747.404
486.674,723.289
488.126,725.775
489.577,731.819
491.029,749.201
492.481,753.589
493.933,725.762
495.385,733.012
496.836,719.262
498.288,710.337
499.74,722.817
501.192,737.954
502.644,714.678
504.095,708.425
505.547,724.813
506.999,730.243
508.451,719.936
509.902,703.738
511.354,709.392
512.806,706.312
514.258,704.749
515.71,723.476
517.161,730.645
518.613,711.016
520.065,696.229
521.517,697.473
522.969,715.602
524.42,719.571
525.872,712.57
527.324,690.365
528.776,685.624
530.228,704.043
531.679,703.501
533.131,710.636
534.583,716.217
536.035,703.403
537.486,705.609
538.938,709.082
540.39,703.717
541.842,705.185
543.294,703.844
544.745,707.8
546.197,694.846
547.649,702.893
549.101,705.877
550.553,703.535
552.004,703.214
553.456,712.306
554.908,710.353
556.36,730.337
557.811,710.842
559.263,705.417
560.715,709.278
562.167,693.254
563.619,703.405
565.07,700.519
566.522,695.242
567.974,700.072
569.426,714.622
570.878,714.698
572.329,718.739
573.781,697.646
575.233,704.603
576.685,710.438
578.137,706.332
579.588,693.224
581.04,719.943
582.492,698.409
583.944,691.551
585.395,702.754
586.847,717.184
588.299,716.49
589.751,682.184
591.203,694.61
592.654,696.98
594.106,701.501
595.558,704.752
597.01,706.96
598.462,718.191
599.913,711.77
601.365,693.427
602.817,684.651
604.269,684.135
605.72,689.222
607.172,705.082
608.624,696.307
610.076,706.006
611.528,717.332
612.979,716.705
614.431,706.007
615.883,692.122
617.335,693.528
618.787,712.216
620.238,703.574
621.69,709.791
623.142,722.111
624.594,711.68
626.046,699.569
627.497,703.699
628.949,710.136
630.401,711.587
631.853,717.277
633.304,726.101
634.756,719.622
636.208,716.79
637.66,709.748
639.112,704.377
640.563,709.48
642.015,734.538
643.467,720.135
644.919,726.8
646.371,712.892
647.822,720.331
649.274,730.802
650.726,735.428
652.178,734.066
653.629,730.458
655.081,754.797
656.533,744.162
657.985,733.442
659.437,732.497
660.888,730.984
662.34,730.982
663.792,746.788
665.244,754.756
666.696,760.148
668.147,762.872
669.599,760.131
671.051,751.904
672.503,750.237
673.954,759.084
675.406,755.819
676.858,740.084
678.31,734.645
679.762,736.107
681.213,753.16
682.665,737.828
684.117,756.245
685.569,761.083
687.021,752.084
688.472,761.963
689.924,721.609
691.376,750.231
692.828,759.949
694.28,758.997
695.731,764.467
697.183,757.142
698.635,750.146
700.087,739.946
701.538,734.927
702.99,743.596
704.442,756.922
705.894,770.403
707.346,753.684
708.797,738.475
710.249,734.197
711.701,748.829
713.153,763.841
714.605,760.55
716.056,754.856
717.508,776.686
718.96,761.423
720.412,743.509
721.863,747.634
723.315,750.142
724.767,748.557
726.219,768.37
727.671,746.846
729.122,749.493
730.574,747.662
732.026,757.313
733.478,751.849
734.93,758.561
736.381,762.901
737.833,750.269
739.285,747.897
740.737,744.624
742.189,750.328
743.64,755.902
745.092,762.477
746.544,738.172
747.996,761.178
749.447,765.805
750.899,743.348
752.351,733.396
753.803,759.347
755.255,757.962
756.706,762.623
758.158,753.596
759.61,751.068
761.062,743.363
762.514,738.327
763.965,732.827
765.417,740.45
766.869,757.357
768.321,774.03
769.772,766.52
771.224,759.484
772.676,753.378
774.128,749.239
775.58,764.034
777.031,750.393
778.483,753.082
779.935,753.545
781.387,751.688
782.839,761.252
784.29,769.603
785.742,760.768
787.194,760.274
788.646,762.818
790.098,776.173
791.549,772.567
793.001,759.672
794.453,752.689
795.905,786.341
797.356,773.369
798.808,772.625
800.26,771.456
801.712,766.78
803.164,767.971
804.615,769.752
806.067,770.169
807.519,767.296
808.971,781.074
810.423,782.335
811.874,775.012
813.326,783.059
814.778,790.034
816.23,776.029
817.681,783.827
819.133,773.499
820.585,797.772
822.037,807.272
823.489,795.884
824.94,791.146
826.392,823.806
827.844,794.19
829.296,799.039
830.748,818.17
832.199,818.427
833.651,799.705
835.103,806.545
836.555,790.065
838.007,822.441
839.458,812.913
840.91,812.541
842.362,804.494
843.814,805.78
845.265,811.077
846.717,809.838
848.169,824.643
849.621,824.363
851.073,829.548
852.524,831.405
853.976,817.723
855.428,827.623
856.88,836.975
858.332,840.731
859.783,826.773
861.235,817.174
862.687,813.863
864.139,820.018
865.59,845.914
867.042,833.154
868.494,832.105
869.946,810.87
871.398,818.854
872.849,835.602
874.301,831.647
875.753,840.033
877.205,847.794
878.657,829.654
880.108,818.829
881.56,823.962
883.012,833.96
884.464,841.307
885.915,834.544
887.367,811.539
888.819,852.454
890.271,835.112
891.723,843.079
893.174,844.278
894.626,838.612
896.078,833.476
897.53,853.657
898.982,851.002
900.433,864.811
901.885,861.048
903.337,860.602
904.789,873.578
906.241,884.836
907.692,874.349
909.144,862.172
910.596,866.386
912.048,858.995
913.499,900.85
914.951,875.164
916.403,868.849
917.855,884.143
919.307,908.629
920.758,901.079
922.21,889.444
923.662,893.61
925.114,900.834
926.566,892.676
928.017,883.589
929.469,887.589
930.921,892.541
932.373,881.069
933.824,897.743
935.276,874.725
936.728,891.129
938.18,907.769
939.632,907.028
941.083,901.26
942.535,897.364
943.987,875.94
945.439,877.328
946.891,869.658
948.342,898.659
949.794,907.299
951.246,891.628
952.698,910.801
954.15,885.472
955.601,875.895
957.053,883.145
958.505,909.694
959.957,911.183
961.408,895.784
962.86,889.301
964.312,885.152
965.764,893.592
967.216,902.39
968.667,892.573
970.119,879.795
971.571,876.828
973.023,875.077
974.475,878.805
975.926,880.011
977.378,881.483
978.83,894.286
980.282,892.744
981.733,898.569
983.185,897.64
984.637,906.289
986.089,896.25
987.541,890.61
988.992,898.385
990.444,914.246
991.896,909.796
993.348,927.459
994.8,923.205
996.251,902.543
997.703,910.515
999.155,924.682
1000.61,916.035
1002.06,916.423
1003.51,925.364
1004.96,931.749
1006.41,932.333
1007.87,911.297
1009.32,906.423
1010.77,925.227
1012.22,951.611
1013.67,970.416
1015.12,954.586
1016.58,967.437
1018.03,987.672
1019.48,987.068
1020.93,979.11
1022.38,960.076
1023.84,980.494
1025.29,977.357
1026.74,982.302
1028.19,994.914
1029.64,1004.85
1031.09,1005.4
1032.55,1005.16
1034,1014.25
1035.45,1018.57
1036.9,1012.67
1038.35,1016.76
1039.8,1038.33
1041.26,1081.21
1042.71,1079.46
1044.16,1069.77
1045.61,1064.28
1047.06,1067.39
1048.52,1106.4
1049.97,1104.52
1051.42,1099.35
1052.87,1100.01
1054.32,1086.25
1055.77,1099.13
1057.23,1112.47
1058.68,1126.82
1060.13,1119.38
1061.58,1185.38
1063.03,1171.39
1064.49,1173.16
1065.94,1175.92
1067.39,1190.47
1068.84,1205.85
1070.29,1221.57
1071.74,1215.93
1073.2,1203.02
1074.65,1231.35
1076.1,1253.45
1077.55,1264.7
1079,1265.24
1080.46,1256.39
1081.91,1259.67
1083.36,1292.37
1084.81,1262.71
1086.26,1262.72
1087.71,1296.36
1089.17,1292.6
1090.62,1281.21
1092.07,1264.44
1093.52,1265.32
1094.97,1275.16
1096.42,1245.16
1097.88,1259.5
1099.33,1252.47
1100.78,1225.02
1102.23,1236.57
1103.68,1235.28
1105.14,1223.61
1106.59,1225.06
1108.04,1238.84
1109.49,1236.24
1110.94,1195.32
1112.39,1191.89
1113.85,1185.69
1115.3,1177.2
1116.75,1189.85
1118.2,1194.3
1119.65,1180.16
1121.11,1193.2
1122.56,1168.51
1124.01,1168.41
1125.46,1172.8
1126.91,1145.97
1128.36,1146.44
1129.82,1152.56
1131.27,1144.15
1132.72,1141.51
1134.17,1126.98
1135.62,1142.08
1137.07,1128.01
1138.53,1120.44
1139.98,1133.66
1141.43,1134.08
1142.88,1128.85
1144.33,1114.49
1145.79,1105.2
1147.24,1110.95
1148.69,1095.44
1150.14,1099.2
1151.59,1130.24
1153.04,1147.47
1154.5,1142.57
1155.95,1127.12
1157.4,1116.54
1158.85,1113.07
1160.3,1104.16
1161.76,1122.04
1163.21,1128.25
1164.66,1124.41
1166.11,1125.67
1167.56,1116.97
1169.01,1129.99
1170.47,1150.52
1171.92,1152.23
1173.37,1137.87
1174.82,1140.69
1176.27,1113.57
1177.72,1172.52
1179.18,1131.23
1180.63,1137.4
1182.08,1157.98
1183.53,1165.51
1184.98,1157.14
1186.44,1154.23
1187.89,1150.6
1189.34,1175.26
1190.79,1140.26
1192.24,1174.33
1193.69,1172.75
1195.15,1142.85
1196.6,1160.92
1198.05,1190.56
1199.5,1184.74
1200.95,1179.52
1202.41,1177.25
1203.86,1193.03
1205.31,1192.74
1206.76,1198.71
1208.21,1221.75
1209.66,1211.07
1211.12,1204.63
1212.57,1218.85
1214.02,1217.26
1215.47,1201.66
1216.92,1203.17
1218.37,1212.72
1219.83,1218.65
1221.28,1229.31
1222.73,1207.66
1224.18,1218.91
1225.63,1242.21
1227.09,1246.34
1228.54,1235.29
1229.99,1237.47
1231.44,1223.7
1232.89,1222.69
1234.34,1229.15
1235.8,1263.6
1237.25,1260.49
1238.7,1272.64
1240.15,1271.98
1241.6,1279.43
1243.06,1294.63
1244.51,1279.19
1245.96,1318.52
1247.41,1330.16
1248.86,1301.44
1250.31,1323.04
1251.77,1330.68
1253.22,1341.37
1254.67,1357.33
1256.12,1373.02
1257.57,1384.97
1259.02,1411.83
1260.48,1403.34
1261.93,1401.05
1263.38,1425.5
1264.83,1418.79
1266.28,1425.3
1267.74,1456.96
1269.19,1482.85
1270.64,1504.43
1272.09,1520.7
1273.54,1519.32
1274.99,1533.13
1276.45,1568.11
1277.9,1602.89
1279.35,1594.01
1280.8,1675.77
1282.25,1658.6
1283.71,1655.17
1285.16,1715.45
1286.61,1770.15
1288.06,1783.7
1289.51,1796.85
1290.96,1828.43
1292.42,1918.9
1293.87,1917.4
1295.32,2050.47
1296.77,2094.86
1298.22,2110.45
1299.67,2176.99
1301.13,2262.32
1302.58,2335.4
1304.03,2400.75
1305.48,2482.97
1306.93,2610.29
1308.39,2678.36
1309.84,2753.34
1311.29,2915.14
1312.74,3063.25
1314.19,3194.67
1315.64,3301.24
1317.1,3438.69
1318.55,3609.64
1320,3764.61
1321.45,3937.71
1322.9,4066.01
1324.36,4220.63
1325.81,4337.24
1327.26,4512.98
1328.71,4577.87
1330.16,4691.16
1331.61,4754.15
1333.07,4807.66
1334.52,4854.74
1335.97,4842.34
1337.42,4752.92
1338.87,4753.82
1340.33,4667.93
1341.78,4514
1343.23,4401.1
1344.68,4263.51
1346.13,4116.41
1347.58,3994.07
1349.04,3863.25
1350.49,3694.88
1351.94,3499.34
1353.39,3340.11
1354.84,3250.26
1356.29,3145.55
1357.75,3008.35
1359.2,2847.31
1360.65,2797.93
1362.1,2673.82
1363.55,2571.17
1365.01,2498.53
1366.46,2409.34
1367.91,2318.42
1369.36,2247.62
1370.81,2230.99
1372.26,2183.25
1373.72,2087.92
1375.17,2023.1
1376.62,1989.03
1378.07,1939.71
1379.52,1943.02
1380.98,1925.39
1382.43,1891.24
1383.88,1883.41
1385.33,1865.2
1386.78,1831.47
1388.23,1826.31
1389.69,1766.88
1391.14,1776.6
1392.59,1773.28
1394.04,1749.92
1395.49,1739.63
1396.94,1712.36
1398.4,1736.54
1399.85,1752.94
1401.3,1715.97
1402.75,1702.41
1404.2,1715.93
1405.66,1728.81
1407.11,1703.97
1408.56,1709.18
1410.01,1716.83
1411.46,1714.2
1412.91,1708.19
1414.37,1731.59
1415.82,1724.5
1417.27,1724.32
1418.72,1709.41
1420.17,1693.03
1421.63,1729.93
1423.08,1740.37
1424.53,1744.43
1425.98,1732.41
1427.43,1755.41
1428.88,1746.69
1430.34,1756.05
1431.79,1769.53
1433.24,1753.07
1434.69,1768.85
1436.14,1784.16
1437.59,1785.03
1439.05,1806.55
1440.5,1811.64
1441.95,1835.34
1443.4,1859.91
1444.85,1845.73
1446.31,1892.16
1447.76,1918.07
1449.21,1872
1450.66,1893.97
1452.11,1924.42
1453.56,1929.34
1455.02,1931.76
1456.47,1968.72
1457.92,2009.97
1459.37,2035.09
1460.82,2047.31
1462.28,2056.51
1463.73,2077.42
1465.18,2124.57
1466.63,2163.94
1468.08,2160.26
1469.53,2182.65
1470.99,2205.89
1472.44,2215.11
1473.89,2277.69
1475.34,2324.39
1476.79,2358.45
1478.24,2382.91
1479.7,2437.14
1481.15,2453.25
1482.6,2479.72
1484.05,2517.49
1485.5,2585.87
1486.96,2642.04
1488.41,2696.6
1489.86,2716.34
1491.31,2780.83
1492.76,2862.25
1494.21,2910.44
1495.67,2969.21
1497.12,3074.4
1498.57,3139.84
1500.02,3187.03
1501.47,3239.71
1502.93,3352.85
1504.38,3425.22
1505.83,3494.52
1507.28,3653.67
1508.73,3774.8
1510.18,3856.46
1511.64,3990.32
1513.09,4145.59
1514.54,4285.64
1515.99,4461.37
1517.44,4681.92
1518.89,4863.09
1520.35,5100.55
1521.8,5314.7
1523.25,5589.4
1524.7,5930.6
1526.15,6268.79
1527.61,6670.36
1529.06,7064.09
1530.51,7612.69
1531.96,8187.6
1533.41,8778.7
1534.86,9438.22
1536.32,10251.9
1537.77,11113.4
1539.22,12050.5
1540.67,13229.7
1542.12,14320.8
1543.58,15765.2
1545.03,17192.2
1546.48,18672
1547.93,20326.8
1549.38,22058.2
1550.83,23828.6
1552.29,25668.6
1553.74,27571.7
1555.19,29496
1556.64,31410.4
1558.09,33218.9
1559.54,35005.7
1561,36793.9
1562.45,38448.1
1563.9,39823.4
1565.35,40833.4
1566.8,41645.1
1568.26,42015.4
1569.71,41823.1
1571.16,41269.3
1572.61,40149.1
1574.06,38727.2
1575.51,36941.5
1576.97,34842.1
1578.42,32581.1
1579.87,30214.2
1581.32,27839.8
1582.77,25576.9
1584.23,23301.1
1585.68,21043.7
1587.13,19216.4
1588.58,17446.2
1590.03,15881.4
1591.48,14396.3
1592.94,13209.5
1594.39,12177.6
1595.84,11243
1597.29,10462.6
1598.74,9735.55
1600.2,9147.07
1601.65,8577.32
1603.1,7977.83
1604.55,7495.36
1606,7119.18
1607.45,6789.22
1608.91,6451.91
1610.36,6064.2
1611.81,5781.07
1613.26,5481.2
1614.71,5115.14
1616.16,4928.68
1617.62,4655.86
1619.07,4403.63
1620.52,4222.16
1621.97,4053.26
1623.42,3901.95
1624.88,3753.84
1626.33,3567.51
1627.78,3442.33
1629.23,3345.62
1630.68,3213.82
1632.13,3086.04
1633.59,2993.58
1635.04,2935.75
1636.49,2936.9
1637.94,2785.71
1639.39,2726.76
1640.85,2613.78
1642.3,2567.02
1643.75,2531.84
1645.2,2471.44
1646.65,2432.2
1648.1,2426.22
1649.56,2363.91
1651.01,2291.33
1652.46,2250.95
1653.91,2240.3
1655.36,2228.93
1656.81,2181.5
1658.27,2145.33
1659.72,2127.25
1661.17,2076
1662.62,2075.35
1664.07,2013.24
1665.53,1923.08
1666.98,1943.11
1668.43,1946.62
1669.88,1911.61
1671.33,1881.1
1672.78,1858.21
1674.24,1802.14
1675.69,1810.89
1677.14,1799.13
1678.59,1755.81
1680.04,1733.39
1681.5,1732.31
1682.95,1700.63
1684.4,1671.61
1685.85,1705.02
1687.3,1685.43
1688.75,1670.04
1690.21,1625.83
1691.66,1604.12
1693.11,1656.35
1694.56,1604.64
1696.01,1572.55
1697.46,1580.01
1698.92,1534.82
1700.37,1548.14
1701.82,1546.05
1703.27,1532.43
1704.72,1506.24
1706.18,1501.12
1707.63,1533.39
1709.08,1489.67
1710.53,1500.31
1711.98,1529.55
1713.43,1488.66
1714.89,1513.93
1716.34,1496.5
1717.79,1501.22
1719.24,1492.38
1720.69,1497.22
1722.15,1491.47
1723.6,1521.8
1725.05,1495.51
1726.5,1468.76
1727.95,1477.96
1729.4,1479.5
1730.86,1454.17
1732.31,1449.78
1733.76,1472.44
1735.21,1473.45
1736.66,1450.88
1738.11,1460.85
1739.57,1460.13
1741.02,1454.29
1742.47,1460.06
1743.92,1469.16
1745.37,1437.95
1746.83,1411.07
1748.28,1432.1
1749.73,1420.14
1751.18,1428
1752.63,1391.46
1754.08,1374.2
1755.54,1369.87
1756.99,1363.78
1758.44,1331.42
1759.89,1332.51
1761.34,1345.1
1762.8,1365.82
1764.25,1344.69
1765.7,1334.98
1767.15,1330.55
1768.6,1304.05
1770.05,1289.54
1771.51,1279.37
1772.96,1284.9
1774.41,1273.61
1775.86,1280.21
1777.31,1278.47
1778.76,1268.86
1780.22,1260.7
1781.67,1254.73
1783.12,1237.75
1784.57,1226.33
1786.02,1238.55
1787.48,1215.85
1788.93,1211.33
1790.38,1245.11
1791.83,1211.64
1793.28,1217.08
1794.73,1234.82
1796.19,1211.55
1797.64,1199.46
1799.09,1213.28
1800.54,1180
1801.99,1188.33
1803.45,1194.96
1804.9,1203.48
1806.35,1198.32
1807.8,1188.78
1809.25,1184.33
1810.7,1185.6
1812.16,1186.82
1813.61,1186.76
1815.06,1158.91
1816.51,1153.92
1817.96,1151.79
1819.41,1158.62
1820.87,1154.76
1822.32,1169.04
1823.77,1171.98
1825.22,1193.51
1826.67,1153.58
1828.13,1173.61
1829.58,1177.46
1831.03,1191.71
1832.48,1161.25
1833.93,1193.58
1835.38,1181.92
1836.84,1166.04
1838.29,1171.04
1839.74,1177.19
1841.19,1181.46
1842.64,1186.57
1844.1,1196.26
1845.55,1200.67
1847,1214.99
1848.45,1214.86
1849.9,1217.74
1851.35,1208.82
1852.81,1195.89
1854.26,1195.71
1855.71,1199.99
1857.16,1214.91
1858.61,1230.97
1860.07,1215.96
1861.52,1224.73
1862.97,1224.07
1864.42,1203.19
1865.87,1210.93
1867.32,1216.51
1868.78,1201.79
1870.23,1244.83
1871.68,1217.51
1873.13,1221.81
1874.58,1207.88
1876.03,1213.49
1877.49,1175.08
1878.94,1167.62
1880.39,1162.95
1881.84,1179.31
1883.29,1162.09
1884.75,1156.68
1886.2,1140.83
1887.65,1178.18
1889.1,1161.49
1890.55,1146.08
1892,1140.04
1893.46,1135.13
1894.91,1126.88
1896.36,1120.64
1897.81,1088.86
1899.26,1073.67
1900.72,1103.45
1902.17,1101.51
1903.62,1076.79
1905.07,1068.54
1906.52,1063.7
1907.97,1075.41
1909.43,1082.31
1910.88,1081.53
1912.33,1078.47
1913.78,1082.5
1915.23,1077.02
1916.68,1067.34
1918.14,1072.42
1919.59,1077.19
1921.04,1064.82
1922.49,1057.26
1923.94,1069.87
1925.4,1069.26
1926.85,1063.43
1928.3,1048.92
1929.75,1048.38
1931.2,1034.58
1932.65,1060.49
1934.11,1052.72
1935.56,1053.03
1937.01,1104.06
1938.46,1072.63
1939.91,1051.97
1941.37,1081.92
1942.82,1040.89
1944.27,1074.2
1945.72,1080.04
1947.17,1058.05
1948.62,1055.79
1950.08,1059.32
1951.53,1072.17
1952.98,1059.32
1954.43,1064.56
1955.88,1069.69
1957.33,1047.65
1958.79,1065.14
1960.24,1074.08
1961.69,1065.63
1963.14,1081.31
1964.59,1062.95
1966.05,1073.43
1967.5,1078.87
1968.95,1075.65
1970.4,1090.12
1971.85,1097.03
1973.3,1096.16
1974.76,1107.62
1976.21,1120.18
1977.66,1124.16
1979.11,1111.82
1980.56,1084.74
1982.02,1073.45
1983.47,1083.33
1984.92,1087.02
1986.37,1112.31
1987.82,1088.66
1989.27,1102.89
1990.73,1116.67
1992.18,1116.93
1993.63,1092.95
1995.08,1101.81
1996.53,1111.48
1997.98,1084.1
1999.44,1101.68
2000.89,1082.14
2002.34,1092.24
2003.79,1099.48
2005.24,1115.07
2006.7,1078.22
2008.15,1110.34
2009.6,1105.69
2011.05,1074.02
2012.5,1085.41
2013.95,1091.71
2015.41,1087.46
2016.86,1059.56
2018.31,1070.31
2019.76,1066.64
2021.21,1037.76
2022.67,1021.29
2024.12,1049.32
2025.57,1050.07
2027.02,1039.76
2028.47,1047.07
2029.92,1062.33
2031.38,1116.68
2032.83,1599.67
2034.28,2332.69
2035.73,2491.39
2037.18,2174.17
2038.63,1291.94
2040.09,1012.18
2041.54,1002.53
2042.99,1020.4
2044.44,981.166
2045.89,1015.64
2047.35,993.422
2048.8,996.35
2050.25,985.154
2051.7,994.184
2053.15,968.207
2054.6,979.161
2056.06,979.633
2057.51,956.168
2058.96,961.134
2060.41,975.283
2061.86,966.631
2063.32,935.502
2064.77,949.941
2066.22,940.645
2067.67,948.078
2069.12,966.349
2070.57,964.106
2072.03,951.717
2073.48,957.171
2074.93,939.313
2076.38,945.661
2077.83,959.121
2079.28,953.132
2080.74,940.856
2082.19,933.802
2083.64,937.267
2085.09,940.05
2086.54,921.803
2088,921.484
2089.45,937.978
2090.9,938.021
2092.35,940.719
2093.8,924.47
2095.25,943.115
2096.71,939.699
2098.16,917.679
2099.61,931.785
2101.06,933.06
2102.51,919.557
2103.97,924.178
2105.42,933.54
2106.87,956.224
2108.32,946.884
2109.77,944.902
2111.22,958.217
2112.68,965.304
2114.13,960.819
2115.58,946.116
2117.03,949.42
2118.48,942.821
2119.94,934.267
2121.39,942.587
2122.84,948.599
2124.29,936.302
2125.74,943.87
2127.19,957.218
2128.65,968.01
2130.1,959.703
2131.55,945.411
2133,937.076
2134.45,933.214
2135.9,940.803
2137.36,949.824
2138.81,950.721
2140.26,966.983
2141.71,957.324
2143.16,953.283
2144.62,957.653
2146.07,968.723
2147.52,968.962
2148.97,973.712
2150.42,955.213
2151.87,961.52
2153.33,960.412
2154.78,948.531
2156.23,950.646
2157.68,956.917
2159.13,974.931
2160.58,981.417
2162.04,980.903
2163.49,975.476
2164.94,972.176
2166.39,967.111
2167.84,977.437
2169.3,995.415
2170.75,955.048
2172.2,988.953
2173.65,1008.19
2175.1,999.142
2176.55,1012.83
2178.01,997.082
2179.46,1013.47
2180.91,1001.56
2182.36,1004.88
2183.81,986.007
2185.27,1003.38
2186.72,1014.16
2188.17,1026.61
2189.62,1026.7
2191.07,1027.57
2192.52,1014.07
2193.98,1010.89
2195.43,1019.7
2196.88,1043.87
2198.33,1021.73
2199.78,1027
2201.24,1024.64
2202.69,1025.66
2204.14,1045.58
2205.59,1040.87
2207.04,1014.89
2208.49,1010.19
2209.95,1003.65
2211.4,1006.54
2212.85,1022.3
2214.3,1025.02
2215.75,1047.92
2217.2,1024.09
2218.66,1047.91
2220.11,1068.39
2221.56,1041.71
2223.01,1050.96
2224.46,1042.25
2225.92,1033.18
2227.37,1036.03
2228.82,1050.42
2230.27,1060.05
2231.72,1043.46
2233.17,1047.5
2234.63,1036.74
2236.08,1048.88
2237.53,1055.65
2238.98,1042.44
2240.43,1046.64
2241.89,1060.06
2243.34,1064.56
2244.79,1063.27
2246.24,1052.67
2247.69,1066.02
2249.14,1067.54
2250.6,1083.14
2252.05,1075.93
2253.5,1049.4
2254.95,1058.21
2256.4,1087.88
2257.85,1073.42
2259.31,1062.05
2260.76,1069.21
2262.21,1069.41
2263.66,1091.44
2265.11,1103.48
2266.57,1089.38
2268.02,1093.46
2269.47,1090.52
2270.92,1079.75
2272.37,1103.92
2273.82,1105.45
2275.28,1129.49
2276.73,1104.22
2278.18,1103.65
2279.63,1097.13
2281.08,1099.73
2282.54,1111.98
2283.99,1117.63
2285.44,1137.4
2286.89,1143.77
2288.34,1113.2
2289.79,1106.13
2291.25,1140.48
2292.7,1148.34
2294.15,1139.43
2295.6,1133.3
2297.05,1130.58
2298.5,1153.53
2299.96,1167.53
2301.41,1177.16
2302.86,1182.31
2304.31,1188.11
2305.76,1198.57
2307.22,1210.67
2308.67,1160.32
2310.12,1223.16
2311.57,1191.56
2313.02,1211.95
2314.47,1199.65
2315.93,1192.29
2317.38,1222.82
2318.83,1234.91
2320.28,1211.59
2321.73,1220.06
2323.19,1225.62
2324.64,1220.31
2326.09,1235.36
2327.54,1218.32
2328.99,1250.47
2330.44,1260.8
2331.9,1260.62
2333.35,1276.12
2334.8,1263.48
2336.25,1259.52
2337.7,1260.96
2339.16,1273.25
2340.61,1293.07
2342.06,1282.66
2343.51,1276.19
2344.96,1293.44
2346.41,1309.69
2347.87,1311.84
2349.32,1298.97
2350.77,1289.23
2352.22,1321.59
2353.67,1354.87
2355.12,1320.53
2356.58,1364.58
2358.03,1338.06
2359.48,1373.63
2360.93,1390.78
2362.38,1357.23
2363.84,1370.57
2365.29,1413.45
2366.74,1397.41
2368.19,1406.42
2369.64,1449.51
2371.09,1433.62
2372.55,1455.46
2374,1476.72
2375.45,1490.62
2376.9,1511.99
2378.35,1507.41
2379.8,1517.88
2381.26,1536.08
2382.71,1563.33
2384.16,1590.1
2385.61,1617.27
2387.06,1647.3
2388.52,1673.31
2389.97,1691.69
2391.42,1714.03
2392.87,1728.86
2394.32,1731.85
2395.77,1796.97
2397.23,1833.26
2398.68,1841.1
2400.13,1855.86
2401.58,1901.55
2403.03,1943.61
2404.49,1938.07
2405.94,1989.18
2407.39,2032.26
2408.84,2066.02
2410.29,2060.45
2411.74,2150.74
2413.2,2197.6
2414.65,2201.97
2416.1,2257.33
2417.55,2268.93
2419,2283.25
2420.46,2315.27
2421.91,2379.84
2423.36,2383.49
2424.81,2372.48
2426.26,2363.52
2427.71,2380.29
2429.17,2409.94
2430.62,2444.35
2432.07,2399.23
2433.52,2395.69
2434.97,2401.78
2436.42,2404.52
2437.88,2436.92
2439.33,2414.72
2440.78,2395.97
2442.23,2382.33
2443.68,2397.07
2445.14,2360.53
2446.59,2362.53
2448.04,2328.3
2449.49,2340.1
2450.94,2348
2452.39,2332.1
2453.85,2309.07
2455.3,2310.09
2456.75,2282.56
2458.2,2228.9
2459.65,2222.98
2461.1,2216.46
2462.56,2215.11
2464.01,2239.91
2465.46,2191.97
2466.91,2174.69
2468.36,2165
2469.82,2141.95
2471.27,2184.05
2472.72,2114.26
2474.17,2144.26
2475.62,2118.66
2477.07,2098.24
2478.53,2112.64
2479.98,2131.37
2481.43,2124.55
2482.88,2124.32
2484.33,2131.02
2485.79,2152.39
2487.24,2109.63
2488.69,2107.87
2490.14,2127.21
2491.59,2125.56
2493.04,2102.9
2494.5,2115.66
2495.95,2109.6
2497.4,2159.68
2498.85,2097.24
2500.3,2122.7
2501.76,2119.38
2503.21,2138.29
2504.66,2095.46
2506.11,2146.63
2507.56,2181.2
2509.01,2181.3
2510.47,2170.26
2511.92,2183.97
2513.37,2214.59
2514.82,2257.73
2516.27,2273.01
2517.72,2246.49
2519.18,2260.56
2520.63,2283.75
2522.08,2344.85
2523.53,2294.06
2524.98,2323.78
2526.44,2355.95
2527.89,2367.92
2529.34,2385.35
2530.79,2420.07
2532.24,2416.66
2533.69,2411.09
2535.15,2474.12
2536.6,2493.41
2538.05,2541.19
2539.5,2594.37
2540.95,2598.15
2542.41,2613.96
2543.86,2612.28
2545.31,2661.33
2546.76,2721.69
2548.21,2753.76
2549.66,2772.91
2551.12,2795.35
2552.57,2831.88
2554.02,2926
2555.47,2931.38
2556.92,2984.16
2558.37,3064.96
2559.83,3096.17
2561.28,3190.56
2562.73,3211.9
2564.18,3235.52
2565.63,3318.64
2567.09,3373.61
2568.54,3456.41
2569.99,3519.57
2571.44,3597.36
2572.89,3657.94
2574.34,3761.41
2575.8,3846.77
2577.25,3905.81
2578.7,4026.9
2580.15,4112.02
2581.6,4167.72
2583.06,4315.7
2584.51,4403.03
2585.96,4514.91
2587.41,4646.67
2588.86,4807.98
2590.31,4935.56
2591.77,5062.02
2593.22,5225.2
2594.67,5395.82
2596.12,5550.23
2597.57,5706.94
2599.02,5890.72
2600.48,6066.37
2601.93,6295
2603.38,6482.1
2604.83,6725.15
2606.28,6921.97
2607.74,7225.32
2609.19,7472.98
2610.64,7738.89
2612.09,8061.63
2613.54,8302.01
2614.99,8657.24
2616.45,8981.98
2617.9,9285.69
2619.35,9609.9
2620.8,10031.5
2622.25,10372.5
2623.71,10764.6
2625.16,11141.6
2626.61,11632.8
2628.06,12025.8
2629.51,12482.4
2630.96,12948.7
2632.42,13420.2
2633.87,13821.5
2635.32,14382.4
2636.77,14772.8
2638.22,15232.8
2639.68,15676.4
2641.13,16038.5
2642.58,16472.1
2644.03,16866.6
2645.48,17342.3
2646.93,17775.5
2648.39,18030.6
2649.84,18281.5
2651.29,18408.5
2652.74,18720.9
2654.19,18947
2655.64,19130
2657.1,19247.1
2658.55,19288.9
2660,19316.5
2661.45,19225.9
2662.9,19076
2664.36,18968.9
2665.81,18862.5
2667.26,18697.7
2668.71,18310.6
2670.16,17890.9
2671.61,17737
2673.07,17273.1
2674.52,16885.4
2675.97,16490.3
2677.42,16175.4
2678.87,15671.4
2680.32,15156.2
2681.78,14631
2683.23,14125.4
2684.68,13766.5
2686.13,13314.4
2687.58,12683.9
2689.04,12237
2690.49,11739.1
2691.94,11320.3
2693.39,10801.2
2694.84,10386.6
2696.29,9959.72
2697.75,9576.54
2699.2,9181.6
2700.65,8772.88
2702.1,8388.11
2703.55,8033.22
2705.01,7702.17
2706.46,7389.48
2707.91,7053.19
2709.36,6744.02
2710.81,6438.85
2712.26,6297.84
2713.72,6059.17
2715.17,5767.23
2716.62,5570.42
2718.07,5353.49
2719.52,5157.19
2720.98,4966.08
2722.43,4746.28
2723.88,4609.35
2725.33,4459.66
2726.78,4312.37
2728.23,4172.38
2729.69,4141.56
2731.14,3954.49
2732.59,3839.49
2734.04,3753.89
2735.49,3638.46
2736.94,3537.06
2738.4,3468.2
2739.85,3367.82
2741.3,3282.52
2742.75,3191.91
2744.2,3156.12
2745.66,3061.31
2747.11,3023.42
2748.56,2927.9
2750.01,2878.37
2751.46,2825.14
2752.91,2777.32
2754.37,2736.16
2755.82,2667.17
2757.27,2630.1
2758.72,2565.79
2760.17,2542.02
2761.63,2519.55
2763.08,2471.37
2764.53,2442.27
2765.98,2406.9
2767.43,2361.46
2768.88,2329.55
2770.34,2279.87
2771.79,2266.6
2773.24,2223.12
2774.69,2213.45
2776.14,2182.23
2777.59,2129.78
2779.05,2115.84
2780.5,2117.79
2781.95,2086.91
2783.4,2033.48
2784.85,2080.28
2786.31,2021.35
2787.76,2011.58
2789.21,1994.8
2790.66,1948.96
2792.11,1962.09
2793.56,1952.38
2795.02,1907.33
2796.47,1921.68
2797.92,1883.9
2799.37,1870.99
2800.82,1861.18
2802.28,1848.47
2803.73,1799.04
2805.18,1811.98
2806.63,1813.09
2808.08,1801.24
2809.53,1790.35
2810.99,1797.89
2812.44,1735.22
2813.89,1779.41
2815.34,1733.28
2816.79,1702.9
2818.24,1702.28
2819.7,1681.95
2821.15,1692.11
2822.6,1709.89
2824.05,1695.55
2825.5,1664.4
2826.96,1673.89
2828.41,1642.25
2829.86,1659.81
2831.31,1661.22
2832.76,1679.19
2834.21,1630.47
2835.67,1639.8
2837.12,1609.37
2838.57,1627.52
2840.02,1608.49
2841.47,1586.54
2842.93,1628.13
2844.38,1591.4
2845.83,1605.65
2847.28,1596.19
2848.73,1621.82
2850.18,1587.38
2851.64,1592.41
2853.09,1593.62
2854.54,1589.28
2855.99,1585.2
2857.44,1597.3
2858.9,1550.72
2860.35,1562.24
2861.8,1577.59
2863.25,1574.6
2864.7,1574.94
2866.15,1601.64
2867.61,1605.87
2869.06,1582.38
2870.51,1590.72
2871.96,1597.9
2873.41,1578.85
2874.86,1588.6
2876.32,1619.28
2877.77,1608.91
2879.22,1603.26
2880.67,1618.34
2882.12,1593.61
2883.58,1606.51
2885.03,1607.86
2886.48,1610.24
2887.93,1619.3
2889.38,1627.6
2890.83,1625.33
2892.29,1610.91
2893.74,1597.45
2895.19,1617.88
2896.64,1632.91
2898.09,1621.78
2899.54,1632.49
2901,1601.53
2902.45,1585.31
2903.9,1603.33
2905.35,1589.26
2906.8,1591.59
2908.26,1620.08
2909.71,1641.96
2911.16,1622.06
2912.61,1613.99
2914.06,1586.96
2915.51,1583.72
2916.97,1558.62
2918.42,1537
2919.87,1552.05
2921.32,1529.47
2922.77,1530.81
2924.23,1560.74
2925.68,1528.03
2927.13,1526.12
2928.58,1500.98
2930.03,1501.12
2931.48,1435.67
2932.94,1495.48
2934.39,1440.79
2935.84,1449.57
2937.29,1434.63
2938.74,1400.81
2940.2,1384.61
2941.65,1408.94
2943.1,1373.17
2944.55,1390.15
2946,1354.88
2947.45,1339.42
2948.91,1328.42
2950.36,1316.52
2951.81,1300.44
2953.26,1281.19
2954.71,1284.02
2956.16,1255.4
2957.62,1255.77
2959.07,1266.57
2960.52,1236.2
2961.97,1238.78
2963.42,1231.89
2964.88,1214.16
2966.33,1192.05
2967.78,1193.04
2969.23,1176.61
2970.68,1196.02
2972.13,1176.14
2973.59,1142.86
2975.04,1131.38
2976.49,1139.22
2977.94,1144.25
2979.39,1132.77
2980.84,1146.68
2982.3,1148.27
2983.75,1150.25
2985.2,1119.1
2986.65,1098.3
2988.1,1117.65
2989.56,1110.81
2991.01,1119.37
2992.46,1117.06
2993.91,1087.48
2995.36,1088.91
2996.81,1108.42
2998.27,1076.94
2999.72,1070.84
3001.17,1089.35
3002.62,1095.93
3004.07,1078.24
3005.53,1081.31
3006.98,1074.16
3008.43,1066.22
3009.88,1037.97
3011.33,1048.14
3012.78,1079.59
3014.24,1049.95
3015.69,1049.36
3017.14,1051.99
3018.59,1037.38
3020.04,1053.52
3021.5,1044.61
3022.95,1044.47
3024.4,1037.09
3025.85,1045.78
3027.3,1030.05
3028.75,1054.33
3030.21,1045.85
3031.66,1033.6
3033.11,1037.38
3034.56,1044.09
3036.01,1039.84
3037.46,1015.75
3038.92,1042.87
3040.37,1036.83
3041.82,1038.12
3043.27,1043.92
3044.72,1028.84
3046.18,1054.06
3047.63,1030.39
3049.08,1049.77
3050.53,1075.52
3051.98,1065.09
3053.43,1075.13
3054.89,1046.2
3056.34,1049.17
3057.79,1047.51
3059.24,1052.77
3060.69,1059.71
3062.15,1047.8
3063.6,1064.76
3065.05,1047.83
3066.5,1063.4
3067.95,1039.63
3069.4,1059.91
3070.86,1056.33
3072.31,1080.01
3073.76,1076.25
3075.21,1081.37
3076.66,1108.69
3078.11,1072.49
3079.57,1090.03
3081.02,1103.41
3082.47,1114.46
3083.92,1153.51
3085.37,1152.64
3086.83,1158.24
3088.28,1132.57
3089.73,1137.7
3091.18,1142.54
3092.63,1165.13
3094.08,1189.72
3095.54,1204.22
3096.99,1193.7
3098.44,1211.81
3099.89,1296.18
3101.34,1280.18
3102.8,1278.14
3104.25,1304.71
3105.7,1298.55
3107.15,1312.87
3108.6,1338.5
3110.05,1391.05
3111.51,1401.47
3112.96,1421.34
3114.41,1409.57
3115.86,1451.85
3117.31,1495.86
3118.76,1532.26
3120.22,1519.92
3121.67,1557.29
3123.12,1587.08
3124.57,1579.72
3126.02,1637.53
3127.48,1667.37
3128.93,1642.74
3130.38,1701.18
3131.83,1704.6
3133.28,1746.86
3134.73,1752.02
3136.19,1773.44
3137.64,1791.66
3139.09,1800.69
3140.54,1786.3
3141.99,1853.64
3143.45,1846.68
3144.9,1837.21
3146.35,1853.97
3147.8,1866.29
3149.25,1895.32
3150.7,1904.11
3152.16,1886.05
3153.61,1932.42
3155.06,1913.34
3156.51,1898.09
3157.96,1905.23
3159.42,1913.96
3160.87,1912.11
3162.32,1915.15
3163.77,1929.64
3165.22,1932.95
3166.67,1902.87
3168.13,1896.09
3169.58,1937.35
3171.03,1955.37
3172.48,1913.9
3173.93,1889.27
3175.38,1940.88
3176.84,1939.32
3178.29,1956.35
3179.74,1952.62
3181.19,1975.73
3182.64,1979.37
3184.1,2020.68
3185.55,2013.87
3187,2024.37
3188.45,2043.66
3189.9,2055.19
3191.35,2050.38
3192.81,2064.37
3194.26,2109.99
3195.71,2094.12
3197.16,2114.54
3198.61,2113.04
3200.06,2135.52
3201.52,2195.69
3202.97,2122.91
3204.42,2103.32
3205.87,2108.03
3207.32,2095.64
3208.78,2113.93
3210.23,2080.48
3211.68,2045.21
3213.13,2040.02
3214.58,1988.86
3216.03,2013.72
3217.49,1948.03
3218.94,1900.6
3220.39,1891.26
3221.84,1814.99
3223.29,1780.71
3224.75,1738.08
3226.2,1701.41
3227.65,1622.74
3229.1,1613.87
3230.55,1545.4
3232,1509.51
3233.46,1455.15
3234.91,1420.89
3236.36,1394.37
3237.81,1342.06
3239.26,1314.99
3240.72,1305.1
3242.17,1262.37
3243.62,1234.61
3245.07,1207.22
3246.52,1176.65
3247.97,1158.54
3249.43,1147.54
3250.88,1097.32
3252.33,1086.11
3253.78,1074.35
3255.23,1042.05
3256.68,1019.58
3258.14,1049.39
3259.59,1015.29
3261.04,1004.77
3262.49,983.71
3263.94,950.01
3265.4,961.944
3266.85,960.759
3268.3,925.039
3269.75,942.079
3271.2,938.503
3272.65,925.993
3274.11,913.468
3275.56,927.812
3277.01,915.206
3278.46,892.977
3279.91,923.599
3281.37,913.969
3282.82,891.069
3284.27,891.015
3285.72,887.082
3287.17,884.097
3288.62,878.844
3290.08,895.555
3291.53,871.885
3292.98,858.82
3294.43,880.857
3295.88,889.861
3297.33,864.701
3298.79,863.855
3300.24,851.48
3301.69,860.543
3303.14,859.751
3304.59,874.086
3306.05,846.312
3307.5,822.183
3308.95,835.691
3310.4,851.652
3311.85,856.608
3313.3,824.373
3314.76,838.033
3316.21,832.753
3317.66,842.745
3319.11,868.514
3320.56,826.333
3322.02,850.62
3323.47,848.225
3324.92,828.05
3326.37,843.337
3327.82,835.412
3329.27,840.805
3330.73,826.157
3332.18,837.49
3333.63,840.469
3335.08,840.129
3336.53,849.356
3337.98,823.211
3339.44,833.261
3340.89,828.363
3342.34,817.716
3343.79,819.339
3345.24,823.51
3346.7,835.305
3348.15,823.987
3349.6,838.605
3351.05,842.045
3352.5,807.654
3353.95,809.437
3355.41,826.261
3356.86,820.308
3358.31,822.569
3359.76,836.456
3361.21,838.661
3362.67,851.857
3364.12,815.432
3365.57,820.468
3367.02,829.09
3368.47,804.439
3369.92,787.782
3371.38,814.352
3372.83,802.089
3374.28,806.731
3375.73,793.251
3377.18,823.815
3378.63,835.302
3380.09,816.402
3381.54,817.453
3382.99,814.93
3384.44,812.315
3385.89,812.763
3387.35,826.428
3388.8,820.908
3390.25,795.892
3391.7,796.311
3393.15,802.956
3394.6,824.871
3396.06,809.213
3397.51,816.175
3398.96,811.651
3400.41,827.219
3401.86,833.57
3403.32,818.708
3404.77,828.774
3406.22,807.16
3407.67,793.239
3409.12,772.407
3410.57,809.049
3412.03,833.554
3413.48,810.744
3414.93,783.559
3416.38,776.433
3417.83,787.404
3419.28,798.261
3420.74,805.561
3422.19,814.799
3423.64,809.72
3425.09,798.472
3426.54,785.644
3428,800.184
3429.45,799.069
3430.9,791.042
3432.35,787.727
3433.8,791.562
3435.25,792.957
3436.71,807.859
3438.16,789.906
3439.61,783.377
3441.06,775.797
3442.51,780.827
3443.97,788.867
3445.42,782.335
3446.87,801.01
3448.32,779.871
3449.77,772.262
3451.22,809.681
3452.68,774.135
3454.13,794.71
3455.58,776.823
3457.03,782.007
3458.48,776.24
3459.94,798.18
3461.39,781.791
3462.84,792.423
3464.29,808.692
3465.74,796.301
3467.19,785.038
3468.65,786.799
3470.1,773.487
3471.55,787.095
3473,783.5
3474.45,778.762
3475.9,808.187
3477.36,807.725
3478.81,789.183
3480.26,812.007
3481.71,777.91
3483.16,788.525
3484.62,816.075
3486.07,786.465
3487.52,770.611
3488.97,771.294
3490.42,781.239
3491.87,783.225
3493.33,796.624
3494.78,793.572
3496.23,788.822
3497.68,800.356
3499.13,776.971
3500.58,777.13
3502.04,800.01
3503.49,794.288
3504.94,788.091
3506.39,783.712
3507.84,801.454
3509.3,808.345
3510.75,795.648
3512.2,794.333
3513.65,806.061
3515.1,790.308
3516.55,787.682
3518.01,773.304
3519.46,775.475
3520.91,782.212
3522.36,778.163
3523.81,798.021
3525.27,795.641
3526.72,775.638
3528.17,776.727
3529.62,764.396
3531.07,776.804
3532.52,791.101
3533.98,794.393
3535.43,802.409
3536.88,779.479
3538.33,789.402
3539.78,796.437
3541.24,808.98
3542.69,786.241
3544.14,786.343
3545.59,789.818
3547.04,786.167
3548.49,799.761
3549.95,780.214
3551.4,774.492
3552.85,778.536
3554.3,767.895
3555.75,784.916
3557.2,768.358
3558.66,781.379
3560.11,781.885
3561.56,758.543
3563.01,770.142
3564.46,784.093
3565.92,767.482
3567.37,785.077
3568.82,758.686
3570.27,771.263
3571.72,766.747
3573.17,786.56
3574.63,787.92
3576.08,784.163
3577.53,796.75
3578.98,771.482
3580.43,786.718
3581.89,778.292
3583.34,768.651
3584.79,767.512
3586.24,774.881
3587.69,777.532
3589.14,755.763
3590.6,770.874
3592.05,768.48
3593.5,780.771
3594.95,798.994
3596.4,779.752
3597.85,780.459
3599.31,772.985
3600.76,776.731
3602.21,789.378
3603.66,789.996
3605.11,792.383
3606.57,789.251
3608.02,780.38
3609.47,776.123
3610.92,792.716
3612.37,776.753
3613.82,758.5
3615.28,765.439
3616.73,759.405
3618.18,775.572
3619.63,765.54
3621.08,737.928
3622.54,769.499
3623.99,781.424
3625.44,771.839
3626.89,784.857
3628.34,771.892
3629.79,778.511
3631.25,775.964
3632.7,800.481
3634.15,787.473
3635.6,802.666
3637.05,794.312
3638.5,799.858
3639.96,767.004
3641.41,787.062
3642.86,772.083
3644.31,763.496
3645.76,768.344
3647.22,779.571
3648.67,776.854
3650.12,768.796
3651.57,776.063
3653.02,779.346
3654.47,788.472
3655.93,797.098
3657.38,796.099
3658.83,766.006
3660.28,796.814
3661.73,755.638
3663.19,752.29
3664.64,794.817
3666.09,765.994
3667.54,765.948
3668.99,798.9
3670.44,788.446
3671.9,783.537
3673.35,784.484
3674.8,795.614
3676.25,767.692
3677.7,784.827
3679.16,794.071
3680.61,787.268
3682.06,781.824
3683.51,781.592
3684.96,808.13
3686.41,771.045
3687.87,786.615
3689.32,767.578
3690.77,791.865
3692.22,784.111
3693.67,784.525
3695.12,772.095
3696.58,759.301
3698.03,802.193
3699.48,798.996
3700.93,784.674
3702.38,779.082
3703.84,796.639
3705.29,774.688
3706.74,766.305
3708.19,776.493
3709.64,791.021
3711.09,794.775
3712.55,808.753
3714,785.946
3715.45,809.496
3716.9,794.857
3718.35,786.225
3719.8,795.003
3721.26,795.426
3722.71,787.152
3724.16,788.581
3725.61,803.221
3727.06,789.662
3728.52,785.22
3729.97,790.655
3731.42,782.594
3732.87,796.027
3734.32,789.244
3735.77,783.154
3737.23,799.04
3738.68,808.434
3740.13,792.946
3741.58,796.103
3743.03,792.496
3744.49,784.744
3745.94,788.552
3747.39,793.992
3748.84,798.004
3750.29,782.621
3751.74,783.843
3753.2,807.44
3754.65,804.091
3756.1,797.614
3757.55,813.536
3759,801.776
3760.46,787.877
3761.91,799.18
3763.36,786.305
3764.81,798.165
3766.26,786.304
3767.71,796.472
3769.17,793.109
3770.62,794.881
3772.07,805.32
3773.52,797.38
3774.97,811.951
3776.42,821.583
3777.88,811.571
3779.33,807.903
3780.78,827.598
3782.23,799.556
3783.68,802.163
3785.14,814.573
3786.59,827.932
3788.04,797.849
3789.49,803.865
3790.94,805.659
3792.39,820.536
3793.85,825.596
3795.3,808.269
3796.75,838.762
3798.2,818.876
3799.65,820.173
3801.1,817.338
3802.56,797.526
3804.01,809.1
3805.46,818.787
3806.91,828.432
3808.36,827.315
3809.82,828.434
3811.27,821.404
3812.72,813.351
3814.17,837.952
3815.62,815.729
3817.07,827.203
3818.53,831.229
3819.98,804.949
3821.43,818.327
3822.88,823.849
3824.33,816.824
3825.79,811.752
3827.24,826.224
3828.69,823.869
3830.14,801.925
3831.59,819.328
3833.04,836.038
3834.5,840.463
3835.95,817.633
3837.4,825.822
3838.85,830.608
3840.3,819.372
3841.76,827.001
3843.21,828.929
3844.66,849.668
3846.11,822.734
3847.56,828.067
3849.01,831.394
3850.47,854.849
3851.92,836.926
3853.37,844.054
3854.82,855.931
3856.27,843.201
3857.72,839.463
3859.18,835.671
3860.63,825.466
3862.08,843.005
3863.53,839.015
3864.98,859.229
3866.44,861.31
3867.89,850.133
3869.34,855.299
3870.79,840.734
3872.24,839.47
3873.69,847.176
3875.15,839.834
3876.6,858.623
3878.05,852.967
3879.5,848.861
3880.95,853.841
3882.41,854.755
3883.86,874.039
3885.31,854.68
3886.76,843.209
3888.21,870.578
3889.66,879.32
3891.12,873.153
3892.57,847.777
3894.02,868.093
3895.47,878.699
3896.92,860.908
3898.37,872.958
3899.83,900.798
3901.28,850.682
3902.73,853.549
3904.18,885.692
3905.63,878.011
3907.09,876.129
3908.54,859.624
3909.99,897.497
3911.44,880.738
3912.89,906.446
3914.34,884.287
3915.8,917.991
3917.25,893.954
3918.7,893.014
3920.15,918.547
3921.6,914.652
3923.06,893.482
3924.51,907.415
3925.96,912.819
3927.41,896.481
3928.86,914.866
3930.31,908.894
3931.77,911.117
3933.22,902.975
3934.67,923.636
3936.12,909.51
3937.57,906.428
3939.02,930.874
3940.48,928.861
3941.93,937.984
3943.38,934.142
3944.83,958.468
3946.28,935.848
3947.74,945.634
3949.19,932.043
3950.64,952.612
3952.09,965.741
3953.54,953.164
3954.99,938.94
3956.45,947.652
3957.9,948.546
3959.35,933.312
3960.8,964.767
3962.25,963.479
3963.71,973.255
3965.16,959.464
3966.61,977.818
3968.06,969.91
3969.51,939.502
3970.96,950.553
3972.42,980.405
3973.87,979.199
3975.32,962.068
3976.77,990.213
3978.22,989.384
3979.68,984.194
3981.13,1006.19
3982.58,1013.81
3984.03,1022.28
3985.48,989.775
3986.93,1003.15
3988.39,1009.45
3989.84,1003.42
3991.29,1036.94
3992.74,1016.57
3994.19,1028.76
3995.64,1009.25
3997.1,1025.82
3998.55,1037.19
4000,1042.75
