-20,103.59
-18.5482,102.703
-17.0964,99.7886
-15.6446,105.764
-14.1928,111.576
-12.7411,119.469
-11.2893,126.506
-9.83749,133.199
-8.3857,139.28
-6.93391,180.841
-5.48212,843.318
-4.03034,7660.89
-2.57855,27400
-1.12676,48911.7
0.325027,65477.4
1.77681,62262.8
3.2286,39926.5
4.68039,11548
6.13218,1969.16
7.58397,356.167
9.03575,222.231
10.4875,206.743
11.9393,205.59
13.3911,204.728
14.8429,201.985
16.2947,198.749
17.7465,193.742
19.1983,184.589
20.6501,176.725
22.1018,167.84
23.5536,161.327
25.0054,156.706
26.4572,146.916
27.909,135.306
29.3608,125.733
30.8126,111.417
32.2644,108.88
33.7161,107.175
35.1679,105.624
36.6197,105.625
38.0715,101.448
39.5233,101.353
40.9751,105.449
42.4269,110.17
43.8787,110.681
45.3304,121.065
46.7822,142.654
48.234,176.117
49.6858,244.267
51.1376,379.271
52.5894,642.136
54.0412,1003.7
55.493,1449.86
56.9447,1931.67
58.3965,2479.98
59.8483,2922.47
61.3001,3319.2
62.7519,3623.59
64.2037,3839.14
65.6555,3915.86
67.1073,4036.98
68.559,4125.84
70.0108,4170.26
71.4626,4201.79
72.9144,4220.84
74.3662,4254.2
75.818,4329.93
77.2698,4380.3
78.7216,4474.56
80.1733,4623.99
81.6251,4709.06
83.0769,4812.1
84.5287,4877.6
85.9805,4849.96
87.4323,4733.08
88.8841,4571.12
90.3359,4376.48
91.7877,4152.41
93.2394,3923.82
94.6912,3730.32
96.143,3529.55
97.5948,3359.83
99.0466,3264.97
100.498,3223.63
101.95,3135.54
103.402,3048.98
104.854,3010.63
106.306,2990.07
107.757,2943.66
109.209,2884.6
110.661,2816.21
112.113,2780.96
113.564,2778.63
115.016,2732.04
116.468,2667.02
117.92,2630.27
119.372,2608.6
120.823,2536.27
122.275,2558.12
123.727,2507.01
125.179,2430.84
126.631,2394
128.082,2391.28
129.534,2329.46
130.986,2289.59
132.438,2264.75
133.889,2226.75
135.341,2185.6
136.793,2135.52
138.245,2105.15
139.697,2105.22
141.148,2110.65
142.6,2088.07
144.052,2089.24
145.504,2082.68
146.956,2065.19
148.407,2024.98
149.859,1982.5
151.311,1948.42
152.763,1954.32
154.215,1955.38
155.666,1937.51
157.118,1853.8
158.57,1816.4
160.022,1812.39
161.473,1810.33
162.925,1778.86
164.377,1790.36
165.829,1796.54
167.281,1778.15
168.732,1747.29
170.184,1768.21
171.636,1730.69
173.088,1686.51
174.54,1673.21
175.991,1678.56
177.443,1598.5
178.895,1611.17
180.347,1611.15
181.798,1594.65
183.25,1554.04
184.702,1580.12
186.154,1570.76
187.606,1557.06
189.057,1531.73
190.509,1507.03
191.961,1484.43
193.413,1498.75
194.865,1527.92
196.316,1529.75
197.768,1504.57
199.22,1497.77
200.672,1499.62
202.124,1511.57
203.575,1495.79
205.027,1451.81
206.479,1447.29
207.931,1459.86
209.382,1455.15
210.834,1458.08
212.286,1489.69
213.738,1473.87
215.19,1456.74
216.641,1474.11
218.093,1499.72
219.545,1513.89
220.997,1514.01
222.449,1445.89
223.9,1463.35
225.352,1482.34
226.804,1476.49
228.256,1433.47
229.707,1439.98
231.159,1460.95
232.611,1461.72
234.063,1471.85
235.515,1468.72
236.966,1480.43
238.418,1476.52
239.87,1469.52
241.322,1463.63
242.774,1450.1
244.225,1446.07
245.677,1447.1
247.129,1453.68
248.581,1437.53
250.033,1405.34
251.484,1423.42
252.936,1388.42
254.388,1368.75
255.84,1383.53
257.291,1406.86
258.743,1381.91
260.195,1376.24
261.647,1372.66
263.099,1378.24
264.55,1378.6
266.002,1353.95
267.454,1364.78
268.906,1376.77
270.358,1380.76
271.809,1362.04
273.261,1330.79
274.713,1343.34
276.165,1343.5
277.616,1334.54
279.068,1321.21
280.52,1318.33
281.972,1307.7
283.424,1273.19
284.875,1253.84
286.327,1262.63
287.779,1269.74
289.231,1269.62
290.683,1276.87
292.134,1269.39
293.586,1239.51
295.038,1205.78
296.49,1232.64
297.941,1230.94
299.393,1222.38
300.845,1217.08
302.297,1210.35
303.749,1206.26
305.2,1185.84
306.652,1186.06
308.104,1179.84
309.556,1153.49
311.008,1170.63
312.459,1194.69
313.911,1166.33
315.363,1155.7
316.815,1168.18
318.267,1122.6
319.718,1156.2
321.17,1150.44
322.622,1153.87
324.074,1159.28
325.525,1143.34
326.977,1158.75
328.429,1159.97
329.881,1117.84
331.333,1088.57
332.784,1118.67
334.236,1107.51
335.688,1081.59
337.14,1112.53
338.592,1124.16
340.043,1101.73
341.495,1093.38
342.947,1111.68
344.399,1105.52
345.85,1091.24
347.302,1090.78
348.754,1103.04
350.206,1092.9
351.658,1081.27
353.109,1081.61
354.561,1088.88
356.013,1087.15
357.465,1051.64
358.917,1057
360.368,1061.16
361.82,1060.49
363.272,1064.99
364.724,1077.44
366.176,1058.15
367.627,1043.42
369.079,1045.87
370.531,1063.23
371.983,1069.15
373.434,1041.38
374.886,1046.31
376.338,1052.5
377.79,1053.31
379.242,1046.24
380.693,1054.28
382.145,1016.96
383.597,1034.32
385.049,1056.43
386.501,1071.69
387.952,1075.9
389.404,1060.99
390.856,1044.58
392.308,1045.84
393.759,1052.29
395.211,1054.12
396.663,1032.95
398.115,1063.81
399.567,1051.88
401.018,1035.33
402.47,1028.3
403.922,1045.95
405.374,1045.36
406.826,1049.36
408.277,1047.53
409.729,1044.21
411.181,1046.99
412.633,1065.45
414.085,1050.53
415.536,1032.5
416.988,1037.87
418.44,1051.35
419.892,1046.76
421.343,1080.4
422.795,1042.95
424.247,1028.58
425.699,1031.25
427.151,1035.2
428.602,1027.21
430.054,1011.82
431.506,1046.04
432.958,1051.64
434.41,1041.13
435.861,1047.87
437.313,1015.23
438.765,1014.11
440.217,1054.42
441.668,1072.51
443.12,1051.9
444.572,1003.67
446.024,1039.47
447.476,1022.31
448.927,1017.17
450.379,1018.55
451.831,1020.63
453.283,1029.33
454.735,999.107
456.186,1009.34
457.638,1023.87
459.09,1034.83
460.542,1038.18
461.993,1035.27
463.445,1034.55
464.897,1016.77
466.349,1018.89
467.801,1026.55
469.252,1000.52
470.704,1003.97
472.156,1019.42
473.608,1035.05
475.06,1030.59
476.511,1002.5
477.963,995.28
479.415,1017.21
480.867,1029.6
482.319,1022.66
483.77,1001.06
485.222,985.389
486.674,1015.69
488.126,1032.79
489.577,1014.8
491.029,1005.17
492.481,1003.03
493.933,977.26
495.385,980.899
496.836,980.979
498.288,996.926
499.74,996.524
501.192,981.187
502.644,973.845
504.095,983.401
505.547,993.117
506.999,1001.07
508.451,998.877
509.902,983.552
511.354,1002.18
512.806,979.857
514.258,983.964
515.71,990.958
517.161,995.345
518.613,982.369
520.065,951.399
521.517,990.294
522.969,989.957
524.42,971.572
525.872,955.408
527.324,969.567
528.776,971.606
530.228,986.262
531.679,1004.86
533.131,989.753
534.583,970.686
536.035,978.176
537.486,1011.36
538.938,1001.16
540.39,977.24
541.842,973.729
543.294,982.674
544.745,991.856
546.197,990.693
547.649,983.781
549.101,972.345
550.553,991.091
552.004,1004.75
553.456,981.661
554.908,985.077
556.36,967.526
557.811,969.437
559.263,974.493
560.715,988.212
562.167,992.687
563.619,1024.5
565.07,996.741
566.522,992.187
567.974,997.504
569.426,983.962
570.878,965.389
572.329,983.714
573.781,962.749
575.233,980.046
576.685,993.32
578.137,992.581
579.588,970.219
581.04,958.03
582.492,976.559
583.944,967.274
585.395,969.557
586.847,977.273
588.299,974.773
589.751,969.271
591.203,967.48
592.654,958.612
594.106,970.976
595.558,988.001
597.01,979.975
598.462,962.603
599.913,979.206
601.365,953.24
602.817,950.525
604.269,974.185
605.72,971.869
607.172,993.652
608.624,999.758
610.076,1002.2
611.528,984.733
612.979,966.505
614.431,970.353
615.883,954.864
617.335,965.14
618.787,977.479
620.238,998.265
621.69,992.391
623.142,958.952
624.594,986.076
626.046,982.221
627.497,994.147
628.949,986.367
630.401,991.971
631.853,1000.29
633.304,968.646
634.756,959.179
636.208,983.531
637.66,989.02
639.112,992.466
640.563,999.949
642.015,994.794
643.467,983.074
644.919,989.393
646.371,1007.1
647.822,1014.04
649.274,1011.24
650.726,1009.89
652.178,1024.44
653.629,986.924
655.081,990.21
656.533,1008.73
657.985,1018.79
659.437,1016.5
660.888,1029.7
662.34,1011.16
663.792,997.788
665.244,1008.08
666.696,1008.59
668.147,1007.39
669.599,1040.98
671.051,1047
672.503,1014.64
673.954,1012.9
675.406,1011.45
676.858,1001.86
678.31,1022.34
679.762,1049.04
681.213,1028.62
682.665,1007.8
684.117,1005.1
685.569,1023.14
687.021,1055.21
688.472,1055.27
689.924,1036.32
691.376,1027.46
692.828,1036.02
694.28,1047.66
695.731,1034.68
697.183,1032.94
698.635,1010.67
700.087,1012.43
701.538,1017.51
702.99,1020.03
704.442,1014.71
705.894,1024.34
707.346,1051.71
708.797,1060.28
710.249,1035.89
711.701,1041.35
713.153,1041.85
714.605,1022.54
716.056,1027.41
717.508,1029.44
718.96,1053.44
720.412,1038.09
721.863,1027.2
723.315,1032.63
724.767,1040.05
726.219,1040.59
727.671,1042.26
729.122,1014.64
730.574,1012.01
732.026,1021.31
733.478,1045.39
734.93,1061
736.381,1050.31
737.833,1021.67
739.285,1032.22
740.737,1035.07
742.189,1038.97
743.64,1049.18
745.092,1043.06
746.544,1040.56
747.996,1054.88
749.447,1038.4
750.899,1053.09
752.351,1055.07
753.803,1028.37
755.255,1043.32
756.706,1029.44
758.158,1028.01
759.61,1057.97
761.062,1067.92
762.514,1071
763.965,1060.85
765.417,1041.14
766.869,1042.88
768.321,1057.15
769.772,1052.8
771.224,1059.3
772.676,1065.63
774.128,1039.87
775.58,1046.77
777.031,1030.76
778.483,1049.84
779.935,1033.67
781.387,1028.27
782.839,1043.61
784.29,1053.02
785.742,1062.98
787.194,1085.28
788.646,1069.1
790.098,1076.03
791.549,1079.45
793.001,1071.54
794.453,1084.33
795.905,1070.79
797.356,1045.08
798.808,1047.89
800.26,1038.55
801.712,1050.84
803.164,1079.2
804.615,1081.3
806.067,1092.43
807.519,1064.25
808.971,1073.14
810.423,1071.99
811.874,1072.75
813.326,1063.41
814.778,1081.12
816.23,1084.03
817.681,1084.36
819.133,1068.15
820.585,1087.82
822.037,1090.26
823.489,1077.56
824.94,1070.99
826.392,1093.29
827.844,1104.89
829.296,1112.16
830.748,1115.97
832.199,1119.22
833.651,1102.41
835.103,1105.99
836.555,1109.23
838.007,1108.2
839.458,1100.76
840.91,1110.08
842.362,1118.19
843.814,1125.04
845.265,1101.02
846.717,1096.55
848.169,1132.46
849.621,1161.76
851.073,1166.41
852.524,1154.61
853.976,1151.17
855.428,1142.24
856.88,1147.53
858.332,1142.5
859.783,1154.37
861.235,1157.32
862.687,1145.89
864.139,1135.72
865.59,1129.95
867.042,1135.26
868.494,1122.53
869.946,1121.37
871.398,1143.77
872.849,1132.63
874.301,1100.04
875.753,1111.38
877.205,1118.38
878.657,1135.21
880.108,1127.13
881.56,1129.84
883.012,1131.2
884.464,1137.25
885.915,1140.04
887.367,1143.73
888.819,1136.28
890.271,1166.96
891.723,1153.43
893.174,1177.52
894.626,1170.52
896.078,1152.07
897.53,1161.94
898.982,1164.03
900.433,1156.8
901.885,1178.46
903.337,1143.31
904.789,1154.91
906.241,1182.57
907.692,1186.35
909.144,1163.99
910.596,1158.57
912.048,1182.72
913.499,1183.32
914.951,1186.85
916.403,1186.96
917.855,1184.94
919.307,1196.79
920.758,1200.96
922.21,1196.93
923.662,1207.84
925.114,1212.28
926.566,1211.23
928.017,1197.81
929.469,1189.31
930.921,1205.56
932.373,1205.83
933.824,1204.37
935.276,1203.25
936.728,1241.67
938.18,1229.7
939.632,1211.09
941.083,1223.96
942.535,1178.04
943.987,1217.47
945.439,1225.34
946.891,1204.7
948.342,1203.74
949.794,1203.48
951.246,1206.63
952.698,1213.92
954.15,1205.23
955.601,1214.63
957.053,1220.04
958.505,1210.03
959.957,1227.64
961.408,1219.82
962.86,1191.43
964.312,1196.82
965.764,1241.9
967.216,1207.37
968.667,1213.19
970.119,1224.49
971.571,1222.92
973.023,1206.55
974.475,1205.17
975.926,1232.49
977.378,1231.52
978.83,1212.98
980.282,1220.95
981.733,1216.13
983.185,1231.94
984.637,1247.25
986.089,1232.28
987.541,1234.89
988.992,1225.83
990.444,1232.52
991.896,1244.53
993.348,1223.14
994.8,1232.57
996.251,1268.41
997.703,1267.71
999.155,1246.14
1000.61,1274.89
1002.06,1272.71
1003.51,1277.38
1004.96,1268.14
1006.41,1274.75
1007.87,1272.6
1009.32,1300.59
1010.77,1306.48
1012.22,1281.25
1013.67,1322.21
1015.12,1287.48
1016.58,1306.68
1018.03,1316.39
1019.48,1321.92
1020.93,1325.5
1022.38,1311.36
1023.84,1326.24
1025.29,1360.97
1026.74,1380.55
1028.19,1374.7
1029.64,1378.53
1031.09,1406.01
1032.55,1415.04
1034,1394.95
1035.45,1410.14
1036.9,1429.71
1038.35,1422.35
1039.8,1423.24
1041.26,1434.14
1042.71,1445.85
1044.16,1481.23
1045.61,1487.85
1047.06,1458.49
1048.52,1469.29
1049.97,1512.01
1051.42,1488.21
1052.87,1508.82
1054.32,1534.23
1055.77,1505.74
1057.23,1507.57
1058.68,1564.32
1060.13,1547.37
1061.58,1592.83
1063.03,1583.93
1064.49,1593.03
1065.94,1622.41
1067.39,1642.14
1068.84,1630.76
1070.29,1645.84
1071.74,1667.91
1073.2,1661.14
1074.65,1699.91
1076.1,1691.35
1077.55,1740.98
1079,1734.55
1080.46,1724.45
1081.91,1740.24
1083.36,1758.02
1084.81,1724.27
1086.26,1771.24
1087.71,1763.91
1089.17,1730.35
1090.62,1740.52
1092.07,1750.9
1093.52,1711.74
1094.97,1689.65
1096.42,1761.63
1097.88,1767.94
1099.33,1709.59
1100.78,1716.77
1102.23,1718.11
1103.68,1711.44
1105.14,1718.05
1106.59,1705.81
1108.04,1682
1109.49,1669.13
1110.94,1706.86
1112.39,1694.6
1113.85,1685.2
1115.3,1654.58
1116.75,1643.22
1118.2,1638.42
1119.65,1634.14
1121.11,1647.75
1122.56,1625.88
1124.01,1635.9
1125.46,1581.76
1126.91,1610.26
1128.36,1581.14
1129.82,1575.61
1131.27,1590.66
1132.72,1603.92
1134.17,1602.86
1135.62,1585.04
1137.07,1580.35
1138.53,1572.01
1139.98,1575.73
1141.43,1572.44
1142.88,1551.19
1144.33,1568.49
1145.79,1586.41
1147.24,1555.14
1148.69,1528.06
1150.14,1569.16
1151.59,1574.37
1153.04,1584.17
1154.5,1570.53
1155.95,1568.66
1157.4,1569.45
1158.85,1559.97
1160.3,1567.77
1161.76,1584.97
1163.21,1562.19
1164.66,1571.5
1166.11,1575.9
1167.56,1557.71
1169.01,1553.36
1170.47,1571.24
1171.92,1589.65
1173.37,1578.08
1174.82,1582.58
1176.27,1571.1
1177.72,1589.04
1179.18,1602.45
1180.63,1624.81
1182.08,1614.47
1183.53,1591.85
1184.98,1590.37
1186.44,1591.47
1187.89,1596.49
1189.34,1614.7
1190.79,1595.54
1192.24,1627.1
1193.69,1595.13
1195.15,1613.66
1196.6,1623.53
1198.05,1635.55
1199.5,1637.65
1200.95,1645.43
1202.41,1661.6
1203.86,1643.05
1205.31,1662.49
1206.76,1679.58
1208.21,1673.47
1209.66,1655.92
1211.12,1647.11
1212.57,1658.25
1214.02,1668.21
1215.47,1667.96
1216.92,1655.04
1218.37,1695.18
1219.83,1698.28
1221.28,1689.08
1222.73,1710.85
1224.18,1697.44
1225.63,1669.25
1227.09,1662.57
1228.54,1704.27
1229.99,1728.87
1231.44,1687.01
1232.89,1677.68
1234.34,1735.5
1235.8,1726.43
1237.25,1720.39
1238.7,1742.24
1240.15,1753.71
1241.6,1744.16
1243.06,1746.86
1244.51,1776.56
1245.96,1773.73
1247.41,1804.68
1248.86,1829.09
1250.31,1814.03
1251.77,1790.09
1253.22,1812.35
1254.67,1831.14
1256.12,1850.85
1257.57,1891.27
1259.02,1906.34
1260.48,1909.56
1261.93,1937.17
1263.38,1903.7
1264.83,1969.51
1266.28,1965.48
1267.74,1958.52
1269.19,1990.57
1270.64,2028.95
1272.09,2051.41
1273.54,2078.25
1274.99,2094.21
1276.45,2117.99
1277.9,2142.28
1279.35,2208.23
1280.8,2161.44
1282.25,2219.43
1283.71,2270.8
1285.16,2311.07
1286.61,2343.47
1288.06,2376.46
1289.51,2444.31
1290.96,2527.83
1292.42,2518.06
1293.87,2606.42
1295.32,2672.94
1296.77,2722.59
1298.22,2822.17
1299.67,2926.12
1301.13,3017.73
1302.58,3086.49
1304.03,3152.59
1305.48,3260.49
1306.93,3399.55
1308.39,3500.28
1309.84,3685.66
1311.29,3822.91
1312.74,3959.71
1314.19,4154.19
1315.64,4347.03
1317.1,4510.76
1318.55,4701.32
1320,4912.19
1321.45,5082.75
1322.9,5285.49
1324.36,5504.4
1325.81,5726.92
1327.26,5966.74
1328.71,6069.21
1330.16,6178.58
1331.61,6353.06
1333.07,6479.59
1334.52,6551.91
1335.97,6664.77
1337.42,6628.92
1338.87,6590.5
1340.33,6487.9
1341.78,6432.12
1343.23,6252.25
1344.68,6053.06
1346.13,5903.96
1347.58,5733.9
1349.04,5528.01
1350.49,5300.7
1351.94,5044.79
1353.39,4868.66
1354.84,4696.01
1356.29,4408.11
1357.75,4260.49
1359.2,4085.55
1360.65,3940.88
1362.1,3765.92
1363.55,3600.72
1365.01,3509.99
1366.46,3385.74
1367.91,3222.52
1369.36,3153.63
1370.81,3045.8
1372.26,2945.38
1373.72,2932.52
1375.17,2859.7
1376.62,2813.17
1378.07,2734.86
1379.52,2665.33
1380.98,2619.18
1382.43,2570.05
1383.88,2553.7
1385.33,2514.62
1386.78,2465.63
1388.23,2465.56
1389.69,2417.56
1391.14,2381.28
1392.59,2385.1
1394.04,2382.07
1395.49,2332.66
1396.94,2299.84
1398.4,2286.51
1399.85,2281.33
1401.3,2277.91
1402.75,2267.57
1404.2,2275.01
1405.66,2277.74
1407.11,2242.49
1408.56,2258.46
1410.01,2235.78
1411.46,2259.5
1412.91,2276.32
1414.37,2235.31
1415.82,2243.57
1417.27,2254.75
1418.72,2268.59
1420.17,2267.79
1421.63,2268.58
1423.08,2278.64
1424.53,2276.91
1425.98,2263.97
1427.43,2325.04
1428.88,2268.7
1430.34,2307.09
1431.79,2304.53
1433.24,2319.4
1434.69,2312.44
1436.14,2336.37
1437.59,2375.09
1439.05,2369.15
1440.5,2392.11
1441.95,2375.17
1443.4,2376.88
1444.85,2375.28
1446.31,2399.63
1447.76,2397.8
1449.21,2406.07
1450.66,2441.57
1452.11,2482.87
1453.56,2506.94
1455.02,2521.36
1456.47,2511.47
1457.92,2509.11
1459.37,2564.81
1460.82,2606.66
1462.28,2623.03
1463.73,2610.96
1465.18,2687.98
1466.63,2649.19
1468.08,2708.33
1469.53,2738.17
1470.99,2741.12
1472.44,2762.46
1473.89,2795.69
1475.34,2851.15
1476.79,2935.1
1478.24,2951.98
1479.7,2961.19
1481.15,3034.69
1482.6,3074.72
1484.05,3124.93
1485.5,3200.14
1486.96,3233.31
1488.41,3284.46
1489.86,3336.44
1491.31,3397.87
1492.76,3438.34
1494.21,3462.63
1495.67,3586.28
1497.12,3740.81
1498.57,3781.77
1500.02,3823.2
1501.47,3926.07
1502.93,4054.88
1504.38,4055.21
1505.83,4245.31
1507.28,4314.73
1508.73,4486.56
1510.18,4644.41
1511.64,4794.81
1513.09,4972.65
1514.54,5111.69
1515.99,5334.91
1517.44,5614.53
1518.89,5848.71
1520.35,6040.2
1521.8,6269.76
1523.25,6602.73
1524.7,6952.89
1526.15,7488.3
1527.61,7856.01
1529.06,8429.9
1530.51,8971.34
1531.96,9623.35
1533.41,10374
1534.86,11146.8
1536.32,12036.3
1537.77,13104.4
1539.22,14260.2
1540.67,15512.1
1542.12,16794.5
1543.58,18478
1545.03,20183.8
1546.48,22103.4
1547.93,23956
1549.38,25924.1
1550.83,27957.1
1552.29,30186.2
1553.74,32336.1
1555.19,34438.2
1556.64,36652.7
1558.09,38702.6
1559.54,40561.9
1561,42218.6
1562.45,43558.2
1563.9,44392.7
1565.35,44972.6
1566.8,45083.2
1568.26,44777.6
1569.71,43621
1571.16,42203.4
1572.61,40496.4
1574.06,38443.2
1575.51,36249.5
1576.97,33915.3
1578.42,31572.9
1579.87,29336.2
1581.32,27109.2
1582.77,25009.1
1584.23,23062.9
1585.68,21173.7
1587.13,19601
1588.58,17954.3
1590.03,16486.7
1591.48,15197.5
1592.94,13950.7
1594.39,13056.6
1595.84,12261.8
1597.29,11420
1598.74,10849.1
1600.2,10281.8
1601.65,9717.24
1603.1,9191.81
1604.55,8748.96
1606,8311.21
1607.45,7892.49
1608.91,7544.19
1610.36,7217.33
1611.81,6885.4
1613.26,6475.9
1614.71,6167.59
1616.16,5882.17
1617.62,5590.91
1619.07,5354.35
1620.52,5062.01
1621.97,4909.93
1623.42,4718.16
1624.88,4506.93
1626.33,4371.51
1627.78,4202.01
1629.23,4057.97
1630.68,3924.32
1632.13,3759.2
1633.59,3683.59
1635.04,3646.71
1636.49,3575.55
1637.94,3449.28
1639.39,3325.44
1640.85,3288.54
1642.3,3216.3
1643.75,3153.57
1645.2,3084.98
1646.65,3071.23
1648.1,3036.62
1649.56,2993.03
1651.01,2903.46
1652.46,2861.96
1653.91,2816.68
1655.36,2776.4
1656.81,2770.52
1658.27,2693.87
1659.72,2626.53
1661.17,2614.43
1662.62,2586.01
1664.07,2538.65
1665.53,2529.05
1666.98,2528.79
1668.43,2464.88
1669.88,2396.83
1671.33,2383.81
1672.78,2376.5
1674.24,2312
1675.69,2267.99
1677.14,2287.99
1678.59,2289.96
1680.04,2252.7
1681.5,2217.93
1682.95,2215.3
1684.4,2221.97
1685.85,2204.53
1687.3,2182.72
1688.75,2156.33
1690.21,2129.68
1691.66,2113.53
1693.11,2059.71
1694.56,2085.76
1696.01,2093.34
1697.46,2060.17
1698.92,2047.48
1700.37,2023.16
1701.82,2012.67
1703.27,2009.13
1704.72,2025.03
1706.18,2025.7
1707.63,2012.5
1709.08,1988.75
1710.53,1999.19
1711.98,1990.16
1713.43,1946.63
1714.89,1960.02
1716.34,1958.75
1717.79,1960.82
1719.24,1937.2
1720.69,1957.35
1722.15,2000.41
1723.6,1957.7
1725.05,1981.37
1726.5,1955.92
1727.95,1924.78
1729.4,1944.71
1730.86,1944.36
1732.31,1970.05
1733.76,1987.48
1735.21,1922.49
1736.66,1904.56
1738.11,1926.62
1739.57,1915.18
1741.02,1887.24
1742.47,1896.94
1743.92,1905.13
1745.37,1872.84
1746.83,1855.22
1748.28,1858.88
1749.73,1874.44
1751.18,1883.96
1752.63,1862.28
1754.08,1827.53
1755.54,1864.78
1756.99,1869.4
1758.44,1841.29
1759.89,1791.39
1761.34,1820.95
1762.8,1804.49
1764.25,1792.62
1765.7,1780.98
1767.15,1797.44
1768.6,1804.69
1770.05,1799.87
1771.51,1780.85
1772.96,1734.66
1774.41,1731.03
1775.86,1743.96
1777.31,1748.14
1778.76,1722.89
1780.22,1698.95
1781.67,1727.82
1783.12,1745.19
1784.57,1731.04
1786.02,1685.98
1787.48,1690.53
1788.93,1723.32
1790.38,1691.21
1791.83,1671.23
1793.28,1712.18
1794.73,1756.48
1796.19,1677.85
1797.64,1647.52
1799.09,1676.32
1800.54,1665.38
1801.99,1664.04
1803.45,1680.8
1804.9,1682.6
1806.35,1679.95
1807.8,1686.71
1809.25,1674.01
1810.7,1654.12
1812.16,1644.28
1813.61,1644.04
1815.06,1645.71
1816.51,1635.58
1817.96,1653.07
1819.41,1663.35
1820.87,1648.31
1822.32,1630.83
1823.77,1652.06
1825.22,1661.01
1826.67,1689.96
1828.13,1637.06
1829.58,1676.86
1831.03,1661.91
1832.48,1649.01
1833.93,1641.85
1835.38,1618.1
1836.84,1697.14
1838.29,1680.74
1839.74,1713.95
1841.19,1723.13
1842.64,1713.2
1844.1,1725.92
1845.55,1717.57
1847,1724.3
1848.45,1718.29
1849.9,1705.6
1851.35,1730.23
1852.81,1767.2
1854.26,1769.74
1855.71,1760.61
1857.16,1784.97
1858.61,1790.87
1860.07,1758.31
1861.52,1743.47
1862.97,1740.68
1864.42,1759.7
1865.87,1767.87
1867.32,1813.86
1868.78,1784.77
1870.23,1742.05
1871.68,1725.17
1873.13,1751.2
1874.58,1709.37
1876.03,1700.84
1877.49,1753.42
1878.94,1721.01
1880.39,1681.28
1881.84,1689.16
1883.29,1706.53
1884.75,1701.94
1886.2,1699.16
1887.65,1661.99
1889.1,1641.46
1890.55,1657.28
1892,1662.53
1893.46,1633.36
1894.91,1638.23
1896.36,1644.58
1897.81,1619.94
1899.26,1611.5
1900.72,1601.68
1902.17,1599.35
1903.62,1592.7
1905.07,1603.2
1906.52,1574.7
1907.97,1571.05
1909.43,1594.06
1910.88,1578.37
1912.33,1582.34
1913.78,1565.14
1915.23,1581.35
1916.68,1581.63
1918.14,1548.94
1919.59,1562.85
1921.04,1518.6
1922.49,1559.43
1923.94,1552.76
1925.4,1562.12
1926.85,1567.1
1928.3,1541.99
1929.75,1501.6
1931.2,1553.41
1932.65,1570.62
1934.11,1559.86
1935.56,1566.78
1937.01,1532.13
1938.46,1558.03
1939.91,1554.58
1941.37,1569.94
1942.82,1570.34
1944.27,1572.77
1945.72,1601.6
1947.17,1574.17
1948.62,1572.2
1950.08,1554.07
1951.53,1564.47
1952.98,1569.95
1954.43,1571.65
1955.88,1553.02
1957.33,1588.82
1958.79,1602.74
1960.24,1557.75
1961.69,1538.68
1963.14,1571.69
1964.59,1567.32
1966.05,1588.84
1967.5,1594.71
1968.95,1592.4
1970.4,1612.72
1971.85,1612.32
1973.3,1606.87
1974.76,1626.07
1976.21,1618.49
1977.66,1611.75
1979.11,1613.81
1980.56,1601.25
1982.02,1621.02
1983.47,1604.21
1984.92,1596.13
1986.37,1616.55
1987.82,1639.48
1989.27,1634.12
1990.73,1625.46
1992.18,1621.95
1993.63,1625.06
1995.08,1629.85
1996.53,1655.85
1997.98,1602.28
1999.44,1602.01
2000.89,1670.44
2002.34,1606.38
2003.79,1628.49
2005.24,1617.34
2006.7,1655.9
2008.15,1618
2009.6,1642.8
2011.05,1636.31
2012.5,1631.41
2013.95,1646.14
2015.41,1609.59
2016.86,1581.79
2018.31,1581.37
2019.76,1575.26
2021.21,1568.04
2022.67,1554.86
2024.12,1540.09
2025.57,1585.84
2027.02,1572.92
2028.47,1583.83
2029.92,1524.29
2031.38,1551.75
2032.83,1560.96
2034.28,1556.26
2035.73,1519.61
2037.18,1533.11
2038.63,1514.66
2040.09,1510.52
2041.54,1473.98
2042.99,1507.62
2044.44,1517.32
2045.89,1496.44
2047.35,1480.52
2048.8,1496.03
2050.25,1486.5
2051.7,1488.51
2053.15,1508.06
2054.6,1489.55
2056.06,1450.31
2057.51,1474.7
2058.96,1467.4
2060.41,1452.43
2061.86,1460.3
2063.32,1471.45
2064.77,1456.99
2066.22,1441.9
2067.67,1443.68
2069.12,1464.79
2070.57,1433.17
2072.03,1459.3
2073.48,1454.09
2074.93,1438.53
2076.38,1429.02
2077.83,1453.05
2079.28,1456.4
2080.74,1436.41
2082.19,1429.45
2083.64,1453.44
2085.09,1474.26
2086.54,1460.46
2088,1443.56
2089.45,1434.6
2090.9,1410.01
2092.35,1404.31
2093.8,1416.76
2095.25,1425.55
2096.71,1410.06
2098.16,1445.89
2099.61,1461.15
2101.06,1467.09
2102.51,1464.59
2103.97,1457.27
2105.42,1425.88
2106.87,1419.94
2108.32,1416.65
2109.77,1404.68
2111.22,1407.83
2112.68,1404.55
2114.13,1413.38
2115.58,1404.77
2117.03,1414.28
2118.48,1438.39
2119.94,1428.84
2121.39,1457.14
2122.84,1437.55
2124.29,1447.84
2125.74,1456.98
2127.19,1461.45
2128.65,1495.34
2130.1,1450.07
2131.55,1440.11
2133,1456.83
2134.45,1448.5
2135.9,1447.1
2137.36,1462.45
2138.81,1443.05
2140.26,1435.19
2141.71,1412.11
2143.16,1457.51
2144.62,1461.85
2146.07,1451.89
2147.52,1445.16
2148.97,1450.35
2150.42,1473.05
2151.87,1449.5
2153.33,1495.08
2154.78,1484.69
2156.23,1472.03
2157.68,1462.25
2159.13,1476.15
2160.58,1490.57
2162.04,1481.13
2163.49,1528.83
2164.94,1520.52
2166.39,1484.1
2167.84,1493.17
2169.3,1491.05
2170.75,1502.77
2172.2,1506.04
2173.65,1502.77
2175.1,1522.55
2176.55,1538.55
2178.01,1533.83
2179.46,1503.28
2180.91,1529.09
2182.36,1537.72
2183.81,1555.71
2185.27,1545.87
2186.72,1565.37
2188.17,1577.59
2189.62,1547.3
2191.07,1548.9
2192.52,1560.9
2193.98,1560.01
2195.43,1540.29
2196.88,1558.46
2198.33,1557.48
2199.78,1533.79
2201.24,1536.97
2202.69,1558.94
2204.14,1577.88
2205.59,1521.47
2207.04,1579.23
2208.49,1564.4
2209.95,1560.8
2211.4,1593.89
2212.85,1566.14
2214.3,1557.46
2215.75,1534.03
2217.2,1562.64
2218.66,1564.58
2220.11,1593.89
2221.56,1587.04
2223.01,1567.12
2224.46,1587.12
2225.92,1598.14
2227.37,1596.05
2228.82,1539.36
2230.27,1606.08
2231.72,1549.58
2233.17,1550.26
2234.63,1595.11
2236.08,1597.03
2237.53,1588.5
2238.98,1576.18
2240.43,1628.62
2241.89,1593.27
2243.34,1613.78
2244.79,1589.19
2246.24,1622.87
2247.69,1617.29
2249.14,1616.7
2250.6,1605.13
2252.05,1611.14
2253.5,1590.61
2254.95,1608.79
2256.4,1613.9
2257.85,1648.5
2259.31,1649.14
2260.76,1644.2
2262.21,1630.03
2263.66,1653.97
2265.11,1658.67
2266.57,1649.45
2268.02,1651.34
2269.47,1688.95
2270.92,1679.27
2272.37,1659.84
2273.82,1675.55
2275.28,1684.91
2276.73,1681
2278.18,1658.52
2279.63,1687.44
2281.08,1699.65
2282.54,1683.12
2283.99,1706.1
2285.44,1710.03
2286.89,1716.72
2288.34,1715.62
2289.79,1684.9
2291.25,1724.63
2292.7,1736.87
2294.15,1720.69
2295.6,1736.32
2297.05,1772.23
2298.5,1770.9
2299.96,1701.18
2301.41,1725.5
2302.86,1753.08
2304.31,1772.86
2305.76,1781.45
2307.22,1747.29
2308.67,1776.36
2310.12,1759.51
2311.57,1798.25
2313.02,1803.21
2314.47,1808.73
2315.93,1807.91
2317.38,1807.72
2318.83,1796.52
2320.28,1807.58
2321.73,1798.16
2323.19,1823.76
2324.64,1827.16
2326.09,1825.34
2327.54,1840.19
2328.99,1857.94
2330.44,1859.1
2331.9,1867.84
2333.35,1910
2334.8,1893.06
2336.25,1910.27
2337.7,1895.89
2339.16,1907.63
2340.61,1937.23
2342.06,1946.24
2343.51,1929.63
2344.96,1971.6
2346.41,1941.57
2347.87,1927.11
2349.32,1961.53
2350.77,1992.67
2352.22,2039.26
2353.67,1993.97
2355.12,1999.11
2356.58,2005.35
2358.03,2059.49
2359.48,2047.35
2360.93,2098.85
2362.38,2057.51
2363.84,2076.99
2365.29,2108.38
2366.74,2146.66
2368.19,2111.01
2369.64,2169.22
2371.09,2162.1
2372.55,2192.58
2374,2210.75
2375.45,2227.89
2376.9,2271.08
2378.35,2289.65
2379.8,2290.26
2381.26,2326.71
2382.71,2321.74
2384.16,2353.36
2385.61,2421.55
2387.06,2484.91
2388.52,2490.57
2389.97,2460.51
2391.42,2479.59
2392.87,2591.64
2394.32,2636.68
2395.77,2735.46
2397.23,2736.05
2398.68,2749.01
2400.13,2780.83
2401.58,2853.75
2403.03,2880.14
2404.49,2953.91
2405.94,2999.49
2407.39,3031.45
2408.84,3087.03
2410.29,3164.08
2411.74,3169.91
2413.2,3203.59
2414.65,3262.95
2416.1,3290.09
2417.55,3344.65
2419,3373.71
2420.46,3397.89
2421.91,3382.08
2423.36,3411.38
2424.81,3469.01
2426.26,3492.4
2427.71,3429.99
2429.17,3466.71
2430.62,3516.59
2432.07,3480.22
2433.52,3447.4
2434.97,3491.43
2436.42,3480.63
2437.88,3471.48
2439.33,3438.79
2440.78,3448.01
2442.23,3397.36
2443.68,3375.74
2445.14,3360.22
2446.59,3327.58
2448.04,3295.36
2449.49,3277.15
2450.94,3328.82
2452.39,3269.64
2453.85,3303.17
2455.3,3267.63
2456.75,3180.22
2458.2,3140.84
2459.65,3134.08
2461.1,3171.67
2462.56,3127.61
2464.01,3101.38
2465.46,3141.92
2466.91,3109.22
2468.36,3070.96
2469.82,3073.52
2471.27,3026.88
2472.72,3039.7
2474.17,3048.6
2475.62,3026.01
2477.07,3098.34
2478.53,3048.33
2479.98,3033.53
2481.43,2991.01
2482.88,3019.84
2484.33,3047
2485.79,3038.99
2487.24,3005.55
2488.69,2986.37
2490.14,3004.07
2491.59,3032.34
2493.04,3035.56
2494.5,2985.88
2495.95,3086.9
2497.4,3037.71
2498.85,3036.72
2500.3,3015.77
2501.76,3081.44
2503.21,3045.99
2504.66,3033.34
2506.11,3097.86
2507.56,3058.33
2509.01,3080.05
2510.47,3087.29
2511.92,3101.63
2513.37,3138.79
2514.82,3139.56
2516.27,3157.4
2517.72,3162.46
2519.18,3223.64
2520.63,3232.37
2522.08,3263.03
2523.53,3296.63
2524.98,3276.71
2526.44,3303.44
2527.89,3315.64
2529.34,3344.02
2530.79,3428.8
2532.24,3461.13
2533.69,3487.3
2535.15,3548.74
2536.6,3558.35
2538.05,3559.02
2539.5,3604.96
2540.95,3679.99
2542.41,3689.83
2543.86,3710.7
2545.31,3780.53
2546.76,3855.89
2548.21,3905.35
2549.66,3937.1
2551.12,4016.05
2552.57,4081.65
2554.02,4108.78
2555.47,4197.75
2556.92,4217.04
2558.37,4294.68
2559.83,4339.74
2561.28,4474.9
2562.73,4522.07
2564.18,4613.51
2565.63,4696.26
2567.09,4817.35
2568.54,4899.6
2569.99,4964.87
2571.44,5042.77
2572.89,5110.65
2574.34,5292.03
2575.8,5420.68
2577.25,5517.81
2578.7,5643.89
2580.15,5753.94
2581.6,5958.92
2583.06,6138.72
2584.51,6193.11
2585.96,6373.71
2587.41,6575.47
2588.86,6725.88
2590.31,6898.35
2591.77,7141.66
2593.22,7373.39
2594.67,7550.7
2596.12,7751.33
2597.57,8021.47
2599.02,8367.13
2600.48,8635.67
2601.93,8855.91
2603.38,9227.86
2604.83,9581.37
2606.28,9868.13
2607.74,10126.2
2609.19,10596.8
2610.64,11094.9
2612.09,11493.1
2613.54,11952
2614.99,12323.7
2616.45,12813.4
2617.9,13376.9
2619.35,13885
2620.8,14276.7
2622.25,14783.4
2623.71,15460.3
2625.16,16062.9
2626.61,16695.8
2628.06,17336.4
2629.51,18015.8
2630.96,18687
2632.42,19305.6
2633.87,19971.2
2635.32,20700
2636.77,21223.3
2638.22,21905.1
2639.68,22580.2
2641.13,23134.2
2642.58,23736.5
2644.03,24412.2
2645.48,24851.7
2646.93,25417.9
2648.39,26069.4
2649.84,26176.4
2651.29,26641.7
2652.74,26981.7
2654.19,27216.9
2655.64,27497.3
2657.1,27599.5
2658.55,27621.4
2660,27586.4
2661.45,27523.2
2662.9,27203.2
2664.36,27167.7
2665.81,26803.9
2667.26,26549.6
2668.71,26235.1
2670.16,25690.7
2671.61,25116.8
2673.07,24512.3
2674.52,24174.3
2675.97,23392.6
2677.42,22754.7
2678.87,22071.8
2680.32,21451.4
2681.78,20823.1
2683.23,20207.2
2684.68,19428.7
2686.13,18658.8
2687.58,17912
2689.04,17207.5
2690.49,16594.6
2691.94,15980.7
2693.39,15205.4
2694.84,14702.1
2696.29,14089
2697.75,13507.1
2699.2,12924.5
2700.65,12441.7
2702.1,11949
2703.55,11349.8
2705.01,10883
2706.46,10380.7
2707.91,9985.9
2709.36,9736.8
2710.81,9268.59
2712.26,8797.25
2713.72,8536.01
2715.17,8300.66
2716.62,7991.59
2718.07,7658.06
2719.52,7318.51
2720.98,7089.13
2722.43,6842.75
2723.88,6657.94
2725.33,6429.21
2726.78,6199.26
2728.23,5994.5
2729.69,5807.99
2731.14,5652.17
2732.59,5535.32
2734.04,5374.58
2735.49,5217.19
2736.94,5090.3
2738.4,4975.43
2739.85,4833.99
2741.3,4738.67
2742.75,4622.54
2744.2,4564.07
2745.66,4394.25
2747.11,4354.42
2748.56,4244.07
2750.01,4163.71
2751.46,4066.07
2752.91,3968.38
2754.37,3907.17
2755.82,3895.59
2757.27,3795.37
2758.72,3729.4
2760.17,3699.19
2761.63,3621.08
2763.08,3538.81
2764.53,3593.2
2765.98,3440.29
2767.43,3457.45
2768.88,3375.74
2770.34,3298.73
2771.79,3275.04
2773.24,3233.51
2774.69,3258.41
2776.14,3266.89
2777.59,3149.69
2779.05,3187.56
2780.5,3065.53
2781.95,3002.98
2783.4,3055.95
2784.85,2972.97
2786.31,2900.03
2787.76,2908.15
2789.21,2879.76
2790.66,2889.13
2792.11,2884.82
2793.56,2816.76
2795.02,2824.47
2796.47,2746.81
2797.92,2710.2
2799.37,2733.56
2800.82,2672.7
2802.28,2687.68
2803.73,2641.81
2805.18,2651.95
2806.63,2678.09
2808.08,2640.38
2809.53,2592.29
2810.99,2598.57
2812.44,2522.64
2813.89,2570.54
2815.34,2551.76
2816.79,2524.32
2818.24,2508.68
2819.7,2472.02
2821.15,2447.01
2822.6,2472.57
2824.05,2377.74
2825.5,2385.07
2826.96,2407.21
2828.41,2433.97
2829.86,2393.85
2831.31,2411.21
2832.76,2380.27
2834.21,2339.32
2835.67,2375.5
2837.12,2366.02
2838.57,2324.88
2840.02,2383.52
2841.47,2330.84
2842.93,2342.62
2844.38,2297.27
2845.83,2325.75
2847.28,2315.6
2848.73,2306.34
2850.18,2285.65
2851.64,2340.3
2853.09,2320.05
2854.54,2314.11
2855.99,2288.05
2857.44,2266.35
2858.9,2235.43
2860.35,2312.66
2861.8,2253.68
2863.25,2307.34
2864.7,2320.06
2866.15,2304.26
2867.61,2286.26
2869.06,2280.87
2870.51,2336.27
2871.96,2287.14
2873.41,2238.34
2874.86,2293.35
2876.32,2257.04
2877.77,2335.71
2879.22,2314.36
2880.67,2293.26
2882.12,2244.03
2883.58,2244.39
2885.03,2272.25
2886.48,2312.47
2887.93,2308.56
2889.38,2358.97
2890.83,2314.12
2892.29,2316.14
2893.74,2296.84
2895.19,2328.48
2896.64,2317.48
2898.09,2276.15
2899.54,2318.86
2901,2307.05
2902.45,2315.61
2903.9,2321.44
2905.35,2359.21
2906.8,2338.18
2908.26,2309.48
2909.71,2297.8
2911.16,2276.05
2912.61,2309.81
2914.06,2320.92
2915.51,2298.44
2916.97,2303.05
2918.42,2257.62
2919.87,2275.53
2921.32,2209.98
2922.77,2248.63
2924.23,2209.06
2925.68,2196.51
2927.13,2208.44
2928.58,2220.55
2930.03,2170.25
2931.48,2195.06
2932.94,2131.96
2934.39,2111.44
2935.84,2093.96
2937.29,2073.19
2938.74,2117.23
2940.2,2097.89
2941.65,2012.8
2943.1,1983.45
2944.55,2012.2
2946,1983.79
2947.45,1971.85
2948.91,1976.66
2950.36,1940.97
2951.81,1929.69
2953.26,1902.71
2954.71,1850.91
2956.16,1884.56
2957.62,1849.31
2959.07,1813.18
2960.52,1821.55
2961.97,1807.9
2963.42,1802.5
2964.88,1769.05
2966.33,1788.76
2967.78,1777.6
2969.23,1748.65
2970.68,1752.2
2972.13,1748.65
2973.59,1753.19
2975.04,1741.51
2976.49,1701.85
2977.94,1709.03
2979.39,1665.93
2980.84,1686.25
2982.3,1676.49
2983.75,1682.57
2985.2,1648.2
2986.65,1648.04
2988.1,1659.61
2989.56,1628.21
2991.01,1629.06
2992.46,1646.15
2993.91,1607.22
2995.36,1625.42
2996.81,1660.82
2998.27,1618.56
2999.72,1608.21
3001.17,1574.17
3002.62,1563.74
3004.07,1565.23
3005.53,1604.89
3006.98,1580.77
3008.43,1591.77
3009.88,1599.41
3011.33,1579.03
3012.78,1583.36
3014.24,1572.06
3015.69,1586.14
3017.14,1569.48
3018.59,1562.67
3020.04,1531.53
3021.5,1570.64
3022.95,1566.26
3024.4,1549.68
3025.85,1543.25
3027.3,1546.76
3028.75,1585.97
3030.21,1542.45
3031.66,1544.45
3033.11,1557.01
3034.56,1528.98
3036.01,1523.72
3037.46,1552.11
3038.92,1552.3
3040.37,1525.16
3041.82,1549.58
3043.27,1513.98
3044.72,1548.75
3046.18,1522.69
3047.63,1535.45
3049.08,1528.71
3050.53,1570.63
3051.98,1556.31
3053.43,1547.49
3054.89,1551.42
3056.34,1581.95
3057.79,1561.98
3059.24,1535.94
3060.69,1543.5
3062.15,1563.15
3063.6,1534.09
3065.05,1537.4
3066.5,1582.62
3067.95,1576.31
3069.4,1597.04
3070.86,1600.26
3072.31,1607.11
3073.76,1568.86
3075.21,1584.72
3076.66,1625.35
3078.11,1613.42
3079.57,1609.36
3081.02,1642.91
3082.47,1630.35
3083.92,1639.8
3085.37,1645.92
3086.83,1697.35
3088.28,1662.57
3089.73,1665.31
3091.18,1699.04
3092.63,1731.85
3094.08,1750.27
3095.54,1726.53
3096.99,1754.81
3098.44,1841.63
3099.89,1788.8
3101.34,1843.34
3102.8,1844.49
3104.25,1855.75
3105.7,1890.61
3107.15,1894.65
3108.6,1937.67
3110.05,1973.69
3111.51,1917.01
3112.96,1981.03
3114.41,2023.41
3115.86,2050.39
3117.31,2079.97
3118.76,2107.9
3120.22,2172.68
3121.67,2132.04
3123.12,2166.99
3124.57,2233.67
3126.02,2225.75
3127.48,2223.34
3128.93,2243.41
3130.38,2269.86
3131.83,2319.99
3133.28,2338.7
3134.73,2327.21
3136.19,2373.06
3137.64,2390.71
3139.09,2375.89
3140.54,2406.1
3141.99,2397.76
3143.45,2392.79
3144.9,2459.86
3146.35,2437.72
3147.8,2412.32
3149.25,2488.36
3150.7,2431.49
3152.16,2453.86
3153.61,2422.13
3155.06,2469.68
3156.51,2455.63
3157.96,2461.44
3159.42,2416.64
3160.87,2474.88
3162.32,2470.82
3163.77,2436.28
3165.22,2482.18
3166.67,2517.79
3168.13,2478.17
3169.58,2480.14
3171.03,2560.85
3172.48,2539.77
3173.93,2546.09
3175.38,2556.27
3176.84,2608.49
3178.29,2638.89
3179.74,2720.48
3181.19,2629.94
3182.64,2670.4
3184.1,2755.73
3185.55,2712.78
3187,2711.76
3188.45,2758.31
3189.9,2864.36
3191.35,2857.04
3192.81,2874.14
3194.26,2820.25
3195.71,2894.84
3197.16,2939.37
3198.61,2923.03
3200.06,2916.54
3201.52,2948.59
3202.97,2962.49
3204.42,2939.26
3205.87,2892.38
3207.32,2880.58
3208.78,2860.78
3210.23,2841.84
3211.68,2759.63
3213.13,2693.98
3214.58,2700.93
3216.03,2648.33
3217.49,2638.77
3218.94,2618.9
3220.39,2512.99
3221.84,2476.08
3223.29,2384.4
3224.75,2328.03
3226.2,2282.95
3227.65,2233.44
3229.1,2204.02
3230.55,2129.56
3232,2051.86
3233.46,2018.94
3234.91,1963.83
3236.36,1905.31
3237.81,1856.87
3239.26,1846.52
3240.72,1790.6
3242.17,1767.95
3243.62,1698.25
3245.07,1680.14
3246.52,1654.58
3247.97,1644.99
3249.43,1618.01
3250.88,1562.39
3252.33,1531.32
3253.78,1546.62
3255.23,1510
3256.68,1498.65
3258.14,1481.59
3259.59,1422.37
3261.04,1430.3
3262.49,1408.41
3263.94,1390.91
3265.4,1418.71
3266.85,1381.14
3268.3,1401.83
3269.75,1357.34
3271.2,1389.61
3272.65,1372.15
3274.11,1336.37
3275.56,1310.54
3277.01,1366.41
3278.46,1358.03
3279.91,1343.99
3281.37,1322.38
3282.82,1312.86
3284.27,1319.31
3285.72,1326.87
3287.17,1300.81
3288.62,1298.19
3290.08,1334.07
3291.53,1327.46
3292.98,1304.93
3294.43,1298.68
3295.88,1306.85
3297.33,1318.79
3298.79,1289.33
3300.24,1251.85
3301.69,1250.06
3303.14,1255.48
3304.59,1293.1
3306.05,1264.7
3307.5,1251.98
3308.95,1249.61
3310.4,1265.41
3311.85,1307.14
3313.3,1279.12
3314.76,1268.01
3316.21,1264.95
3317.66,1260.41
3319.11,1236.06
3320.56,1252.38
3322.02,1270.49
3323.47,1273.88
3324.92,1255.83
3326.37,1235.86
3327.82,1226.89
3329.27,1257.14
3330.73,1247.01
3332.18,1219.09
3333.63,1228.98
3335.08,1222.41
3336.53,1244.12
3337.98,1269.11
3339.44,1254.92
3340.89,1254.49
3342.34,1235.26
3343.79,1245.01
3345.24,1244.47
3346.7,1230.29
3348.15,1229.76
3349.6,1227.57
3351.05,1249.98
3352.5,1236.17
3353.95,1242.45
3355.41,1263.53
3356.86,1216.31
3358.31,1232.9
3359.76,1224.72
3361.21,1216.47
3362.67,1230.41
3364.12,1181.14
3365.57,1238.31
3367.02,1226.97
3368.47,1222.45
3369.92,1237.78
3371.38,1229.77
3372.83,1261.52
3374.28,1226.17
3375.73,1213.57
3377.18,1217.03
3378.63,1235.3
3380.09,1210.23
3381.54,1188.91
3382.99,1200.97
3384.44,1212.95
3385.89,1224.15
3387.35,1214.07
3388.8,1231.54
3390.25,1230.63
3391.7,1220.32
3393.15,1215.42
3394.6,1225.46
3396.06,1238.59
3397.51,1188.63
3398.96,1202.82
3400.41,1196.86
3401.86,1189.26
3403.32,1221.6
3404.77,1242.3
3406.22,1251.01
3407.67,1210.14
3409.12,1206.54
3410.57,1204.12
3412.03,1220.38
3413.48,1205.25
3414.93,1226.03
3416.38,1194.78
3417.83,1207.58
3419.28,1227.26
3420.74,1218.7
3422.19,1239.72
3423.64,1217.01
3425.09,1211.16
3426.54,1208.3
3428,1187.22
3429.45,1190.28
3430.9,1190.6
3432.35,1190.43
3433.8,1183.31
3435.25,1158.41
3436.71,1185.85
3438.16,1206.67
3439.61,1199.19
3441.06,1211.67
3442.51,1193.15
3443.97,1204.86
3445.42,1232.28
3446.87,1189.88
3448.32,1187.52
3449.77,1190.26
3451.22,1189.78
3452.68,1205.15
3454.13,1185.84
3455.58,1176.34
3457.03,1183.03
3458.48,1186.93
3459.94,1156
3461.39,1170.02
3462.84,1161.64
3464.29,1185.2
3465.74,1200.06
3467.19,1217.09
3468.65,1182.28
3470.1,1197.05
3471.55,1182
3473,1174.67
3474.45,1196.57
3475.9,1176.24
3477.36,1170.66
3478.81,1144.93
3480.26,1158.77
3481.71,1198.32
3483.16,1194.26
3484.62,1216.83
3486.07,1193.38
3487.52,1205.91
3488.97,1212.36
3490.42,1234.28
3491.87,1161.94
3493.33,1183.4
3494.78,1203.49
3496.23,1177.35
3497.68,1172.6
3499.13,1196.66
3500.58,1205.7
3502.04,1184.95
3503.49,1211.28
3504.94,1192.81
3506.39,1206.09
3507.84,1189.37
3509.3,1152.73
3510.75,1200.07
3512.2,1189.17
3513.65,1189.31
3515.1,1197.83
3516.55,1235.39
3518.01,1221.2
3519.46,1208.18
3520.91,1183.17
3522.36,1192.55
3523.81,1216.27
3525.27,1152.6
3526.72,1169.24
3528.17,1178.88
3529.62,1193.31
3531.07,1210.74
3532.52,1194.7
3533.98,1222.39
3535.43,1190.75
3536.88,1209.43
3538.33,1194.73
3539.78,1192.53
3541.24,1199.62
3542.69,1162.47
3544.14,1200.33
3545.59,1217.47
3547.04,1168.05
3548.49,1181.19
3549.95,1183.61
3551.4,1185.22
3552.85,1153.41
3554.3,1183.82
3555.75,1174.51
3557.2,1190.25
3558.66,1156.23
3560.11,1171.39
3561.56,1187.33
3563.01,1164.32
3564.46,1182.22
3565.92,1197.76
3567.37,1182.55
3568.82,1190.8
3570.27,1180.39
3571.72,1193.28
3573.17,1171.64
3574.63,1189.09
3576.08,1200.81
3577.53,1154.59
3578.98,1168.64
3580.43,1177.73
3581.89,1191.24
3583.34,1206.94
3584.79,1186.85
3586.24,1176.87
3587.69,1180.69
3589.14,1180.82
3590.6,1186.1
3592.05,1167
3593.5,1167.25
3594.95,1186.21
3596.4,1161.38
3597.85,1177.02
3599.31,1170.52
3600.76,1171.3
3602.21,1169.98
3603.66,1181.7
3605.11,1179.93
3606.57,1175.35
3608.02,1190.61
3609.47,1174.22
3610.92,1181.43
3612.37,1187.67
3613.82,1174.08
3615.28,1183.65
3616.73,1169.19
3618.18,1156.05
3619.63,1201.31
3621.08,1149.88
3622.54,1174.05
3623.99,1151.7
3625.44,1185.49
3626.89,1200.59
3628.34,1175.27
3629.79,1182.94
3631.25,1178
3632.7,1190.11
3634.15,1163.48
3635.6,1169.35
3637.05,1209.82
3638.5,1192.28
3639.96,1211.63
3641.41,1160.46
3642.86,1162.99
3644.31,1182.95
3645.76,1162.08
3647.22,1168.76
3648.67,1178.53
3650.12,1148.65
3651.57,1184.82
3653.02,1172.01
3654.47,1182.21
3655.93,1173.23
3657.38,1142.56
3658.83,1205.69
3660.28,1187.19
3661.73,1179.33
3663.19,1171.41
3664.64,1179.9
3666.09,1195.47
3667.54,1205.78
3668.99,1172.71
3670.44,1159.19
3671.9,1199.54
3673.35,1220.6
3674.8,1204.77
3676.25,1182.75
3677.7,1202.62
3679.16,1191.88
3680.61,1206.14
3682.06,1177.14
3683.51,1183.86
3684.96,1187.25
3686.41,1210
3687.87,1176.24
3689.32,1170.72
3690.77,1163.2
3692.22,1219.88
3693.67,1173.21
3695.12,1177.32
3696.58,1214.73
3698.03,1165.6
3699.48,1175.36
3700.93,1200.11
3702.38,1209.4
3703.84,1183.28
3705.29,1207.37
3706.74,1204.43
3708.19,1194.57
3709.64,1171.23
3711.09,1170.28
3712.55,1184.97
3714,1183.2
3715.45,1211.76
3716.9,1207.37
3718.35,1188.91
3719.8,1210.52
3721.26,1178.62
3722.71,1203.84
3724.16,1204.16
3725.61,1215.8
3727.06,1220.13
3728.52,1228.64
3729.97,1224.74
3731.42,1241.11
3732.87,1198.13
3734.32,1211.16
3735.77,1197.72
3737.23,1215.84
3738.68,1214.67
3740.13,1201.81
3741.58,1190.3
3743.03,1250.89
3744.49,1216.07
3745.94,1206.5
3747.39,1212.68
3748.84,1205.09
3750.29,1208.74
3751.74,1205.71
3753.2,1200.59
3754.65,1199.72
3756.1,1224.71
3757.55,1202.32
3759,1217.47
3760.46,1240.05
3761.91,1216.24
3763.36,1232.12
3764.81,1232.71
3766.26,1195.56
3767.71,1213.77
3769.17,1227.33
3770.62,1229.33
3772.07,1228.48
3773.52,1224.86
3774.97,1198.36
3776.42,1212.83
3777.88,1204.56
3779.33,1238.05
3780.78,1227.2
3782.23,1224.18
3783.68,1238.43
3785.14,1196.24
3786.59,1208.3
3788.04,1228.09
3789.49,1252.1
3790.94,1262.62
3792.39,1222.58
3793.85,1219.29
3795.3,1227.17
3796.75,1232.3
3798.2,1242.62
3799.65,1199.78
3801.1,1206.19
3802.56,1233.5
3804.01,1233.85
3805.46,1261.78
3806.91,1235.09
3808.36,1249.56
3809.82,1225.95
3811.27,1211.56
3812.72,1226.82
3814.17,1249.9
3815.62,1251.26
3817.07,1256.93
3818.53,1243.5
3819.98,1241.79
3821.43,1246.79
3822.88,1240.83
3824.33,1272.73
3825.79,1264.67
3827.24,1239.35
3828.69,1240.88
3830.14,1209.72
3831.59,1250.37
3833.04,1242.79
3834.5,1240.8
3835.95,1220.06
3837.4,1218.46
3838.85,1270.67
3840.3,1226.57
3841.76,1249.44
3843.21,1247.08
3844.66,1244.74
3846.11,1244.86
3847.56,1230.63
3849.01,1277.62
3850.47,1274.79
3851.92,1276.96
3853.37,1259.91
3854.82,1296.31
3856.27,1281.31
3857.72,1287.74
3859.18,1258.38
3860.63,1275.04
3862.08,1259.78
3863.53,1282.92
3864.98,1323.57
3866.44,1289.43
3867.89,1286.05
3869.34,1268.59
3870.79,1254
3872.24,1294.09
3873.69,1303.78
3875.15,1281.42
3876.6,1289.31
3878.05,1289.2
3879.5,1295.21
3880.95,1327.46
3882.41,1303.61
3883.86,1282.06
3885.31,1281.45
3886.76,1312.15
3888.21,1295.68
3889.66,1300.38
3891.12,1306.27
3892.57,1264.5
3894.02,1317.43
3895.47,1307.14
3896.92,1341.28
3898.37,1296.22
3899.83,1293.65
3901.28,1319.77
3902.73,1314.67
3904.18,1323.59
3905.63,1353.79
3907.09,1288.27
3908.54,1338.66
3909.99,1343.83
3911.44,1348.66
3912.89,1381.08
3914.34,1350.82
3915.8,1344
3917.25,1382.83
3918.7,1357.19
3920.15,1320.77
3921.6,1366.34
3923.06,1318.23
3924.51,1314.54
3925.96,1345.91
3927.41,1380.45
3928.86,1365.29
3930.31,1384.21
3931.77,1393.86
3933.22,1394.84
3934.67,1396.69
3936.12,1396.92
3937.57,1381.6
3939.02,1341.42
3940.48,1395.71
3941.93,1440.32
3943.38,1440.14
3944.83,1396.13
3946.28,1425.88
3947.74,1444.68
3949.19,1461.86
3950.64,1439.1
3952.09,1446.13
3953.54,1402.12
3954.99,1443.02
3956.45,1435.41
3957.9,1425.88
3959.35,1457.62
3960.8,1435.9
3962.25,1457.62
3963.71,1442.29
3965.16,1432.53
3966.61,1449.91
3968.06,1458.57
3969.51,1458.63
3970.96,1489.63
3972.42,1466.7
3973.87,1468.99
3975.32,1489.84
3976.77,1490.85
3978.22,1472.79
3979.68,1503.81
3981.13,1489.67
3982.58,1502.06
3984.03,1521.23
3985.48,1527.27
3986.93,1491.3
3988.39,1525.27
3989.84,1529.48
3991.29,1501.75
3992.74,1526.57
3994.19,1507.42
3995.64,1514.89
3997.1,1539.96
3998.55,1531.09
4000,1535.24
