-20,41.0742
-18.5482,50.7667
-17.0964,56.9353
-15.6446,50.5938
-14.1928,75.6725
-12.7411,84.1571
-11.2893,88.6228
-9.83749,104.908
-8.3857,135.746
-6.93391,205.248
-5.48212,116.246
-4.03034,116.246
-2.57855,116.246
-1.12676,116.246
0.325027,116.246
1.77681,116.246
3.2286,116.246
4.68039,116.246
6.13218,116.246
7.58397,335.548
9.03575,148.606
10.4875,132.659
11.9393,116.903
13.3911,101.539
14.8429,89.419
16.2947,85.9657
17.7465,74.7309
19.1983,67.703
20.6501,58.5794
22.1018,50.2773
23.5536,43.8399
25.0054,28.5066
26.4572,16.8455
27.909,9.32279
29.3608,4.13531
30.8126,-2.31309
32.2644,-6.32192
33.7161,-2.95216
35.1679,-5.04731
36.6197,-13.1334
38.0715,-8.59893
39.5233,-14.9762
40.9751,-13.6397
42.4269,-6.61484
43.8787,-7.40403
45.3304,3.15772
46.7822,11.4985
48.234,32.0216
49.6858,78.2488
51.1376,162.062
52.5894,322.157
54.0412,558.74
55.493,834.174
56.9447,1139.2
58.3965,1434.63
59.8483,1668.13
61.3001,1850.8
62.7519,1989.09
64.2037,2099.85
65.6555,2182.96
67.1073,2255.55
68.559,2309.38
70.0108,2342.2
71.4626,2369.31
72.9144,2376.2
74.3662,2442.92
75.818,2483.39
77.2698,2498.22
78.7216,2563.84
80.1733,2629.61
81.6251,2684.15
83.0769,2740.11
84.5287,2812.35
85.9805,2778.59
87.4323,2682.07
88.8841,2571.69
90.3359,2470.08
91.7877,2373.82
93.2394,2188.75
94.6912,2092.03
96.143,1982.85
97.5948,1927.62
99.0466,1958.83
100.498,1865.38
101.95,1827.84
103.402,1795.14
104.854,1751.35
106.306,1726.07
107.757,1704.52
109.209,1702.29
110.661,1674.76
112.113,1620.94
113.564,1583.52
115.016,1569.88
116.468,1584.47
117.92,1564.04
119.372,1498.6
120.823,1474.5
122.275,1448.12
123.727,1399.82
125.179,1359.81
126.631,1336.24
128.082,1270.94
129.534,1275.18
130.986,1271.31
132.438,1257.56
133.889,1247.91
135.341,1221.41
136.793,1198.43
138.245,1192.91
139.697,1181.86
141.148,1167.36
142.6,1129.77
144.052,1092.22
145.504,1069.57
146.956,1054.88
148.407,1048.85
149.859,1048
151.311,1026.7
152.763,1012.54
154.215,1003.66
155.666,994.144
157.118,1021.31
158.57,1017.28
160.022,1017.59
161.473,1024.91
162.925,1014.67
164.377,1005.42
165.829,1005.22
167.281,1015.44
168.732,1004.55
170.184,979.815
171.636,942.529
173.088,901.823
174.54,884.709
175.991,884.087
177.443,850.611
178.895,855.68
180.347,843.102
181.798,834.194
183.25,828.962
184.702,810.161
186.154,800.859
187.606,799.062
189.057,808.716
190.509,820.487
191.961,797.57
193.413,792.684
194.865,779.436
196.316,768.66
197.768,786.317
199.22,773.689
200.672,763.816
202.124,757.444
203.575,747.022
205.027,745.272
206.479,745.987
207.931,755.973
209.382,744.241
210.834,738.593
212.286,750.022
213.738,768.98
215.19,773.083
216.641,767.264
218.093,756.139
219.545,750.158
220.997,735.259
222.449,727.924
223.9,746.736
225.352,746.573
226.804,731.62
228.256,731.745
229.707,757.197
231.159,760.602
232.611,758.231
234.063,746.361
235.515,757.113
236.966,742.5
238.418,742.573
239.87,734.49
241.322,720.396
242.774,732.647
244.225,701.136
245.677,716.518
247.129,731.899
248.581,730.896
250.033,729.555
251.484,687.485
252.936,704.792
254.388,698.872
255.84,691.594
257.291,720.041
258.743,709.531
260.195,714.13
261.647,698.281
263.099,676.456
264.55,682.103
266.002,693.128
267.454,692.847
268.906,695.459
270.358,689.529
271.809,673.623
273.261,686.841
274.713,672.478
276.165,652.294
277.616,637.463
279.068,636.688
280.52,641.69
281.972,644.447
283.424,640.768
284.875,633.573
286.327,617.965
287.779,609.193
289.231,608.972
290.683,624.887
292.134,620.903
293.586,599.542
295.038,581.655
296.49,616.288
297.941,618.351
299.393,596.685
300.845,581.805
302.297,588.289
303.749,563.574
305.2,565.329
306.652,556.544
308.104,550.261
309.556,555.65
311.008,553.564
312.459,556.064
313.911,561.818
315.363,556.613
316.815,542.549
318.267,519.739
319.718,523.502
321.17,534.824
322.622,527.651
324.074,523.49
325.525,535.566
326.977,532.383
328.429,521.662
329.881,523.628
331.333,537.747
332.784,552.768
334.236,552.954
335.688,530.088
337.14,515.897
338.592,509.817
340.043,507.171
341.495,521.516
342.947,500.717
344.399,497.968
345.85,506.976
347.302,510.443
348.754,500.383
350.206,497.943
351.658,515.473
353.109,512.301
354.561,505.89
356.013,514.287
357.465,512.725
358.917,517.626
360.368,508.715
361.82,497.391
363.272,487.703
364.724,469.038
366.176,478.379
367.627,485.543
369.079,488.427
370.531,491.676
371.983,497.531
373.434,499.347
374.886,492.954
376.338,485.1
377.79,486.98
379.242,495.325
380.693,489.412
382.145,508.826
383.597,495.389
385.049,474.24
386.501,467.215
387.952,474.698
389.404,478.492
390.856,460.698
392.308,467.582
393.759,487.028
395.211,493.291
396.663,487.459
398.115,462.132
399.567,479.022
401.018,501.537
402.47,494.789
403.922,459.794
405.374,479.904
406.826,464.358
408.277,469.142
409.729,482.352
411.181,491.463
412.633,488.668
414.085,468.114
415.536,446.941
416.988,456.444
418.44,480.376
419.892,500.476
421.343,482.014
422.795,476.703
424.247,473.604
425.699,462.823
427.151,451.728
428.602,467.476
430.054,468.163
431.506,461.744
432.958,462.214
434.41,462.129
435.861,458.245
437.313,453.073
438.765,462.957
440.217,468.876
441.668,476.187
443.12,478.922
444.572,459.511
446.024,465.968
447.476,459.507
448.927,448.368
450.379,448.139
451.831,455.782
453.283,450.039
454.735,467.185
456.186,461.639
457.638,454.294
459.09,458.748
460.542,471.998
461.993,456.613
463.445,461.589
464.897,455.439
466.349,462.859
467.801,473.676
469.252,441.335
470.704,438.98
472.156,462.583
473.608,484.699
475.06,485.349
476.511,464.155
477.963,441.577
479.415,449.339
480.867,466.251
482.319,466.857
483.77,454.025
485.222,452.46
486.674,440.986
488.126,457.767
489.577,484.327
491.029,482.058
492.481,452.608
493.933,436.08
495.385,456.337
496.836,448.665
498.288,445.156
499.74,456.356
501.192,465.115
502.644,441.811
504.095,445.324
505.547,438.114
506.999,438.196
508.451,428.909
509.902,421.23
511.354,442.753
512.806,431.201
514.258,444.904
515.71,445.512
517.161,432.95
518.613,435.554
520.065,451.544
521.517,444.689
522.969,441.737
524.42,435.51
525.872,431.56
527.324,433.803
528.776,455.41
530.228,440.55
531.679,443.433
533.131,453.049
534.583,456.345
536.035,461.122
537.486,449.953
538.938,442.138
540.39,444.434
541.842,435.074
543.294,435.195
544.745,447.137
546.197,447.512
547.649,439.72
549.101,439.146
550.553,441.568
552.004,439.571
553.456,447.892
554.908,434.641
556.36,431.76
557.811,443.735
559.263,453.206
560.715,448.413
562.167,447.791
563.619,453.998
565.07,419.328
566.522,420.613
567.974,434.962
569.426,438.881
570.878,430.299
572.329,436.27
573.781,438.921
575.233,435.049
576.685,430.949
578.137,437.397
579.588,438.82
581.04,427.529
582.492,427.283
583.944,424.438
585.395,425.792
586.847,437.308
588.299,431.308
589.751,428.015
591.203,425.552
592.654,430.59
594.106,443.421
595.558,443.607
597.01,424.443
598.462,427.513
599.913,423.996
601.365,428.559
602.817,441.869
604.269,445.104
605.72,429.677
607.172,463.419
608.624,446.898
610.076,442.486
611.528,438.452
612.979,425.47
614.431,422.43
615.883,440.64
617.335,443.98
618.787,448.936
620.238,455.274
621.69,459.247
623.142,448.343
624.594,432.505
626.046,423.012
627.497,450.226
628.949,447.586
630.401,448.517
631.853,465.156
633.304,453.84
634.756,425.905
636.208,450.314
637.66,455.187
639.112,466.291
640.563,475.004
642.015,477.708
643.467,466.484
644.919,475.339
646.371,465.625
647.822,456.42
649.274,463.428
650.726,469.582
652.178,460.616
653.629,466.215
655.081,457.452
656.533,467.941
657.985,467.106
659.437,451.53
660.888,473.409
662.34,490.318
663.792,477.534
665.244,476.817
666.696,475.593
668.147,470.463
669.599,478.29
671.051,452.965
672.503,472.73
673.954,472.141
675.406,466.792
676.858,466.863
678.31,476.788
679.762,475.053
681.213,481.619
682.665,476.777
684.117,472.381
685.569,477.902
687.021,483.414
688.472,465.429
689.924,458.281
691.376,472.266
692.828,468.334
694.28,481.003
695.731,478.604
697.183,456.966
698.635,482.652
700.087,458.206
701.538,461.972
702.99,469.22
704.442,474.603
705.894,490.838
707.346,490.567
708.797,483.117
710.249,463.971
711.701,487.677
713.153,507.481
714.605,497.039
716.056,484.816
717.508,474.149
718.96,476.178
720.412,474.882
721.863,485.186
723.315,487.224
724.767,474.598
726.219,464.713
727.671,494.967
729.122,479.955
730.574,484.358
732.026,493.153
733.478,486.314
734.93,480.484
736.381,482.549
737.833,482.422
739.285,483.558
740.737,489.405
742.189,495.831
743.64,499.64
745.092,495.282
746.544,486.845
747.996,505.025
749.447,500.813
750.899,494.359
752.351,489.375
753.803,488.777
755.255,488.402
756.706,486.539
758.158,499.472
759.61,483.022
761.062,478.005
762.514,487.225
763.965,490.12
765.417,493.361
766.869,494.483
768.321,493.738
769.772,505.982
771.224,507.828
772.676,498.137
774.128,493.079
775.58,498.933
777.031,494.782
778.483,496.41
779.935,496.691
781.387,488.794
782.839,503.607
784.29,517.744
785.742,495.072
787.194,515.835
788.646,503.642
790.098,506.113
791.549,506.168
793.001,513.054
794.453,533.129
795.905,519.424
797.356,508.568
798.808,513.675
800.26,515.55
801.712,511.928
803.164,504.156
804.615,513.608
806.067,527.981
807.519,510.269
808.971,505.187
810.423,513.833
811.874,512.739
813.326,508.882
814.778,515.336
816.23,537.524
817.681,544.389
819.133,511.181
820.585,526.129
822.037,539.16
823.489,535.631
824.94,519.059
826.392,523.588
827.844,530.123
829.296,519.711
830.748,508.454
832.199,521.387
833.651,537.796
835.103,529.003
836.555,541.393
838.007,551.305
839.458,561.053
840.91,556.829
842.362,542.827
843.814,535.496
845.265,532.53
846.717,537.145
848.169,543.979
849.621,545.276
851.073,560.975
852.524,563.468
853.976,559.504
855.428,563.386
856.88,574.414
858.332,581.321
859.783,565.734
861.235,571.572
862.687,577.939
864.139,572.074
865.59,580.905
867.042,568.75
868.494,555.846
869.946,568.176
871.398,565.895
872.849,548.145
874.301,537.132
875.753,550.12
877.205,551.192
878.657,562.03
880.108,544.862
881.56,570.825
883.012,558.493
884.464,539.561
885.915,553.406
887.367,561.534
888.819,560.652
890.271,576.479
891.723,584.919
893.174,570.132
894.626,574.434
896.078,588.394
897.53,573.6
898.982,555.74
900.433,565.517
901.885,578.507
903.337,569.485
904.789,565.49
906.241,575.67
907.692,588.181
909.144,583.373
910.596,584.244
912.048,607.474
913.499,603.633
914.951,602.417
916.403,601.3
917.855,604.753
919.307,602.326
920.758,586.782
922.21,606.271
923.662,596.752
925.114,594.121
926.566,595.679
928.017,595.467
929.469,593.655
930.921,600.559
932.373,611.868
933.824,611.39
935.276,600.206
936.728,597.081
938.18,617.241
939.632,634.692
941.083,621.719
942.535,598.167
943.987,618.345
945.439,598.103
946.891,591.315
948.342,595.42
949.794,604.934
951.246,608.979
952.698,586.927
954.15,587.772
955.601,614.249
957.053,599.821
958.505,598.22
959.957,608.714
961.408,613.123
962.86,608.411
964.312,613.924
965.764,609.886
967.216,613.956
968.667,628.59
970.119,625.822
971.571,622.005
973.023,615.299
974.475,595.449
975.926,593.413
977.378,613.129
978.83,612.407
980.282,623.691
981.733,603.227
983.185,589.945
984.637,608.951
986.089,631.976
987.541,610.747
988.992,631.836
990.444,622.357
991.896,627.129
993.348,608.443
994.8,614.668
996.251,626.951
997.703,607.181
999.155,628.428
1000.61,640.639
1002.06,615.164
1003.51,643.638
1004.96,631.721
1006.41,628.815
1007.87,645.871
1009.32,659.005
1010.77,666.961
1012.22,655.667
1013.67,628.107
1015.12,654.138
1016.58,677.084
1018.03,668.807
1019.48,671.417
1020.93,689.311
1022.38,682.031
1023.84,708.318
1025.29,686.535
1026.74,706.486
1028.19,700.819
1029.64,701.291
1031.09,709.486
1032.55,719.606
1034,711.713
1035.45,727.325
1036.9,726.038
1038.35,748.315
1039.8,749.138
1041.26,755.7
1042.71,763.169
1044.16,762.95
1045.61,776.21
1047.06,780.245
1048.52,798.409
1049.97,772.942
1051.42,802.781
1052.87,800.543
1054.32,818.28
1055.77,823.44
1057.23,818.197
1058.68,826.082
1060.13,866.557
1061.58,862.734
1063.03,872.056
1064.49,895.724
1065.94,889.751
1067.39,883.358
1068.84,874.462
1070.29,890.864
1071.74,916.804
1073.2,917.417
1074.65,914.88
1076.1,915.268
1077.55,925.078
1079,939.936
1080.46,961.615
1081.91,968.796
1083.36,932.15
1084.81,956.347
1086.26,924.865
1087.71,945.256
1089.17,948.384
1090.62,947.127
1092.07,938.288
1093.52,943.942
1094.97,944.041
1096.42,941.517
1097.88,905.404
1099.33,930.954
1100.78,921.559
1102.23,935.511
1103.68,928.817
1105.14,912.915
1106.59,917.698
1108.04,925.748
1109.49,941.185
1110.94,926.442
1112.39,898.279
1113.85,909.123
1115.3,905.951
1116.75,899.162
1118.2,893.677
1119.65,897.001
1121.11,893.543
1122.56,874.886
1124.01,852.26
1125.46,873.423
1126.91,859.764
1128.36,872.622
1129.82,887.614
1131.27,874.335
1132.72,848.459
1134.17,845.662
1135.62,849.965
1137.07,860.492
1138.53,832.662
1139.98,844.069
1141.43,840.073
1142.88,839.272
1144.33,845.907
1145.79,840.856
1147.24,816.142
1148.69,824.576
1150.14,822.28
1151.59,835.98
1153.04,845.263
1154.5,833.659
1155.95,862.299
1157.4,867.133
1158.85,838.247
1160.3,842.841
1161.76,852.725
1163.21,853.877
1164.66,825.617
1166.11,824.543
1167.56,834.078
1169.01,851.337
1170.47,833.32
1171.92,830.703
1173.37,854.047
1174.82,859.888
1176.27,866.495
1177.72,859.908
1179.18,869.512
1180.63,886.712
1182.08,872.515
1183.53,867.521
1184.98,866.594
1186.44,856.354
1187.89,858.013
1189.34,869.099
1190.79,874.838
1192.24,877.803
1193.69,867.078
1195.15,880.422
1196.6,890.671
1198.05,892.873
1199.5,896.744
1200.95,896.948
1202.41,914.452
1203.86,892.414
1205.31,899.631
1206.76,907.058
1208.21,917.51
1209.66,903.313
1211.12,890.802
1212.57,887.45
1214.02,891.459
1215.47,910.688
1216.92,885.396
1218.37,885.38
1219.83,921.959
1221.28,913.002
1222.73,934.812
1224.18,929.947
1225.63,925.772
1227.09,929.551
1228.54,937.506
1229.99,953.428
1231.44,932.201
1232.89,920.771
1234.34,915.347
1235.8,932.553
1237.25,976.752
1238.7,960.354
1240.15,939.577
1241.6,953.518
1243.06,973.662
1244.51,965.851
1245.96,953.563
1247.41,959.129
1248.86,1030.17
1250.31,1019.27
1251.77,1006.9
1253.22,1021.81
1254.67,1032.98
1256.12,1035.62
1257.57,1048.73
1259.02,1048.73
1260.48,1029.25
1261.93,1090.32
1263.38,1106.56
1264.83,1102.09
1266.28,1147.48
1267.74,1145.22
1269.19,1147.16
1270.64,1152.92
1272.09,1168.89
1273.54,1195.04
1274.99,1205.18
1276.45,1215.68
1277.9,1238.06
1279.35,1258.01
1280.8,1302.97
1282.25,1329.29
1283.71,1351.21
1285.16,1392.23
1286.61,1415.83
1288.06,1417
1289.51,1464.52
1290.96,1500.29
1292.42,1564.97
1293.87,1604.64
1295.32,1634.07
1296.77,1681.01
1298.22,1734.74
1299.67,1784.73
1301.13,1871.58
1302.58,1952.02
1304.03,1981.55
1305.48,2081.74
1306.93,2163.2
1308.39,2251.28
1309.84,2307.29
1311.29,2431.19
1312.74,2512.62
1314.19,2665.65
1315.64,2788.25
1317.1,2928.8
1318.55,3084.42
1320,3167.1
1321.45,3235.82
1322.9,3362.43
1324.36,3490.25
1325.81,3635.23
1327.26,3730.15
1328.71,3736.04
1330.16,3810.95
1331.61,3868.17
1333.07,3841.55
1334.52,3820.67
1335.97,3889.53
1337.42,3830.65
1338.87,3731.9
1340.33,3698.87
1341.78,3614.42
1343.23,3470.18
1344.68,3368.87
1346.13,3241.45
1347.58,3131.09
1349.04,3003.33
1350.49,2864.82
1351.94,2732.72
1353.39,2607.28
1354.84,2476.15
1356.29,2357.51
1357.75,2337.32
1359.2,2194.33
1360.65,2118.99
1362.1,2029.78
1363.55,1970.41
1365.01,1942.88
1366.46,1868.97
1367.91,1763.65
1369.36,1751.14
1370.81,1699.25
1372.26,1635.63
1373.72,1631.58
1375.17,1600.7
1376.62,1564.15
1378.07,1530.85
1379.52,1503.67
1380.98,1455.14
1382.43,1434.44
1383.88,1424.25
1385.33,1399.66
1386.78,1378.53
1388.23,1363.39
1389.69,1370.71
1391.14,1312.44
1392.59,1370.18
1394.04,1288.41
1395.49,1309.24
1396.94,1314.25
1398.4,1302.25
1399.85,1296.79
1401.3,1302.05
1402.75,1285.63
1404.2,1285.17
1405.66,1281.38
1407.11,1296.05
1408.56,1296.61
1410.01,1307.8
1411.46,1298.1
1412.91,1282.47
1414.37,1291.03
1415.82,1288.97
1417.27,1283.98
1418.72,1282.56
1420.17,1306.48
1421.63,1308.13
1423.08,1287.99
1424.53,1283.69
1425.98,1278.04
1427.43,1330.6
1428.88,1329.55
1430.34,1293.27
1431.79,1303.38
1433.24,1320.81
1434.69,1330.83
1436.14,1342.51
1437.59,1334.47
1439.05,1334.71
1440.5,1357.6
1441.95,1373.76
1443.4,1359.35
1444.85,1385.68
1446.31,1357.3
1447.76,1371.63
1449.21,1410.91
1450.66,1461.96
1452.11,1447.39
1453.56,1415.02
1455.02,1444.35
1456.47,1481.49
1457.92,1475.09
1459.37,1483.31
1460.82,1493.75
1462.28,1507.58
1463.73,1545.25
1465.18,1538.55
1466.63,1566.77
1468.08,1601.15
1469.53,1632.69
1470.99,1652.7
1472.44,1649.34
1473.89,1656.81
1475.34,1676.43
1476.79,1707.96
1478.24,1762.99
1479.7,1832.95
1481.15,1840.3
1482.6,1823.17
1484.05,1870.61
1485.5,1911.16
1486.96,1891.89
1488.41,1926.55
1489.86,1999.45
1491.31,2063.79
1492.76,2090.7
1494.21,2119.63
1495.67,2166.26
1497.12,2226.09
1498.57,2269.55
1500.02,2314.17
1501.47,2406.49
1502.93,2499.12
1504.38,2551.91
1505.83,2633.12
1507.28,2700.95
1508.73,2791.41
1510.18,2870.14
1511.64,2976.69
1513.09,3107.38
1514.54,3227.21
1515.99,3359.42
1517.44,3519.31
1518.89,3643.97
1520.35,3840.36
1521.8,4127.24
1523.25,4312.63
1524.7,4580.86
1526.15,4896.83
1527.61,5239.67
1529.06,5600.79
1530.51,5940.57
1531.96,6386.46
1533.41,6884.59
1534.86,7468.55
1536.32,8121.44
1537.77,8837.84
1539.22,9722.08
1540.67,10640
1542.12,11410.3
1543.58,12445.9
1545.03,13488.9
1546.48,14544.2
1547.93,15802.3
1549.38,17034.8
1550.83,18264.2
1552.29,19439.2
1553.74,20599.4
1555.19,21862.1
1556.64,22875.5
1558.09,23845.6
1559.54,24775.3
1561,25495.5
1562.45,26046.4
1563.9,26420.9
1565.35,26500.5
1566.8,26274.3
1568.26,26078.8
1569.71,25525.8
1571.16,24617.8
1572.61,23558.7
1574.06,22404.4
1575.51,21214.9
1576.97,19888.8
1578.42,18517.7
1579.87,17256.4
1581.32,15986.9
1582.77,14687
1584.23,13547.6
1585.68,12497.3
1587.13,11448.6
1588.58,10429.2
1590.03,9685.41
1591.48,8853.62
1592.94,8206.19
1594.39,7630.47
1595.84,7199.35
1597.29,6763.38
1598.74,6381.25
1600.2,5958.84
1601.65,5611.4
1603.1,5358.71
1604.55,5107.9
1606,4847.72
1607.45,4603.7
1608.91,4377.85
1610.36,4105.6
1611.81,3961.16
1613.26,3743.08
1614.71,3556.8
1616.16,3373.67
1617.62,3187.94
1619.07,3091.18
1620.52,2967.86
1621.97,2858.39
1623.42,2738.61
1624.88,2620.31
1626.33,2532.34
1627.78,2423.44
1629.23,2362.5
1630.68,2325.31
1632.13,2220.25
1633.59,2177.47
1635.04,2040.62
1636.49,2053.71
1637.94,1997.52
1639.39,1928.12
1640.85,1856.61
1642.3,1843.41
1643.75,1809.45
1645.2,1790.94
1646.65,1754.57
1648.1,1733.88
1649.56,1713.23
1651.01,1633.37
1652.46,1590.19
1653.91,1585.83
1655.36,1576.01
1656.81,1561.04
1658.27,1519.7
1659.72,1488.51
1661.17,1528.63
1662.62,1430.81
1664.07,1465.02
1665.53,1419.24
1666.98,1420.42
1668.43,1422.56
1669.88,1354.25
1671.33,1345.83
1672.78,1337.5
1674.24,1332.73
1675.69,1310.58
1677.14,1295.25
1678.59,1291.29
1680.04,1299.73
1681.5,1267.86
1682.95,1221.86
1684.4,1241.46
1685.85,1254.78
1687.3,1216.64
1688.75,1208.91
1690.21,1194.75
1691.66,1183.69
1693.11,1176.17
1694.56,1160.88
1696.01,1153.57
1697.46,1142
1698.92,1135.44
1700.37,1113.56
1701.82,1120.7
1703.27,1111.2
1704.72,1113.6
1706.18,1124.38
1707.63,1116.35
1709.08,1105.16
1710.53,1093.75
1711.98,1100.24
1713.43,1105.82
1714.89,1096.55
1716.34,1094.59
1717.79,1079.95
1719.24,1071.79
1720.69,1109.86
1722.15,1082.2
1723.6,1114
1725.05,1093.46
1726.5,1079.23
1727.95,1088.01
1729.4,1114.06
1730.86,1094.41
1732.31,1097.79
1733.76,1075.21
1735.21,1100.74
1736.66,1107.75
1738.11,1100.12
1739.57,1077.52
1741.02,1055.6
1742.47,1069.41
1743.92,1041.52
1745.37,1024.83
1746.83,1048.62
1748.28,1034.15
1749.73,1039.08
1751.18,1047.24
1752.63,984.094
1754.08,1015.48
1755.54,1015.77
1756.99,1022.33
1758.44,997.589
1759.89,1008.15
1761.34,974.256
1762.8,1001.06
1764.25,988.159
1765.7,976.959
1767.15,976.254
1768.6,943.476
1770.05,958.181
1771.51,971.037
1772.96,961.879
1774.41,952.833
1775.86,950.258
1777.31,927.6
1778.76,920.258
1780.22,944.938
1781.67,933.22
1783.12,914.795
1784.57,954.878
1786.02,951.202
1787.48,938.386
1788.93,879.618
1790.38,933.29
1791.83,945.839
1793.28,929.29
1794.73,932.192
1796.19,891.939
1797.64,899.613
1799.09,900.963
1800.54,893.57
1801.99,878.336
1803.45,911.395
1804.9,908.504
1806.35,897.937
1807.8,919.865
1809.25,924.475
1810.7,905.374
1812.16,890.623
1813.61,893.222
1815.06,870.811
1816.51,857.732
1817.96,886.27
1819.41,884.583
1820.87,893.581
1822.32,888.477
1823.77,878.948
1825.22,870.409
1826.67,892.151
1828.13,906.149
1829.58,912.246
1831.03,917.608
1832.48,895.886
1833.93,928.846
1835.38,892.412
1836.84,919.507
1838.29,902.228
1839.74,917.767
1841.19,924.038
1842.64,921.742
1844.1,949.141
1845.55,934.333
1847,929.234
1848.45,931.739
1849.9,940.364
1851.35,930.848
1852.81,947.132
1854.26,958.231
1855.71,959.552
1857.16,955.061
1858.61,949.368
1860.07,965.932
1861.52,973.976
1862.97,974.675
1864.42,947.082
1865.87,947.955
1867.32,943.437
1868.78,930.204
1870.23,942.395
1871.68,949.235
1873.13,929.997
1874.58,935.964
1876.03,935.498
1877.49,941.608
1878.94,905.317
1880.39,935.423
1881.84,935.429
1883.29,924.458
1884.75,906.147
1886.2,896.223
1887.65,909.841
1889.1,894.364
1890.55,897.369
1892,877.873
1893.46,875.757
1894.91,872.92
1896.36,880.841
1897.81,869.899
1899.26,872.15
1900.72,880.378
1902.17,856.086
1903.62,849.437
1905.07,845.738
1906.52,824.797
1907.97,842.575
1909.43,852.024
1910.88,829.987
1912.33,857.78
1913.78,856.115
1915.23,828.069
1916.68,803.575
1918.14,836.631
1919.59,819.877
1921.04,832.494
1922.49,805.092
1923.94,823.344
1925.4,803.43
1926.85,785.741
1928.3,796.609
1929.75,853.047
1931.2,804.452
1932.65,832.96
1934.11,831.373
1935.56,829.565
1937.01,816.26
1938.46,812.781
1939.91,811.426
1941.37,835.305
1942.82,797.879
1944.27,814.211
1945.72,819.276
1947.17,792.595
1948.62,831.276
1950.08,866.939
1951.53,839.312
1952.98,824.886
1954.43,819.374
1955.88,828.251
1957.33,816.608
1958.79,822.615
1960.24,812.323
1961.69,822.285
1963.14,845.644
1964.59,859.057
1966.05,860.613
1967.5,854.592
1968.95,858.614
1970.4,861.038
1971.85,848.993
1973.3,858.267
1974.76,887.244
1976.21,870.111
1977.66,857.073
1979.11,868.905
1980.56,877.735
1982.02,880.4
1983.47,873.991
1984.92,866.948
1986.37,868.568
1987.82,879.667
1989.27,891.214
1990.73,862.477
1992.18,847.483
1993.63,876.214
1995.08,892.263
1996.53,878.419
1997.98,866.738
1999.44,865.731
2000.89,878.248
2002.34,864.958
2003.79,884.233
2005.24,874.877
2006.7,866.074
2008.15,845.573
2009.6,843.382
2011.05,865.529
2012.5,865.45
2013.95,857.399
2015.41,860.357
2016.86,881.337
2018.31,852.714
2019.76,817.784
2021.21,823.72
2022.67,809.045
2024.12,844.08
2025.57,844.486
2027.02,822.312
2028.47,809.532
2029.92,839.236
2031.38,818.626
2032.83,833.576
2034.28,807.472
2035.73,808.42
2037.18,810.972
2038.63,815.992
2040.09,806.094
2041.54,805.799
2042.99,804.297
2044.44,777.201
2045.89,763.087
2047.35,775.115
2048.8,806.48
2050.25,768.439
2051.7,769.844
2053.15,769.537
2054.6,775.73
2056.06,762.242
2057.51,779.346
2058.96,781.895
2060.41,761.339
2061.86,767.342
2063.32,770.352
2064.77,747.874
2066.22,760.686
2067.67,744.761
2069.12,755.764
2070.57,753.265
2072.03,749.43
2073.48,742.028
2074.93,762.476
2076.38,754.28
2077.83,750.504
2079.28,728.211
2080.74,726.638
2082.19,725.103
2083.64,723.859
2085.09,732.286
2086.54,722.347
2088,732.351
2089.45,738.22
2090.9,733.202
2092.35,737.771
2093.8,722.165
2095.25,742.396
2096.71,763.142
2098.16,734.417
2099.61,711.955
2101.06,737.796
2102.51,741.412
2103.97,743.342
2105.42,741.719
2106.87,738.28
2108.32,729.238
2109.77,725.139
2111.22,732.009
2112.68,747.209
2114.13,751.927
2115.58,751.31
2117.03,741.338
2118.48,751.736
2119.94,768.167
2121.39,765.898
2122.84,761.415
2124.29,746.117
2125.74,743.073
2127.19,742.707
2128.65,742.251
2130.1,757.915
2131.55,755.274
2133,755.562
2134.45,771.148
2135.9,773.239
2137.36,767.587
2138.81,760.493
2140.26,754.855
2141.71,757.317
2143.16,762.047
2144.62,762.624
2146.07,770.293
2147.52,795.351
2148.97,790.561
2150.42,773.413
2151.87,788.305
2153.33,772.121
2154.78,778.893
2156.23,778.899
2157.68,783.51
2159.13,793.138
2160.58,772.949
2162.04,770.9
2163.49,786.456
2164.94,786.081
2166.39,792.261
2167.84,793.387
2169.3,816.431
2170.75,819.395
2172.2,807.878
2173.65,803.764
2175.1,794.745
2176.55,780.098
2178.01,809.344
2179.46,790.841
2180.91,785.242
2182.36,813.977
2183.81,854.327
2185.27,814.617
2186.72,822.774
2188.17,812.219
2189.62,827.75
2191.07,833.608
2192.52,819.934
2193.98,841.554
2195.43,818.453
2196.88,814.521
2198.33,843.865
2199.78,853.269
2201.24,834.109
2202.69,836.74
2204.14,806.801
2205.59,837.201
2207.04,802.019
2208.49,856.084
2209.95,837.545
2211.4,837.039
2212.85,812.423
2214.3,816.48
2215.75,850.779
2217.2,838.335
2218.66,838.492
2220.11,815.333
2221.56,844.872
2223.01,824.153
2224.46,830.711
2225.92,827.645
2227.37,810.262
2228.82,808.144
2230.27,820.205
2231.72,849.002
2233.17,847.344
2234.63,851.055
2236.08,840.519
2237.53,831.379
2238.98,841.466
2240.43,868.148
2241.89,845.888
2243.34,854.485
2244.79,855.812
2246.24,872.624
2247.69,882.164
2249.14,878.429
2250.6,879.52
2252.05,876.195
2253.5,881.935
2254.95,897.667
2256.4,899.226
2257.85,874.308
2259.31,876.328
2260.76,882.578
2262.21,876.21
2263.66,890.567
2265.11,907.878
2266.57,908.506
2268.02,907.93
2269.47,896.899
2270.92,889.238
2272.37,908.536
2273.82,910.377
2275.28,927.503
2276.73,906.665
2278.18,927.228
2279.63,928.024
2281.08,925.662
2282.54,933.164
2283.99,949.78
2285.44,938.837
2286.89,945.964
2288.34,944.142
2289.79,930.957
2291.25,978.419
2292.7,933.972
2294.15,948.455
2295.6,945.58
2297.05,965.831
2298.5,957.045
2299.96,956.181
2301.41,970.786
2302.86,960.644
2304.31,972.352
2305.76,993.72
2307.22,982.456
2308.67,1001.27
2310.12,996.88
2311.57,981.928
2313.02,1001.23
2314.47,1013.25
2315.93,993.816
2317.38,1017.25
2318.83,1019.54
2320.28,1000.27
2321.73,1013.39
2323.19,1026.42
2324.64,1020.09
2326.09,1040.72
2327.54,1052.37
2328.99,1054.08
2330.44,1063.06
2331.9,1080.04
2333.35,1074.05
2334.8,1064.32
2336.25,1050.84
2337.7,1056.87
2339.16,1076.01
2340.61,1097.66
2342.06,1106.59
2343.51,1112.16
2344.96,1117.57
2346.41,1125.18
2347.87,1106.48
2349.32,1150.14
2350.77,1114.88
2352.22,1169
2353.67,1163.96
2355.12,1175.35
2356.58,1184.94
2358.03,1174.81
2359.48,1174.4
2360.93,1186.13
2362.38,1221.08
2363.84,1237.83
2365.29,1250
2366.74,1267.04
2368.19,1265.71
2369.64,1259.45
2371.09,1277.13
2372.55,1307.51
2374,1320.92
2375.45,1331.16
2376.9,1320.59
2378.35,1358.72
2379.8,1362.67
2381.26,1374.69
2382.71,1425.82
2384.16,1445.97
2385.61,1492.71
2387.06,1522.62
2388.52,1549.74
2389.97,1569.24
2391.42,1557.09
2392.87,1576.89
2394.32,1627.62
2395.77,1649.37
2397.23,1704.06
2398.68,1703.13
2400.13,1782.42
2401.58,1805.58
2403.03,1815.67
2404.49,1827.41
2405.94,1869.4
2407.39,1873.12
2408.84,1921.25
2410.29,1941.85
2411.74,1990.39
2413.2,2030.53
2414.65,2035.75
2416.1,2048.51
2417.55,2061.14
2419,2071.33
2420.46,2113.06
2421.91,2142.04
2423.36,2106.9
2424.81,2107.16
2426.26,2124.41
2427.71,2117.88
2429.17,2153.44
2430.62,2188.49
2432.07,2193.33
2433.52,2102.91
2434.97,2110.23
2436.42,2065.09
2437.88,2114.25
2439.33,2100
2440.78,2112.07
2442.23,2057.63
2443.68,2062.49
2445.14,2062.3
2446.59,2028.96
2448.04,2034.07
2449.49,2036.98
2450.94,2013.03
2452.39,1979.69
2453.85,1994.08
2455.3,1993.62
2456.75,1957.87
2458.2,1931.13
2459.65,1924.52
2461.1,1936.07
2462.56,1935.67
2464.01,1908.45
2465.46,1878.56
2466.91,1892
2468.36,1884.07
2469.82,1883.25
2471.27,1917.32
2472.72,1882.33
2474.17,1907.1
2475.62,1850.78
2477.07,1816.03
2478.53,1861.2
2479.98,1843.2
2481.43,1861.73
2482.88,1878.81
2484.33,1843.22
2485.79,1843.82
2487.24,1847.46
2488.69,1835.14
2490.14,1873.25
2491.59,1842.74
2493.04,1871.29
2494.5,1878.7
2495.95,1893.54
2497.4,1854.82
2498.85,1893.79
2500.3,1882.39
2501.76,1877.96
2503.21,1905.54
2504.66,1897.1
2506.11,1893.14
2507.56,1941.83
2509.01,1931.59
2510.47,1935.16
2511.92,1948.49
2513.37,1992.7
2514.82,1984.54
2516.27,2000.45
2517.72,2010.99
2519.18,2034.64
2520.63,2031.13
2522.08,2065.64
2523.53,2064.16
2524.98,2082.84
2526.44,2135.54
2527.89,2145.21
2529.34,2147.41
2530.79,2182.01
2532.24,2209.98
2533.69,2223.09
2535.15,2223.74
2536.6,2247.53
2538.05,2271.76
2539.5,2258.72
2540.95,2324.54
2542.41,2370.36
2543.86,2402.36
2545.31,2444.05
2546.76,2481.21
2548.21,2522.74
2549.66,2563.95
2551.12,2600.83
2552.57,2584.66
2554.02,2664.21
2555.47,2698.37
2556.92,2809.03
2558.37,2796.68
2559.83,2935.27
2561.28,2918.81
2562.73,2965.49
2564.18,3060.52
2565.63,3087.99
2567.09,3142.91
2568.54,3252.42
2569.99,3328.66
2571.44,3438.05
2572.89,3435.92
2574.34,3476.86
2575.8,3603.38
2577.25,3700.05
2578.7,3832.92
2580.15,3942.38
2581.6,4018.69
2583.06,4105.3
2584.51,4263.73
2585.96,4369.43
2587.41,4529.45
2588.86,4683.73
2590.31,4780.57
2591.77,4882.7
2593.22,5053.27
2594.67,5282.34
2596.12,5500.36
2597.57,5686.21
2599.02,5898.64
2600.48,6099.53
2601.93,6308.25
2603.38,6530.71
2604.83,6753.38
2606.28,6974.25
2607.74,7312.11
2609.19,7537.79
2610.64,7903.73
2612.09,8202.97
2613.54,8537.51
2614.99,8823.41
2616.45,9136.25
2617.9,9596.5
2619.35,9874.99
2620.8,10314
2622.25,10777.5
2623.71,11148.1
2625.16,11471.5
2626.61,12006.2
2628.06,12411.6
2629.51,12858.6
2630.96,13331.9
2632.42,13721.4
2633.87,14127.9
2635.32,14586
2636.77,14927
2638.22,15448.7
2639.68,15749.9
2641.13,16026.4
2642.58,16451.2
2644.03,16738
2645.48,17078.2
2646.93,17195.2
2648.39,17390.3
2649.84,17864.1
2651.29,17796.7
2652.74,17941
2654.19,18043.5
2655.64,18018.9
2657.1,18079.1
2658.55,18145.4
2660,17999.2
2661.45,17775.8
2662.9,17602
2664.36,17466.5
2665.81,17229.6
2667.26,16873.7
2668.71,16453.4
2670.16,16202.1
2671.61,15847.9
2673.07,15511.4
2674.52,14974.4
2675.97,14671.1
2677.42,14321.2
2678.87,13916.7
2680.32,13428.8
2681.78,12980.4
2683.23,12550.8
2684.68,12113.2
2686.13,11610.6
2687.58,11239.7
2689.04,10819.6
2690.49,10344.8
2691.94,10008.3
2693.39,9636.26
2694.84,9230.18
2696.29,8812.65
2697.75,8453.32
2699.2,8107.76
2700.65,7757.58
2702.1,7419.64
2703.55,7203.95
2705.01,6951.98
2706.46,6635.08
2707.91,6331.74
2709.36,6059.19
2710.81,5846.16
2712.26,5664.71
2713.72,5445.05
2715.17,5228.9
2716.62,5058.4
2718.07,4885.88
2719.52,4722
2720.98,4585.72
2722.43,4387.73
2723.88,4226.17
2725.33,4115.72
2726.78,4031.84
2728.23,3846.01
2729.69,3762.77
2731.14,3645.85
2732.59,3522.93
2734.04,3433.02
2735.49,3313.95
2736.94,3215.11
2738.4,3141.48
2739.85,3119.6
2741.3,3052.6
2742.75,2956.08
2744.2,2903.86
2745.66,2814.91
2747.11,2769.65
2748.56,2722.14
2750.01,2645
2751.46,2611.13
2752.91,2557.87
2754.37,2532.25
2755.82,2461.71
2757.27,2415.62
2758.72,2387.23
2760.17,2309.74
2761.63,2292.77
2763.08,2245.17
2764.53,2202.5
2765.98,2209.54
2767.43,2170.33
2768.88,2170.18
2770.34,2137.81
2771.79,2113.93
2773.24,2068.73
2774.69,2024.49
2776.14,1980.24
2777.59,2004.14
2779.05,1961.12
2780.5,1940.48
2781.95,1921.1
2783.4,1920.28
2784.85,1885.59
2786.31,1872.49
2787.76,1853.13
2789.21,1820.81
2790.66,1847.51
2792.11,1783.13
2793.56,1762.43
2795.02,1730.38
2796.47,1757.4
2797.92,1740.5
2799.37,1711.74
2800.82,1706.15
2802.28,1685.27
2803.73,1655.34
2805.18,1673.67
2806.63,1662.18
2808.08,1646.8
2809.53,1638.48
2810.99,1648.79
2812.44,1612.44
2813.89,1605.33
2815.34,1598.56
2816.79,1584.29
2818.24,1575.96
2819.7,1587.53
2821.15,1576.63
2822.6,1532.68
2824.05,1522.57
2825.5,1542.78
2826.96,1508.3
2828.41,1550.63
2829.86,1505.01
2831.31,1488.05
2832.76,1499.79
2834.21,1502.87
2835.67,1497.63
2837.12,1476.59
2838.57,1476.89
2840.02,1490.69
2841.47,1463.06
2842.93,1508.31
2844.38,1446.35
2845.83,1487.31
2847.28,1462.25
2848.73,1439.67
2850.18,1463.55
2851.64,1469.88
2853.09,1466.47
2854.54,1423.87
2855.99,1442.7
2857.44,1413.52
2858.9,1413.06
2860.35,1458.48
2861.8,1421.78
2863.25,1442
2864.7,1460.13
2866.15,1466.54
2867.61,1463.4
2869.06,1452.42
2870.51,1461.63
2871.96,1457.86
2873.41,1474.48
2874.86,1475.27
2876.32,1484.36
2877.77,1464.92
2879.22,1477.53
2880.67,1461.32
2882.12,1475.74
2883.58,1475.45
2885.03,1457.98
2886.48,1473.17
2887.93,1469.54
2889.38,1464.49
2890.83,1483.35
2892.29,1493.68
2893.74,1494.07
2895.19,1488.05
2896.64,1476.65
2898.09,1453.07
2899.54,1455.58
2901,1446.54
2902.45,1473.42
2903.9,1453.65
2905.35,1467.03
2906.8,1420.8
2908.26,1423.86
2909.71,1445.16
2911.16,1429.88
2912.61,1425.03
2914.06,1461.93
2915.51,1419.58
2916.97,1430.86
2918.42,1399.94
2919.87,1392.98
2921.32,1397.76
2922.77,1393.59
2924.23,1371.55
2925.68,1364.5
2927.13,1355.58
2928.58,1355.98
2930.03,1308.43
2931.48,1320.18
2932.94,1298.44
2934.39,1307.32
2935.84,1287.36
2937.29,1277.99
2938.74,1276.33
2940.2,1234.27
2941.65,1253.77
2943.1,1253.44
2944.55,1223.22
2946,1243.65
2947.45,1221.31
2948.91,1193.54
2950.36,1192.1
2951.81,1176.34
2953.26,1159.01
2954.71,1151.47
2956.16,1168.44
2957.62,1113.4
2959.07,1119.22
2960.52,1093.12
2961.97,1128.94
2963.42,1115.01
2964.88,1097.99
2966.33,1090.8
2967.78,1098.58
2969.23,1103.19
2970.68,1062.61
2972.13,1078.78
2973.59,1081.68
2975.04,1075.62
2976.49,1059.49
2977.94,1037.03
2979.39,1057.29
2980.84,1018.04
2982.3,1039.99
2983.75,1026.82
2985.2,1040.72
2986.65,1023.33
2988.1,1019.37
2989.56,988.634
2991.01,991.94
2992.46,1002.61
2993.91,970.223
2995.36,979.341
2996.81,984.513
2998.27,995.384
2999.72,998.655
3001.17,983.309
3002.62,973.742
3004.07,984.25
3005.53,981.919
3006.98,949.401
3008.43,939.119
3009.88,957.868
3011.33,928.649
3012.78,948.04
3014.24,959.435
3015.69,934.166
3017.14,953.942
3018.59,930.131
3020.04,991.857
3021.5,977.436
3022.95,979.982
3024.4,959.502
3025.85,970.736
3027.3,939.728
3028.75,922.357
3030.21,971.684
3031.66,940.263
3033.11,974.816
3034.56,957.638
3036.01,938.286
3037.46,930.009
3038.92,944.385
3040.37,932.832
3041.82,935.906
3043.27,924.032
3044.72,942.134
3046.18,933.721
3047.63,932.945
3049.08,937.303
3050.53,959.975
3051.98,951.041
3053.43,960.025
3054.89,961.901
3056.34,933.822
3057.79,969.24
3059.24,955.829
3060.69,948.189
3062.15,943.303
3063.6,974.563
3065.05,980.707
3066.5,959.253
3067.95,1011.86
3069.4,976.165
3070.86,973.774
3072.31,972.812
3073.76,999.569
3075.21,970.693
3076.66,1006.33
3078.11,1017.42
3079.57,1007.59
3081.02,1009.41
3082.47,1019.8
3083.92,1049
3085.37,1054.63
3086.83,1076.17
3088.28,1041.61
3089.73,1062.64
3091.18,1088.36
3092.63,1078.52
3094.08,1096.03
3095.54,1092.81
3096.99,1095.1
3098.44,1119.93
3099.89,1125.04
3101.34,1152.65
3102.8,1182.26
3104.25,1176.73
3105.7,1206.24
3107.15,1215
3108.6,1240
3110.05,1260.2
3111.51,1288.4
3112.96,1305.92
3114.41,1296.27
3115.86,1298.87
3117.31,1319.77
3118.76,1385.53
3120.22,1398.08
3121.67,1415.97
3123.12,1395.85
3124.57,1414.81
3126.02,1436.78
3127.48,1418.34
3128.93,1411.7
3130.38,1481.26
3131.83,1462.42
3133.28,1488.49
3134.73,1514.82
3136.19,1509.99
3137.64,1486.03
3139.09,1528.02
3140.54,1520.07
3141.99,1541.83
3143.45,1537.99
3144.9,1540.17
3146.35,1568.74
3147.8,1569.93
3149.25,1562.3
3150.7,1575.46
3152.16,1559.13
3153.61,1616.72
3155.06,1604.13
3156.51,1641.01
3157.96,1674.29
3159.42,1633.22
3160.87,1618.32
3162.32,1605.27
3163.77,1644.98
3165.22,1651.92
3166.67,1645.43
3168.13,1663.29
3169.58,1669.71
3171.03,1700.77
3172.48,1742.32
3173.93,1756.4
3175.38,1743.61
3176.84,1754.97
3178.29,1797.72
3179.74,1853.46
3181.19,1836.09
3182.64,1825.33
3184.1,1854.24
3185.55,1871.2
3187,1876.51
3188.45,1896.71
3189.9,1962.18
3191.35,1899.09
3192.81,1973.14
3194.26,1957.29
3195.71,1962.8
3197.16,1999.16
3198.61,1986.27
3200.06,1969.84
3201.52,2012.06
3202.97,1946.32
3204.42,1900.18
3205.87,1907.43
3207.32,1927.81
3208.78,1894.54
3210.23,1863.19
3211.68,1810.21
3213.13,1815.8
3214.58,1773.2
3216.03,1739.65
3217.49,1672.09
3218.94,1655.14
3220.39,1621.85
3221.84,1553.78
3223.29,1515.02
3224.75,1461.95
3226.2,1453.71
3227.65,1400.2
3229.1,1356.1
3230.55,1312.37
3232,1295.98
3233.46,1319.44
3234.91,1231.03
3236.36,1222.19
3237.81,1194.26
3239.26,1176.01
3240.72,1128.02
3242.17,1126.18
3243.62,1104.93
3245.07,1082.62
3246.52,1029.63
3247.97,986.689
3249.43,992.918
3250.88,982.071
3252.33,970.796
3253.78,959.991
3255.23,948.302
3256.68,970.329
3258.14,946.669
3259.59,921.949
3261.04,924.169
3262.49,908.305
3263.94,889.344
3265.4,869.627
3266.85,922.35
3268.3,891.161
3269.75,879.701
3271.2,882.833
3272.65,865.761
3274.11,878.203
3275.56,852.402
3277.01,857.16
3278.46,844.221
3279.91,842.175
3281.37,852.922
3282.82,837.787
3284.27,817.072
3285.72,845.457
3287.17,844.719
3288.62,812.609
3290.08,826.014
3291.53,834.691
3292.98,826.179
3294.43,818.554
3295.88,827.542
3297.33,823.842
3298.79,799.314
3300.24,801.649
3301.69,791.439
3303.14,804.24
3304.59,821.998
3306.05,825.524
3307.5,816.976
3308.95,812.28
3310.4,795.598
3311.85,796.666
3313.3,818.483
3314.76,788.952
3316.21,818.375
3317.66,796.953
3319.11,790.839
3320.56,812.524
3322.02,822.77
3323.47,780.658
3324.92,809.478
3326.37,803.44
3327.82,791.428
3329.27,793.451
3330.73,776.826
3332.18,785.209
3333.63,767.709
3335.08,784.519
3336.53,790.386
3337.98,795.717
3339.44,830.097
3340.89,807.177
3342.34,813.647
3343.79,832.469
3345.24,795.41
3346.7,791.801
3348.15,802.714
3349.6,762.69
3351.05,790.986
3352.5,790.988
3353.95,772.535
3355.41,811.641
3356.86,831.48
3358.31,804.792
3359.76,815.099
3361.21,787.8
3362.67,790.744
3364.12,792.149
3365.57,786.544
3367.02,785.459
3368.47,786.344
3369.92,805.961
3371.38,789.2
3372.83,794.54
3374.28,786.453
3375.73,762.444
3377.18,807.586
3378.63,797.11
3380.09,798.056
3381.54,768.051
3382.99,794.954
3384.44,793.855
3385.89,801.158
3387.35,798.615
3388.8,796.785
3390.25,806.137
3391.7,794.775
3393.15,802.286
3394.6,785.317
3396.06,793.249
3397.51,797.697
3398.96,807.034
3400.41,784.392
3401.86,798.519
3403.32,798.958
3404.77,786.852
3406.22,815.559
3407.67,823.849
3409.12,787.381
3410.57,787.371
3412.03,786.996
3413.48,778.231
3414.93,787.458
3416.38,788.216
3417.83,789.226
3419.28,782.482
3420.74,792.759
3422.19,792.177
3423.64,802.819
3425.09,783.621
3426.54,785.604
3428,772.617
3429.45,797.974
3430.9,818.476
3432.35,805.295
3433.8,790.177
3435.25,783.745
3436.71,785.282
3438.16,804.267
3439.61,790.81
3441.06,778.638
3442.51,801.325
3443.97,774.926
3445.42,768.526
3446.87,789.461
3448.32,779.173
3449.77,805.787
3451.22,793.902
3452.68,801.991
3454.13,791.238
3455.58,795.391
3457.03,815.006
3458.48,783.762
3459.94,783.378
3461.39,817.466
3462.84,806.378
3464.29,786.641
3465.74,781.812
3467.19,801.121
3468.65,775.777
3470.1,800.461
3471.55,803.364
3473,794.35
3474.45,800.126
3475.9,817.447
3477.36,807.98
3478.81,796.082
3480.26,801.772
3481.71,803.984
3483.16,826.037
3484.62,772.764
3486.07,789.437
3487.52,821.422
3488.97,816.717
3490.42,792.673
3491.87,803.706
3493.33,805.669
3494.78,813.091
3496.23,807.484
3497.68,820.631
3499.13,801.854
3500.58,803.959
3502.04,785.172
3503.49,790.026
3504.94,809.354
3506.39,818.978
3507.84,794.014
3509.3,790.324
3510.75,800.395
3512.2,804.935
3513.65,802.668
3515.1,821.836
3516.55,824.635
3518.01,831.786
3519.46,815.649
3520.91,856.204
3522.36,807.504
3523.81,819.906
3525.27,818.24
3526.72,803.839
3528.17,806.397
3529.62,812.705
3531.07,789.703
3532.52,804.24
3533.98,795.561
3535.43,805.855
3536.88,811.019
3538.33,817.23
3539.78,817.951
3541.24,794.101
3542.69,837.539
3544.14,821.669
3545.59,822.901
3547.04,831.718
3548.49,797.906
3549.95,826.544
3551.4,817.052
3552.85,804.857
3554.3,824.862
3555.75,807.531
3557.2,782.563
3558.66,804.564
3560.11,799.728
3561.56,806.418
3563.01,821.324
3564.46,800.963
3565.92,830.927
3567.37,824.839
3568.82,802.187
3570.27,856.273
3571.72,834.721
3573.17,788.294
3574.63,796.9
3576.08,808.378
3577.53,800.764
3578.98,836.92
3580.43,819.052
3581.89,808.783
3583.34,805.205
3584.79,821.22
3586.24,818.445
3587.69,805.543
3589.14,832.336
3590.6,802.765
3592.05,790.752
3593.5,809.358
3594.95,808.208
3596.4,819.671
3597.85,826.003
3599.31,811.409
3600.76,827.531
3602.21,805.844
3603.66,814.762
3605.11,833.869
3606.57,780.252
3608.02,777.463
3609.47,812.388
3610.92,832.704
3612.37,843.269
3613.82,807.037
3615.28,822.954
3616.73,825.221
3618.18,799.355
3619.63,823.836
3621.08,812.249
3622.54,813.977
3623.99,835.62
3625.44,805.005
3626.89,862.234
3628.34,791.713
3629.79,809.23
3631.25,803.225
3632.7,828.899
3634.15,841.816
3635.6,847.71
3637.05,829.937
3638.5,825.247
3639.96,863.586
3641.41,849.402
3642.86,826.84
3644.31,818.059
3645.76,824.578
3647.22,808.778
3648.67,856.602
3650.12,844.181
3651.57,842.955
3653.02,824.27
3654.47,823.653
3655.93,830.37
3657.38,822.928
3658.83,815.433
3660.28,852.991
3661.73,863.578
3663.19,840.48
3664.64,857.943
3666.09,859.329
3667.54,837.737
3668.99,867.416
3670.44,855.266
3671.9,867.496
3673.35,869.294
3674.8,867.232
3676.25,862.896
3677.7,848.123
3679.16,861.422
3680.61,848.68
3682.06,868.164
3683.51,875.348
3684.96,846.399
3686.41,857.591
3687.87,849.261
3689.32,840.826
3690.77,861.837
3692.22,860.225
3693.67,876.729
3695.12,857.431
3696.58,851.992
3698.03,866.493
3699.48,857.523
3700.93,871.845
3702.38,878.41
3703.84,871.223
3705.29,870.721
3706.74,871.665
3708.19,862.907
3709.64,834.123
3711.09,847.218
3712.55,857.75
3714,875.758
3715.45,858.762
3716.9,867.478
3718.35,868.04
3719.8,876.771
3721.26,845.029
3722.71,864.04
3724.16,877.092
3725.61,892.082
3727.06,882.323
3728.52,879.53
3729.97,886.649
3731.42,884.397
3732.87,875.107
3734.32,840.831
3735.77,900.135
3737.23,890.497
3738.68,900.357
3740.13,891.278
3741.58,862.887
3743.03,865.271
3744.49,876.119
3745.94,897.433
3747.39,883.871
3748.84,882.188
3750.29,923.104
3751.74,895.073
3753.2,893.038
3754.65,901.196
3756.1,883.753
3757.55,900.693
3759,918.049
3760.46,850.756
3761.91,893.943
3763.36,885.544
3764.81,903.259
3766.26,906.121
3767.71,914.851
3769.17,925.567
3770.62,896.478
3772.07,922.679
3773.52,880.358
3774.97,909.789
3776.42,898.812
3777.88,873.503
3779.33,891.618
3780.78,933.435
3782.23,919.241
3783.68,923.407
3785.14,890.497
3786.59,919.555
3788.04,912.583
3789.49,907.086
3790.94,934.385
3792.39,934.419
3793.85,935.528
3795.3,930.55
3796.75,905.741
3798.2,920.645
3799.65,921.79
3801.1,931.598
3802.56,936.174
3804.01,910.43
3805.46,932.84
3806.91,891.009
3808.36,924.918
3809.82,955.216
3811.27,971.56
3812.72,955.917
3814.17,948.654
3815.62,935.214
3817.07,929.51
3818.53,944.089
3819.98,936.258
3821.43,936.721
3822.88,942.255
3824.33,936.842
3825.79,957.477
3827.24,956.885
3828.69,942.117
3830.14,943.668
3831.59,936.358
3833.04,970.868
3834.5,961.039
3835.95,926.824
3837.4,968.308
3838.85,941.202
3840.3,925.691
3841.76,968.05
3843.21,962.6
3844.66,952.322
3846.11,936.803
3847.56,935.152
3849.01,947.939
3850.47,969.142
3851.92,964.081
3853.37,985.2
3854.82,961.415
3856.27,956.664
3857.72,969.424
3859.18,978.187
3860.63,987.858
3862.08,956.176
3863.53,964.213
3864.98,957.34
3866.44,987.343
3867.89,987.403
3869.34,993.46
3870.79,980.181
3872.24,989.884
3873.69,993.244
3875.15,992.053
3876.6,1010.18
3878.05,984.177
3879.5,974.334
3880.95,1008.09
3882.41,995.588
3883.86,1009.48
3885.31,1026.61
3886.76,1053.03
3888.21,1002.87
3889.66,1018.35
3891.12,1019.73
3892.57,1034.64
3894.02,1039.33
3895.47,1024.4
3896.92,1005.29
3898.37,1015.45
3899.83,1023.38
3901.28,1056.09
3902.73,1046.3
3904.18,1068.7
3905.63,1084.43
3907.09,1050.15
3908.54,1042.71
3909.99,1050.67
3911.44,1079.05
3912.89,1046.28
3914.34,1049.86
3915.8,1043.48
3917.25,1037.49
3918.7,1070.47
3920.15,1082.55
3921.6,1088.17
3923.06,1075.82
3924.51,1085.4
3925.96,1066.61
3927.41,1045.4
3928.86,1079.91
3930.31,1083.04
3931.77,1089.87
3933.22,1082.76
3934.67,1087.6
3936.12,1103.73
3937.57,1083.56
3939.02,1114.77
3940.48,1104.48
3941.93,1071.79
3943.38,1091.91
3944.83,1122.76
3946.28,1119.12
3947.74,1147.14
3949.19,1114.76
3950.64,1149.27
3952.09,1140.17
3953.54,1165.23
3954.99,1128.53
3956.45,1107.83
3957.9,1129.92
3959.35,1187.05
3960.8,1180.14
3962.25,1167.04
3963.71,1195.23
3965.16,1159.86
3966.61,1193.37
3968.06,1174.73
3969.51,1179.51
3970.96,1189.71
3972.42,1198.18
3973.87,1174.58
3975.32,1200.71
3976.77,1192.65
3978.22,1198.17
3979.68,1221.6
3981.13,1219.26
3982.58,1206.61
3984.03,1225.16
3985.48,1205.03
3986.93,1222.39
3988.39,1203.97
3989.84,1189.47
3991.29,1266.43
3992.74,1245.16
3994.19,1197.98
3995.64,1233.4
3997.1,1248.89
3998.55,1252.63
4000,1231.27
