Item,Smu1_Time(1)(1),Smu1_V(1)(1),Smu1_I(1)(1),
1,0,0,0.000169754028320313,
2,0.1017771,9,1.09726715087891,
3,0.20320914,0,0.00012969970703125,
4,0.30492368,-9,-1.0397777557373,
5,0.40633552,0,7.2479248046875E-05,
6,0.50806478,9,1.03791809082031,
7,0.60950074,0,9.5367431640625E-05,
8,0.71121908,-9,-1.03670501708984,
9,0.81264944,0,7.43865966796875E-05,
10,0.91438762,9,1.03589630126953,
11,1.015786,0,8.96453857421875E-05,
12,1.11752868,-9,-1.0353832244873,
13,1.21895516,0,6.67572021484375E-05,
14,1.3206675,9,1.0349292755127,
15,1.4221014,0,8.0108642578125E-05,
16,1.52381482,-9,-1.0346794128418,
17,1.6252456,0,6.4849853515625E-05,
18,1.72698326,9,1.03438949584961,
19,1.82839676,0,7.62939453125E-05,
20,1.93010478,-9,-1.03427314758301,
21,2.0315328,0,6.29425048828125E-05,
22,2.13326648,9,1.0340518951416,
23,2.23473274,0,6.866455078125E-05,
24,2.33645732,-9,-1.03411102294922,
25,2.4378636,0,6.4849853515625E-05,
26,2.53958852,9,1.03396224975586,
27,2.64100862,0,6.866455078125E-05,
28,2.7427253,-9,-1.03399658203125,
29,2.84413884,0,6.103515625E-05,
30,2.94586258,9,1.0339469909668,
31,3.04728948,0,7.2479248046875E-05,
32,3.14903096,-9,-1.03398704528809,
33,3.25043014,0,6.29425048828125E-05,
34,3.35215268,9,1.03389358520508,
35,3.45359854,0,7.05718994140625E-05,
36,3.5553305,-9,-1.03393173217773,
37,3.65674378,0,6.29425048828125E-05,
38,3.75846254,9,1.033935546875,
39,3.8598824,0,6.4849853515625E-05,
40,3.96160586,-9,-1.03399658203125,
41,4.06301534,0,5.91278076171875E-05,
42,4.16474068,9,1.0339412689209,
43,4.26617458,0,6.67572021484375E-05,
44,4.36790696,-9,-1.03403472900391,
45,4.4693126,0,5.91278076171875E-05,
46,4.571033,9,1.03396034240723,
47,4.6724476,0,6.29425048828125E-05,
48,4.77415478,-9,-1.03406524658203,
49,4.87558124,0,5.91278076171875E-05,
50,4.97730284,9,1.03400421142578,
51,5.0787189,0,6.29425048828125E-05,
52,5.18045546,-9,-1.03400802612305,
53,5.28186478,0,5.340576171875E-05,
54,5.38361208,9,1.03399658203125,
55,5.4850277,0,6.29425048828125E-05,
56,5.5867432,-9,-1.03411865234375,
57,5.68815912,0,5.91278076171875E-05,
58,5.78988386,9,1.03406143188477,
59,5.89130808,0,6.866455078125E-05,
60,5.99304266,-9,-1.03412437438965,
61,6.09445424,0,5.91278076171875E-05,
62,6.196193,9,1.03398704528809,
63,6.29761684,0,6.103515625E-05,
64,6.3993311,-9,-1.03417587280273,
65,6.50075112,0,6.103515625E-05,
66,6.60247404,9,1.03410720825195,
67,6.70386544,0,6.103515625E-05,
68,6.80559462,-9,-1.03421401977539,
69,6.90700582,0,5.7220458984375E-05,
70,7.0087196,9,1.03416061401367,
71,7.11013908,0,6.4849853515625E-05,
72,7.2118514,-9,-1.03426361083984,
73,7.31327204,0,5.7220458984375E-05,
74,7.41500908,9,1.0341911315918,
75,7.5164153,0,6.29425048828125E-05,
76,7.6181518,-9,-1.03429985046387,
77,7.719568,0,5.91278076171875E-05,
78,7.82128678,9,1.03421592712402,
79,7.9227314,0,6.4849853515625E-05,
80,8.0244639,-9,-1.0343189239502,
81,8.12587884,0,6.103515625E-05,
82,8.22761616,9,1.03418922424316,
83,8.3290345,0,6.4849853515625E-05,
84,8.43076656,-9,-1.03434562683105,
85,8.53218718,0,5.91278076171875E-05,
86,8.6339136,9,1.03424263000488,
87,8.73535994,0,6.29425048828125E-05,
88,8.83710024,-9,-1.03439712524414,
89,8.9385119,0,5.91278076171875E-05,
90,9.04024234,9,1.03427696228027,
91,9.14167936,0,6.4849853515625E-05,
92,9.24339416,-9,-1.0344123840332,
93,9.34481754,0,5.91278076171875E-05,
94,9.44654764,9,1.03425025939941,
95,9.54794266,0,6.4849853515625E-05,
96,9.64968832,-9,-1.03439521789551,
97,9.75108968,0,6.29425048828125E-05,
98,9.85282744,9,1.03422546386719,
99,9.95424772,0,5.7220458984375E-05,
100,10.0559687,-9,-1.03442192077637,
101,10.15739234,0,5.340576171875E-05,
102,10.2591243,9,1.03430366516113,
103,10.36053376,0,5.91278076171875E-05,
104,10.46227286,-9,-1.034423828125,
105,10.56368564,0,5.53131103515625E-05,
106,10.66540688,9,1.03428077697754,
107,10.76683178,0,5.91278076171875E-05,
108,10.86857174,-9,-1.03440475463867,
109,10.96997808,0,5.53131103515625E-05,
110,11.07170372,9,1.03417015075684,
111,11.173112,0,6.103515625E-05,
112,11.27483656,-9,-1.03441047668457,
113,11.37625448,0,5.53131103515625E-05,
114,11.47797808,9,1.03421592712402,
115,11.5793975,0,5.53131103515625E-05,
116,11.68110912,-9,-1.03429985046387,
117,11.782521,0,5.14984130859375E-05,
118,11.88425328,9,1.03407096862793,
119,11.98566036,0,5.7220458984375E-05,
120,12.08739236,-9,-1.03431510925293,
121,12.18881406,0,5.53131103515625E-05,
122,12.29053556,9,1.03413009643555,
123,12.39194982,0,5.7220458984375E-05,
124,12.49370892,-9,-1.03425407409668,
125,12.59511648,0,5.53131103515625E-05,
126,12.6968506,9,1.03403854370117,
127,12.79825528,0,5.7220458984375E-05,
128,12.89996928,-9,-1.03433036804199,
129,13.00139504,0,5.53131103515625E-05,
130,13.10314066,9,1.0340576171875,
131,13.20453548,0,5.7220458984375E-05,
132,13.30627248,-9,-1.03429985046387,
133,13.40769578,0,5.53131103515625E-05,
134,13.50946772,9,1.03384780883789,
135,13.6108834,0,5.7220458984375E-05,
136,13.71261202,-9,-1.0343189239502,
137,13.81402638,0,5.7220458984375E-05,
138,13.9157589,9,1.0340404510498,
139,14.01716644,0,5.91278076171875E-05,
140,14.11889252,-9,-1.03429222106934,
141,14.22028748,0,6.103515625E-05,
142,14.32200716,9,1.03406715393066,
143,14.42343688,0,6.103515625E-05,
144,14.52514348,-9,-1.03432273864746,
145,14.62654836,0,5.91278076171875E-05,
146,14.72829688,9,1.03406524658203,
147,14.82969222,0,6.29425048828125E-05,
148,14.93143938,-9,-1.03424835205078,
149,15.032869,0,5.53131103515625E-05,
150,15.13460376,9,1.03408813476563,
151,15.23602984,0,6.103515625E-05,
152,15.33775028,-9,-1.03430557250977,
153,15.43915634,0,5.7220458984375E-05,
154,15.54089442,9,1.03400611877441,
155,15.64230416,0,6.29425048828125E-05,
156,15.74402348,-9,-1.03428077697754,
157,15.84543936,0,5.91278076171875E-05,
158,15.94715686,9,1.03401947021484,
159,16.04856698,0,6.103515625E-05,
160,16.15029466,-9,-1.03426933288574,
161,16.25169862,0,5.7220458984375E-05,
162,16.3534237,9,1.03396034240723,
163,16.45483048,0,6.29425048828125E-05,
164,16.55654134,-9,-1.03426742553711,
165,16.65796866,0,5.53131103515625E-05,
166,16.75968876,9,1.03399848937988,
167,16.86110564,0,5.7220458984375E-05,
168,16.9628496,-9,-1.0341854095459,
169,17.06425684,0,5.53131103515625E-05,
170,17.16600116,9,1.03396987915039,
171,17.26741194,0,6.29425048828125E-05,
172,17.36913694,-9,-1.03425216674805,
173,17.47055298,0,5.91278076171875E-05,
174,17.57227492,9,1.03397560119629,
175,17.67368136,0,5.91278076171875E-05,
176,17.77541414,-9,-1.03423309326172,
177,17.87681958,0,6.103515625E-05,
178,17.97851986,9,1.03396034240723,
179,18.07993156,0,6.29425048828125E-05,
180,18.18165228,-9,-1.03421592712402,
181,18.2830542,0,5.91278076171875E-05,
182,18.3847949,9,1.0339412689209,
183,18.4862,0,6.29425048828125E-05,
184,18.58794918,-9,-1.03413009643555,
185,18.6893589,0,5.91278076171875E-05,
186,18.79108114,9,1.03394508361816,
187,18.8924992,0,6.29425048828125E-05,
188,18.9942159,-9,-1.03420257568359,
189,19.09562852,0,5.7220458984375E-05,
190,19.1973604,9,1.03390502929688,
191,19.29877066,0,6.103515625E-05,
192,19.40049216,-9,-1.03420257568359,
193,19.50191252,0,6.103515625E-05,
194,19.60364808,9,1.03388404846191,
195,19.7050707,0,5.91278076171875E-05,
196,19.80680292,-9,-1.03416061401367,
197,19.90821768,0,6.103515625E-05,
198,20.00993852,9,1.03384590148926,
199,20.11135072,0,6.103515625E-05,
200,20.21307714,-9,-1.03410339355469,
201,20.31449556,0,5.91278076171875E-05,
202,20.4162117,9,1.03389930725098,
203,20.51761842,0,5.7220458984375E-05,
204,20.61934604,-9,-1.03412246704102,
205,20.72075342,0,5.7220458984375E-05,
206,20.82248156,9,1.03381156921387,
207,20.92390458,0,5.7220458984375E-05,
208,21.02561684,-9,-1.03411483764648,
209,21.12704356,0,5.7220458984375E-05,
210,21.22875668,9,1.03384017944336,
211,21.33016532,0,5.53131103515625E-05,
212,21.43190258,-9,-1.03407669067383,
213,21.53331374,0,5.53131103515625E-05,
214,21.63504934,9,1.03371238708496,
215,21.73647004,0,5.53131103515625E-05,
216,21.83818826,-9,-1.03406524658203,
217,21.93960086,0,5.53131103515625E-05,
218,22.04134252,9,1.03373718261719,
219,22.14275242,0,6.29425048828125E-05,
220,22.24449378,-9,-1.03403282165527,
221,22.34590606,0,5.53131103515625E-05,
222,22.44762236,9,1.03366661071777,
223,22.54904202,0,5.53131103515625E-05,
224,22.65076452,-9,-1.03403091430664,
225,22.75217096,0,5.340576171875E-05,
226,22.85391084,9,1.03364562988281,
227,22.9553262,0,5.7220458984375E-05,
228,23.05703308,-9,-1.03399276733398,
229,23.15845626,0,5.340576171875E-05,
230,23.2601952,9,1.03349304199219,
231,23.36160832,0,5.91278076171875E-05,
232,23.46334136,-9,-1.03394508361816,
233,23.56475324,0,5.53131103515625E-05,
234,23.6664793,9,1.0335693359375,
235,23.76789556,0,5.7220458984375E-05,
236,23.86962108,-9,-1.0339412689209,
237,23.9710422,0,5.340576171875E-05,
238,24.07276362,9,1.03351402282715,
239,24.1741761,0,5.340576171875E-05,
240,24.27590348,-9,-1.03391456604004,
241,24.37731596,0,5.14984130859375E-05,
242,24.47904644,9,1.03360939025879,
243,24.5804627,0,5.53131103515625E-05,
244,24.68218768,-9,-1.03385543823242,
245,24.783598,0,5.340576171875E-05,
246,24.88533334,9,1.03361701965332,
247,24.98674988,0,5.14984130859375E-05,
248,25.08849316,-9,-1.03384017944336,
249,25.18991,0,5.53131103515625E-05,
250,25.29164006,9,1.03349494934082,
251,25.39306764,0,5.7220458984375E-05,
252,25.49478224,-9,-1.03382110595703,
253,25.59620394,0,5.14984130859375E-05,
254,25.6979368,9,1.03345108032227,
255,25.79934442,0,5.14984130859375E-05,
256,25.90108158,-9,-1.03378105163574,
257,26.0025094,0,4.76837158203125E-05,
258,26.10423944,9,1.03330612182617,
259,26.20566138,0,5.340576171875E-05,
260,26.3073993,-9,-1.03375244140625,
261,26.40880672,0,5.14984130859375E-05,
262,26.51053436,9,1.03336524963379,
263,26.61194488,0,5.340576171875E-05,
264,26.71367492,-9,-1.03372192382813,
265,26.81509882,0,5.14984130859375E-05,
266,26.91682772,9,1.03338813781738,
267,27.0182486,0,5.53131103515625E-05,
268,27.11999182,-9,-1.03369140625,
269,27.22139928,0,5.340576171875E-05,
270,27.3231206,9,1.03328132629395,
271,27.42455344,0,5.340576171875E-05,
272,27.5262869,-9,-1.03365898132324,
273,27.62770262,0,5.340576171875E-05,
274,27.72943424,9,1.03332901000977,
275,27.83084376,0,5.14984130859375E-05,
276,27.93256202,-9,-1.03363609313965,
277,28.033986,0,5.340576171875E-05,
278,28.13571314,9,1.03328132629395,
279,28.2371511,0,5.340576171875E-05,
280,28.33888152,-9,-1.03362083435059,
281,28.44030736,0,4.57763671875E-05,
282,28.54203368,9,1.03315925598145,
283,28.64346082,0,4.76837158203125E-05,
284,28.74518636,-9,-1.03360366821289,
285,28.84661668,0,4.76837158203125E-05,
286,28.94834432,9,1.03320503234863,
287,29.04974986,0,5.14984130859375E-05,
288,29.15148958,-9,-1.0335693359375,
289,29.25290304,0,5.14984130859375E-05,
290,29.35463038,9,1.03313636779785,
291,29.45605216,0,5.14984130859375E-05,
292,29.55778756,-9,-1.03354644775391,
293,29.6592117,0,4.76837158203125E-05,
294,29.76094426,9,1.03306579589844,
295,29.86236406,0,5.7220458984375E-05,
296,29.96409672,-9,-1.03347206115723,
297,30.06551714,0,5.14984130859375E-05,
298,30.16723452,9,1.0330696105957,
299,30.2686634,0,5.53131103515625E-05,
300,30.37039272,-9,-1.03343963623047,
301,30.47182192,0,4.9591064453125E-05,
302,30.57356192,9,1.03305435180664,
303,30.67497844,0,5.14984130859375E-05,
304,30.77671968,-9,-1.033447265625,
305,30.8781285,0,4.9591064453125E-05,
306,30.97985136,9,1.03313064575195,
307,31.08126948,0,5.53131103515625E-05,
308,31.18300786,-9,-1.03342628479004,
309,31.28443488,0,4.57763671875E-05,
310,31.3861699,9,1.03296852111816,
311,31.48758076,0,4.76837158203125E-05,
312,31.58931144,-9,-1.03338432312012,
313,31.69073622,0,4.9591064453125E-05,
314,31.79245878,9,1.03293991088867,
315,31.89388564,0,5.14984130859375E-05,
316,31.99562688,-9,-1.03336715698242,
317,32.09704686,0,4.57763671875E-05,
318,32.19878816,9,1.03287124633789,
319,32.30021562,0,4.57763671875E-05,
320,32.40192144,-9,-1.0333423614502,
321,32.50335628,0,4.76837158203125E-05,
322,32.60507892,9,1.03291320800781,
323,32.7064912,0,4.76837158203125E-05,
324,32.80822378,-9,-1.03329849243164,
325,32.90963768,0,5.14984130859375E-05,
326,33.01134376,9,1.0328311920166,
327,33.11277626,0,4.9591064453125E-05,
328,33.21449452,-9,-1.03322410583496,
329,33.31590152,0,4.38690185546875E-05,
330,33.4176475,9,1.03282165527344,
331,33.51906262,0,4.76837158203125E-05,
332,33.62079026,-9,-1.03328514099121,
333,33.7222111,0,4.76837158203125E-05,
334,33.82394432,9,1.03278350830078,
335,33.92536698,0,4.9591064453125E-05,
336,34.02709714,-9,-1.0332202911377,
337,34.12851682,0,4.76837158203125E-05,
338,34.2302524,9,1.03273010253906,
339,34.3316695,0,4.9591064453125E-05,
340,34.43339118,-9,-1.03313827514648,
341,34.5348239,0,5.340576171875E-05,
342,34.63655106,9,1.03265190124512,
343,34.7379608,0,4.9591064453125E-05,
344,34.83969584,-9,-1.03314399719238,
345,34.94110318,0,4.38690185546875E-05,
346,35.04283064,9,1.03277778625488,
347,35.14425428,0,5.14984130859375E-05,
348,35.24596418,-9,-1.03311538696289,
349,35.3473873,0,5.14984130859375E-05,
350,35.44912064,9,1.03274726867676,
351,35.55053074,0,5.14984130859375E-05,
352,35.65227258,-9,-1.03310394287109,
353,35.75369576,0,4.9591064453125E-05,
354,35.85541386,9,1.03265571594238,
355,35.95684362,0,5.340576171875E-05,
356,36.05856502,-9,-1.03309631347656,
357,36.1599819,0,4.9591064453125E-05,
358,36.26172442,9,1.03256034851074,
359,36.36314026,0,4.76837158203125E-05,
360,36.4648827,-9,-1.03305244445801,
361,36.56630426,0,4.9591064453125E-05,
362,36.66802858,9,1.03261947631836,
363,36.76945566,0,4.76837158203125E-05,
364,36.87118402,-9,-1.03305053710938,
365,36.97259554,0,4.9591064453125E-05,
366,37.07432302,9,1.03254508972168,
367,37.17574278,0,5.340576171875E-05,
368,37.27747454,-9,-1.03298377990723,
369,37.37891048,0,4.76837158203125E-05,
370,37.4806345,9,1.03246116638184,
371,37.58204892,0,4.9591064453125E-05,
372,37.68377504,-9,-1.03292465209961,
373,37.78519012,0,4.76837158203125E-05,
374,37.8869236,9,1.03245735168457,
375,37.98834844,0,5.14984130859375E-05,
376,38.09007874,-9,-1.03292083740234,
377,38.19149912,0,5.14984130859375E-05,
378,38.29323766,9,1.0323543548584,
379,38.39465482,0,5.14984130859375E-05,
380,38.49639154,-9,-1.03288078308105,
381,38.597813,0,4.76837158203125E-05,
382,38.69952942,9,1.03242874145508,
383,38.80096236,0,5.14984130859375E-05,
384,38.90269326,-9,-1.03286170959473,
385,39.00410372,0,4.76837158203125E-05,
386,39.10584682,9,1.03234100341797,
387,39.20725976,0,5.14984130859375E-05,
388,39.30898928,-9,-1.0327320098877,
389,39.41041516,0,4.9591064453125E-05,
390,39.51214402,9,1.03237152099609,
391,39.61358662,0,5.340576171875E-05,
392,39.7153315,-9,-1.03280067443848,
393,39.8167423,0,4.76837158203125E-05,
394,39.91846842,9,1.03227424621582,
395,40.01989228,0,4.9591064453125E-05,
396,40.1216172,-9,-1.03276252746582,
397,40.22305214,0,4.9591064453125E-05,
398,40.32477976,9,1.03226089477539,
399,40.42619736,0,5.14984130859375E-05,
400,40.52792916,-9,-1.0327262878418,
401,40.62933892,0,4.76837158203125E-05,
402,40.73105564,9,1.0322437286377,
403,40.83247502,0,4.76837158203125E-05,
404,40.93420154,-9,-1.03269004821777,
405,41.03562414,0,4.9591064453125E-05,
406,41.13736498,9,1.0322093963623,
407,41.23876874,0,4.9591064453125E-05,
408,41.3404983,-9,-1.03264427185059,
409,41.44192372,0,4.9591064453125E-05,
410,41.5436418,9,1.03209114074707,
411,41.64507614,0,5.14984130859375E-05,
412,41.74678968,-9,-1.03263664245605,
413,41.84819874,0,4.76837158203125E-05,
414,41.94992884,9,1.03207015991211,
415,42.05134522,0,5.14984130859375E-05,
416,42.15307936,-9,-1.0325984954834,
417,42.2545076,0,4.76837158203125E-05,
418,42.35623116,9,1.03220367431641,
419,42.45765532,0,4.76837158203125E-05,
420,42.55939284,-9,-1.03255844116211,
421,42.66081044,0,4.76837158203125E-05,
422,42.76254252,9,1.03211212158203,
423,42.86396518,0,5.340576171875E-05,
424,42.96568978,-9,-1.03252601623535,
425,43.0671229,0,5.14984130859375E-05,
426,43.16884348,9,1.0319938659668,
427,43.2702581,0,5.14984130859375E-05,
428,43.37200878,-9,-1.03244972229004,
429,43.47343004,0,4.57763671875E-05,
430,43.57515988,9,1.03194999694824,
431,43.6765781,0,5.53131103515625E-05,
432,43.77829586,-9,-1.0324764251709,
433,43.87971906,0,4.9591064453125E-05,
434,43.98143402,9,1.0318603515625,
435,44.0828469,0,5.14984130859375E-05,
436,44.18459466,-9,-1.03239440917969,
437,44.28601562,0,4.57763671875E-05,
438,44.38774576,9,1.03192138671875,
439,44.48918184,0,4.76837158203125E-05,
440,44.59089504,-9,-1.03240013122559,
441,44.69229912,0,4.9591064453125E-05,
442,44.79405508,9,1.03183555603027,
443,44.89547054,0,4.9591064453125E-05,
444,44.99722436,-9,-1.03227424621582,
445,45.09864918,0,4.57763671875E-05,
446,45.20037658,9,1.03195381164551,
447,45.30179882,0,5.340576171875E-05,
448,45.40352824,-9,-1.03231620788574,
449,45.50495026,0,4.57763671875E-05,
450,45.60668378,9,1.03184509277344,
451,45.70810416,0,4.76837158203125E-05,
452,45.80981458,-9,-1.03231048583984,
453,45.91125058,0,4.57763671875E-05,
454,46.01297146,9,1.0318775177002,
455,46.11440598,0,4.57763671875E-05,
456,46.21615874,-9,-1.03227615356445,
457,46.31757518,0,4.76837158203125E-05,
458,46.41930674,9,1.03179168701172,
459,46.52072374,0,4.38690185546875E-05,
460,46.622453,-9,-1.03227424621582,
461,46.72388752,0,4.1961669921875E-05,
462,46.82559708,9,1.03180122375488,
463,46.9270111,0,4.76837158203125E-05,
464,47.0287555,-9,-1.03221321105957,
465,47.1301876,0,4.38690185546875E-05,
466,47.23190464,9,1.03178024291992,
467,47.33333494,0,4.57763671875E-05,
468,47.43507186,-9,-1.03214645385742,
469,47.53649438,0,4.76837158203125E-05,
470,47.63822486,9,1.0317554473877,
471,47.7396418,0,4.9591064453125E-05,
472,47.84138432,-9,-1.03212738037109,
473,47.942798,0,4.38690185546875E-05,
474,48.04452206,9,1.03153419494629,
475,48.14594936,0,4.76837158203125E-05,
476,48.24768688,-9,-1.03212547302246,
477,48.34911202,0,4.38690185546875E-05,
478,48.45084064,9,1.03155517578125,
479,48.55226484,0,4.38690185546875E-05,
480,48.65399996,-9,-1.03205871582031,
481,48.75543,0,4.57763671875E-05,
482,48.85715956,9,1.03154182434082,
483,48.95859996,0,4.76837158203125E-05,
484,49.06032366,-9,-1.03205108642578,
485,49.16174332,0,4.38690185546875E-05,
486,49.26347618,9,1.0314884185791,
487,49.36489506,0,4.76837158203125E-05,
488,49.4666132,-9,-1.03202629089355,
489,49.5680375,0,4.76837158203125E-05,
490,49.6697546,9,1.03153038024902,
491,49.77119192,0,4.76837158203125E-05,
492,49.87293158,-9,-1.03197479248047,
493,49.97434732,0,4.76837158203125E-05,
494,50.07609746,9,1.03133010864258,
495,50.1775224,0,4.38690185546875E-05,
496,50.2792346,-9,-1.03195571899414,
497,50.3806722,0,4.00543212890625E-05,
498,50.48238574,9,1.03168296813965,
499,50.58380158,0,4.38690185546875E-05,
500,50.68552606,-9,-1.03195381164551,
501,50.78694508,0,4.57763671875E-05,
502,50.88867008,9,1.03157615661621,
503,50.99009582,0,4.76837158203125E-05,
504,51.09182554,-9,-1.03193855285645,
505,51.19326306,0,4.57763671875E-05,
506,51.2950088,9,1.03156852722168,
507,51.39643376,0,4.76837158203125E-05,
508,51.49816946,-9,-1.03194046020508,
509,51.59958974,0,4.57763671875E-05,
510,51.70131876,9,1.03160858154297,
511,51.80274602,0,4.38690185546875E-05,
512,51.90447616,-9,-1.0318546295166,
513,52.00589692,0,4.57763671875E-05,
514,52.10762722,9,1.03155708312988,
515,52.20903296,0,4.76837158203125E-05,
516,52.31076258,-9,-1.0318603515625,
517,52.41218884,0,4.76837158203125E-05,
518,52.51391722,9,1.03148078918457,
519,52.61533452,0,4.76837158203125E-05,
520,52.71705942,-9,-1.03181076049805,
521,52.81845424,0,4.1961669921875E-05,
522,52.9201928,9,1.03145408630371,
523,53.02161952,0,4.38690185546875E-05,
524,53.12333298,-9,-1.03180503845215,
525,53.22476504,0,4.1961669921875E-05,
526,53.326488,9,1.03142547607422,
527,53.42790528,0,4.57763671875E-05,
528,53.52962908,-9,-1.03174781799316,
529,53.63104718,0,4.38690185546875E-05,
530,53.73276072,9,1.03117370605469,
531,53.83419262,0,4.1961669921875E-05,
532,53.93592052,-9,-1.03170013427734,
533,54.0373477,0,4.1961669921875E-05,
534,54.13907618,9,1.0311393737793,
535,54.24049546,0,4.00543212890625E-05,
536,54.3422283,-9,-1.03164100646973,
537,54.44365356,0,4.1961669921875E-05,
538,54.54538322,9,1.03105354309082,
539,54.64681406,0,4.00543212890625E-05,
540,54.7485242,-9,-1.03164100646973,
541,54.84994218,0,4.00543212890625E-05,
542,54.95167388,9,1.03104782104492,
543,55.05309092,0,4.38690185546875E-05,
544,55.15482008,-9,-1.03157234191895,
545,55.256253,0,4.00543212890625E-05,
546,55.35797824,9,1.03108215332031,
547,55.4594148,0,4.1961669921875E-05,
548,55.56114158,-9,-1.03157806396484,
549,55.66256484,0,4.00543212890625E-05,
550,55.76429846,9,1.03096008300781,
551,55.86572342,0,4.38690185546875E-05,
552,55.9674415,-9,-1.03150749206543,
553,56.06886872,0,4.1961669921875E-05,
554,56.17058918,9,1.0310001373291,
555,56.2720068,0,4.00543212890625E-05,
556,56.373731,-9,-1.0315113067627,
557,56.4751576,0,4.00543212890625E-05,
558,56.57687732,9,1.03097152709961,
559,56.67830438,0,4.38690185546875E-05,
560,56.78003824,-9,-1.031494140625,
561,56.88147984,0,4.00543212890625E-05,
562,56.98320308,9,1.03090667724609,
563,57.08466504,0,4.76837158203125E-05,
564,57.18639122,-9,-1.03144836425781,
565,57.28779996,0,4.00543212890625E-05,
566,57.38952396,9,1.03090476989746,
567,57.49095448,0,4.00543212890625E-05,
568,57.59267098,-9,-1.03142356872559,
569,57.6940922,0,4.1961669921875E-05,
570,57.7958183,9,1.03099250793457,
571,57.8972329,0,4.38690185546875E-05,
572,57.99895942,-9,-1.03141021728516,
573,58.1003891,0,4.1961669921875E-05,
574,58.2021062,9,1.03097724914551,
575,58.30354738,0,4.1961669921875E-05,
576,58.40527168,-9,-1.03139114379883,
577,58.5066879,0,3.814697265625E-05,
578,58.60842588,9,1.03068161010742,
579,58.70984202,0,4.38690185546875E-05,
580,58.81156608,-9,-1.03134918212891,
581,58.91299688,0,4.00543212890625E-05,
582,59.0147196,9,1.03092575073242,
583,59.11613958,0,4.38690185546875E-05,
584,59.21786908,-9,-1.03127479553223,
585,59.31928588,0,4.00543212890625E-05,
586,59.42101516,9,1.03053283691406,
587,59.52244804,0,4.38690185546875E-05,
588,59.62416352,-9,-1.03126907348633,
589,59.72559736,0,4.00543212890625E-05,
590,59.82733026,9,1.03080940246582,
591,59.92875244,0,4.00543212890625E-05,
592,60.03049116,-9,-1.0312328338623,
593,60.13191512,0,4.00543212890625E-05,
594,60.23362368,9,1.03049659729004,
595,60.33506768,0,4.1961669921875E-05,
596,60.43679896,-9,-1.0312328338623,
597,60.5382221,0,4.00543212890625E-05,
598,60.63995302,9,1.03075218200684,
599,60.74136224,0,4.1961669921875E-05,
600,60.84309,-9,-1.0312328338623,
601,60.94452304,0,4.00543212890625E-05,
602,61.04623482,9,1.03060913085938,
603,61.1476698,0,4.00543212890625E-05,
604,61.24939822,-9,-1.03116226196289,
605,61.35081812,0,3.814697265625E-05,
606,61.4525694,9,1.03053855895996,
607,61.55400926,0,4.38690185546875E-05,
608,61.65574908,-9,-1.03107833862305,
609,61.75717962,0,4.00543212890625E-05,
610,61.85889668,9,1.03037643432617,
611,61.96031282,0,4.38690185546875E-05,
612,62.06203244,-9,-1.03108978271484,
613,62.16345692,0,4.00543212890625E-05,
614,62.2651905,9,1.03050422668457,
615,62.36661716,0,4.57763671875E-05,
616,62.46834248,-9,-1.03107833862305,
617,62.56978138,0,4.00543212890625E-05,
618,62.67151792,9,1.03042030334473,
619,62.77294224,0,4.1961669921875E-05,
620,62.87469496,-9,-1.03096580505371,
621,62.97610526,0,4.00543212890625E-05,
622,63.07784658,9,1.03008270263672,
623,63.17928098,0,4.38690185546875E-05,
624,63.28099648,-9,-1.03110885620117,
625,63.38241788,0,4.00543212890625E-05,
626,63.4841626,9,1.03061294555664,
627,63.58557866,0,4.00543212890625E-05,
628,63.68731742,-9,-1.03105545043945,
629,63.78876166,0,3.814697265625E-05,
630,63.89048328,9,1.03059768676758,
631,63.99191288,0,3.814697265625E-05,
632,64.09363888,-9,-1.03103637695313,
633,64.19504838,0,4.1961669921875E-05,
634,64.29679538,9,1.03058815002441,
635,64.39821742,0,4.1961669921875E-05,
636,64.49994386,-9,-1.03105545043945,
637,64.60137288,0,4.00543212890625E-05,
638,64.70309122,9,1.03048324584961,
639,64.80450196,0,4.1961669921875E-05,
640,64.90623872,-9,-1.0309886932373,
641,65.00765666,0,4.38690185546875E-05,
642,65.10943048,9,1.03017807006836,
643,65.21086974,0,4.1961669921875E-05,
644,65.31258838,-9,-1.03098297119141,
645,65.41402388,0,4.00543212890625E-05,
646,65.51575198,9,1.03023147583008,
647,65.61716986,0,4.1961669921875E-05,
648,65.71891952,-9,-1.03088188171387,
649,65.82033994,0,4.00543212890625E-05,
650,65.92206104,9,1.03036689758301,
651,66.02348886,0,4.38690185546875E-05,
652,66.12521082,-9,-1.0308895111084,
653,66.22662756,0,3.62396240234375E-05,
654,66.32836454,9,1.02968406677246,
655,66.42978424,0,4.57763671875E-05,
656,66.53151638,-9,-1.03086471557617,
657,66.6329522,0,4.00543212890625E-05,
658,66.73466888,9,1.0302848815918,
659,66.8361532,0,4.00543212890625E-05,
660,66.93789156,-9,-1.03080749511719,
661,67.0393104,0,4.00543212890625E-05,
662,67.14104528,9,1.03042030334473,
663,67.24246114,0,4.00543212890625E-05,
664,67.34417374,-9,-1.03086471557617,
665,67.44560862,0,4.00543212890625E-05,
666,67.54732314,9,1.03040885925293,
667,67.64873768,0,4.1961669921875E-05,
668,67.75047082,-9,-1.03079605102539,
669,67.85190326,0,4.1961669921875E-05,
670,67.9536162,9,1.03024291992188,
671,68.05505754,0,4.1961669921875E-05,
672,68.15678512,-9,-1.03078460693359,
673,68.25821448,0,4.1961669921875E-05,
674,68.35994532,9,1.02942085266113,
675,68.46136428,0,4.00543212890625E-05,
676,68.56314954,-9,-1.0305233001709,
677,68.66458,0,3.814697265625E-05,
678,68.76630582,9,1.02932167053223,
679,68.86773388,0,3.814697265625E-05,
680,68.96944878,-9,-1.03077507019043,
681,69.07087136,0,4.00543212890625E-05,
682,69.17260682,9,1.02967834472656,
683,69.27402138,0,4.38690185546875E-05,
684,69.3757565,-9,-1.03070259094238,
685,69.47720102,0,3.62396240234375E-05,
686,69.57891908,9,1.02997779846191,
687,69.68034516,0,4.1961669921875E-05,
688,69.78209554,-9,-1.03067398071289,
689,69.8835123,0,4.1961669921875E-05,
690,69.98525592,9,1.0292854309082,
691,70.08668894,0,4.38690185546875E-05,
692,70.18841192,-9,-1.02946853637695,
693,70.2898458,0,3.814697265625E-05,
694,70.39157016,9,1.02744102478027,
695,70.49299242,0,4.38690185546875E-05,
696,70.5947248,-9,-1.03063201904297,
697,70.69614972,0,4.1961669921875E-05,
698,70.79788668,9,1.03003311157227,
699,70.8993153,0,4.1961669921875E-05,
700,71.001055,-9,-1.03067207336426,
701,71.10248522,0,4.00543212890625E-05,
702,71.20422218,9,1.03044509887695,
703,71.3056431,0,4.38690185546875E-05,
704,71.40736608,-9,-1.03067970275879,
705,71.50879478,0,3.62396240234375E-05,
706,71.61051824,9,1.03021812438965,
707,71.71194572,0,4.00543212890625E-05,
708,71.81367554,-9,-1.03067398071289,
709,71.91509924,0,4.00543212890625E-05,
710,72.0168217,9,1.03020095825195,
711,72.1182434,0,4.1961669921875E-05,
712,72.2199586,-9,-1.03065490722656,
713,72.32139206,0,3.62396240234375E-05,
714,72.42311378,9,1.03016471862793,
715,72.52454482,0,3.814697265625E-05,
716,72.62627118,-9,-1.03062629699707,
717,72.72769064,0,4.00543212890625E-05,
718,72.82942466,9,1.03021240234375,
719,72.93084124,0,4.00543212890625E-05,
720,73.03255946,-9,-1.03065490722656,
721,73.13399532,0,3.814697265625E-05,
722,73.23570974,9,1.0301570892334,
723,73.33714408,0,4.00543212890625E-05,
724,73.43887252,-9,-1.03061866760254,
725,73.54027384,0,3.814697265625E-05,
726,73.6420091,9,1.03008270263672,
727,73.74344186,0,3.814697265625E-05,
728,73.84517138,-9,-1.030517578125,
729,73.94665984,0,4.00543212890625E-05,
730,74.04839182,9,1.0301342010498,
731,74.14982202,0,3.62396240234375E-05,
732,74.25155974,-9,-1.0305233001709,
733,74.35298624,0,4.00543212890625E-05,
734,74.45471294,9,1.02996063232422,
735,74.55614438,0,3.814697265625E-05,
736,74.65785774,-9,-1.03053665161133,
737,74.7592794,0,4.00543212890625E-05,
738,74.86100966,9,1.02986145019531,
739,74.9624286,0,3.62396240234375E-05,
740,75.06415262,-9,-1.03052139282227,
741,75.16559794,0,3.814697265625E-05,
742,75.26732008,9,1.0299186706543,
743,75.36874632,0,4.00543212890625E-05,
744,75.47048184,-9,-1.03048706054688,
745,75.57190192,0,3.814697265625E-05,
746,75.67365328,9,1.02982902526855,
747,75.77508932,0,3.62396240234375E-05,
748,75.87680164,-9,-1.03047180175781,
749,75.97824452,0,3.62396240234375E-05,
750,76.07996432,9,1.02983665466309,
751,76.18139172,0,3.814697265625E-05,
752,76.28312952,-9,-1.03048896789551,
753,76.38455242,0,4.00543212890625E-05,
754,76.48627426,9,1.02982902526855,
755,76.58770924,0,3.62396240234375E-05,
756,76.6894232,-9,-1.03047943115234,
757,76.79083182,0,3.814697265625E-05,
758,76.89256514,9,1.0298023223877,
759,76.99398478,0,3.814697265625E-05,
760,77.09571892,-9,-1.0303897857666,
761,77.1971529,0,3.814697265625E-05,
762,77.29886708,9,1.02965927124023,
763,77.40030622,0,4.00543212890625E-05,
764,77.50204948,-9,-1.03040504455566,
765,77.60347374,0,3.4332275390625E-05,
766,77.70520386,9,1.02969169616699,
767,77.80663008,0,3.62396240234375E-05,
768,77.90836046,-9,-1.03032875061035,
769,78.00979348,0,3.62396240234375E-05,
770,78.111516,9,1.02962684631348,
771,78.2129333,0,3.814697265625E-05,
772,78.31466374,-9,-1.03032493591309,
773,78.41609452,0,4.1961669921875E-05,
774,78.5178159,9,1.02963638305664,
775,78.61924586,0,3.62396240234375E-05,
776,78.72096282,-9,-1.03032302856445,
777,78.8224487,0,4.00543212890625E-05,
778,78.92418554,9,1.02931785583496,
779,79.02562044,0,3.814697265625E-05,
780,79.12737416,-9,-1.03019905090332,
781,79.22878784,0,3.62396240234375E-05,
782,79.33050938,9,1.02808380126953,
783,79.43193758,0,4.1961669921875E-05,
784,79.5336622,-9,-1.03028869628906,
785,79.63508414,0,3.814697265625E-05,
786,79.73681402,9,1.02901458740234,
787,79.83822404,0,4.1961669921875E-05,
788,79.93994798,-9,-1.03023529052734,
789,80.0413915,0,4.00543212890625E-05,
790,80.14311102,9,1.02945518493652,
791,80.24453632,0,4.38690185546875E-05,
792,80.34626964,-9,-1.03019332885742,
793,80.44768804,0,3.814697265625E-05,
794,80.5494294,9,1.02956390380859,
795,80.65085268,0,4.00543212890625E-05,
796,80.7525783,-9,-1.03019905090332,
797,80.85400916,0,3.62396240234375E-05,
798,80.95572982,9,1.02962303161621,
799,81.05715136,0,3.814697265625E-05,
800,81.15889006,-9,-1.03022384643555,
801,81.26030632,0,3.4332275390625E-05,
802,81.36204146,9,1.02967071533203,
803,81.46347834,0,4.00543212890625E-05,
804,81.56520206,-9,-1.03018951416016,
805,81.66663424,0,3.814697265625E-05,
806,81.7683656,9,1.02956199645996,
807,81.86978492,0,3.4332275390625E-05,
808,81.97151894,-9,-1.03008460998535,
809,82.07294538,0,3.4332275390625E-05,
810,82.17466028,9,1.02936172485352,
811,82.27609658,0,3.62396240234375E-05,
812,82.37780884,-9,-1.03014373779297,
813,82.47922286,0,3.814697265625E-05,
814,82.58094224,9,1.02931213378906,
815,82.68234456,0,3.4332275390625E-05,
816,82.78405872,-9,-1.03011322021484,
817,82.88550366,0,3.62396240234375E-05,
818,82.98722814,9,1.02952766418457,
819,83.08866056,0,4.00543212890625E-05,
820,83.19039606,-9,-1.03010368347168,
821,83.29181522,0,3.814697265625E-05,
822,83.39354914,9,1.02956581115723,
823,83.49497644,0,3.814697265625E-05,
824,83.59669932,-9,-1.03013038635254,
825,83.6981338,0,3.814697265625E-05,
826,83.79986208,9,1.02958869934082,
827,83.90128698,0,3.814697265625E-05,
828,84.003019,-9,-1.03009223937988,
829,84.10444432,0,3.4332275390625E-05,
830,84.20618456,9,1.02964782714844,
831,84.30761628,0,3.4332275390625E-05,
832,84.40934146,-9,-1.03006362915039,
833,84.51076354,0,3.4332275390625E-05,
834,84.61247714,9,1.02948760986328,
835,84.71390378,0,3.62396240234375E-05,
836,84.81564346,-9,-1.02997207641602,
837,84.9170646,0,3.4332275390625E-05,
838,85.0187816,9,1.02942657470703,
839,85.12021106,0,4.1961669921875E-05,
840,85.22193202,-9,-1.0300235748291,
841,85.32335198,0,4.00543212890625E-05,
842,85.4250771,9,1.02925300598145,
843,85.52649306,0,4.1961669921875E-05,
844,85.62823338,-9,-1.02999305725098,
845,85.72966168,0,3.814697265625E-05,
846,85.83137346,9,1.02932357788086,
847,85.93280594,0,4.00543212890625E-05,
848,86.0345329,-9,-1.02997398376465,
849,86.13595978,0,3.814697265625E-05,
850,86.23770976,9,1.02877044677734,
851,86.3391227,0,4.00543212890625E-05,
852,86.44083438,-9,-1.02996826171875,
853,86.5422675,0,3.814697265625E-05,
854,86.64398314,9,1.02865219116211,
855,86.74539936,0,3.62396240234375E-05,
856,86.84713262,-9,-1.02992057800293,
857,86.94854852,0,3.814697265625E-05,
858,87.050272,9,1.02889442443848,
859,87.1517068,0,3.814697265625E-05,
860,87.25343588,-9,-1.02993011474609,
861,87.35489302,0,3.4332275390625E-05,
862,87.45660796,9,1.02898025512695,
863,87.55802776,0,3.814697265625E-05,
864,87.65977484,-9,-1.02646064758301,
865,87.76119012,0,4.00543212890625E-05,
866,87.86291424,9,1.02623176574707,
867,87.964349,0,3.62396240234375E-05,
868,88.06606728,-9,-1.02667808532715,
869,88.16748302,0,4.00543212890625E-05,
870,88.26921442,9,1.02495574951172,
871,88.37063892,0,3.814697265625E-05,
872,88.47236318,-9,-1.02609252929688,
873,88.57378362,0,3.4332275390625E-05,
874,88.6755148,9,1.02469635009766,
875,88.7769544,0,3.62396240234375E-05,
876,88.87867594,-9,-1.02593803405762,
877,88.98007604,0,3.24249267578125E-05,
878,89.08181068,9,1.02418518066406,
879,89.18323744,0,3.62396240234375E-05,
880,89.28496754,-9,-1.02575492858887,
881,89.38638358,0,3.4332275390625E-05,
882,89.48811372,9,1.02466773986816,
883,89.5895391,0,3.814697265625E-05,
884,89.69128884,-9,-1.02584266662598,
885,89.79269352,0,3.0517578125E-05,
886,89.8944231,9,1.02476119995117,
887,89.99584686,0,3.4332275390625E-05,
888,90.09757154,-9,-1.02580070495605,
889,90.19899616,0,3.0517578125E-05,
890,90.30070612,9,1.0244140625,
891,90.40213558,0,3.62396240234375E-05,
892,90.503871,-9,-1.02540016174316,
893,90.60529518,0,3.62396240234375E-05,
894,90.70700602,9,1.02543258666992,
895,90.80843782,0,3.62396240234375E-05,
896,90.91015564,-9,-1.02568054199219,
897,91.01155584,0,3.4332275390625E-05,
898,91.11329446,9,1.02455139160156,
899,91.21471612,0,3.62396240234375E-05,
900,91.31646544,-9,-1.0256519317627,
901,91.41789428,0,3.62396240234375E-05,
902,91.51962348,9,1.02492904663086,
903,91.621064,0,4.1961669921875E-05,
904,91.7227853,-9,-1.02571296691895,
905,91.82419504,0,3.814697265625E-05,
906,91.92593538,9,1.02497863769531,
907,92.02735582,0,3.814697265625E-05,
908,92.12907424,-9,-1.02543830871582,
909,92.23048738,0,3.4332275390625E-05,
910,92.33220364,9,1.02437973022461,
911,92.43364486,0,4.1961669921875E-05,
912,92.53538932,-9,-1.02542877197266,
913,92.63681242,0,3.62396240234375E-05,
914,92.73853992,9,1.02515602111816,
915,92.83998098,0,3.814697265625E-05,
916,92.94170062,-9,-1.02585601806641,
917,93.04313992,0,3.62396240234375E-05,
918,93.14485728,9,1.02436065673828,
919,93.24627718,0,4.1961669921875E-05,
920,93.34800702,-9,-1.02588272094727,
921,93.44943248,0,3.814697265625E-05,
922,93.55115126,9,1.02494430541992,
923,93.65258252,0,3.814697265625E-05,
924,93.75430152,-9,-1.0256175994873,
925,93.85573194,0,4.00543212890625E-05,
926,93.95747552,9,1.02458190917969,
927,94.0588957,0,4.1961669921875E-05,
928,94.16066096,-9,-1.02551078796387,
929,94.26209256,0,3.814697265625E-05,
930,94.36381134,9,1.0250358581543,
931,94.4652531,0,4.1961669921875E-05,
932,94.56698716,-9,-1.02529525756836,
933,94.66841188,0,3.814697265625E-05,
934,94.77014106,9,1.02468109130859,
935,94.87156828,0,3.62396240234375E-05,
936,94.97329516,-9,-1.02554702758789,
937,95.0747264,0,4.00543212890625E-05,
938,95.17646356,9,1.02487373352051,
939,95.27790348,0,4.00543212890625E-05,
940,95.3796215,-9,-1.02632141113281,
941,95.48104774,0,3.62396240234375E-05,
942,95.58277036,9,1.02415466308594,
943,95.68420162,0,4.00543212890625E-05,
944,95.78592064,-9,-1.02504920959473,
945,95.88735438,0,3.62396240234375E-05,
946,95.98905922,9,1.02486419677734,
947,96.0904709,0,3.4332275390625E-05,
948,96.19221082,-9,-1.02462768554688,
949,96.29362046,0,3.62396240234375E-05,
950,96.39534774,9,1.02473640441895,
951,96.49678052,0,4.00543212890625E-05,
952,96.598509,-9,-1.02616500854492,
953,96.69994482,0,3.814697265625E-05,
954,96.80167124,9,1.0247974395752,
955,96.9030958,0,4.00543212890625E-05,
956,97.00482754,-9,-1.0262451171875,
957,97.10625076,0,4.00543212890625E-05,
958,97.20796394,9,1.02407836914063,
959,97.30939564,0,4.00543212890625E-05,
960,97.41110926,-9,-1.02528190612793,
961,97.51252688,0,3.62396240234375E-05,
962,97.61426326,9,1.0249080657959,
963,97.71568478,0,3.814697265625E-05,
964,97.81738826,-9,-1.02606010437012,
965,97.91882056,0,3.62396240234375E-05,
966,98.02055032,9,1.02411079406738,
967,98.12198266,0,4.00543212890625E-05,
968,98.2237181,-9,-1.02560234069824,
969,98.3251439,0,3.814697265625E-05,
970,98.42688646,9,1.02436828613281,
971,98.52831848,0,3.62396240234375E-05,
972,98.63004614,-9,-1.02515983581543,
973,98.73148336,0,4.1961669921875E-05,
974,98.83321744,9,1.02469635009766,
975,98.93463894,0,3.814697265625E-05,
976,99.03638446,-9,-1.02584075927734,
977,99.13780742,0,4.1961669921875E-05,
978,99.23953066,9,1.02429389953613,
979,99.34096506,0,3.814697265625E-05,
980,99.44269702,-9,-1.02543830871582,
981,99.54413034,0,3.62396240234375E-05,
982,99.6458561,9,1.0250129699707,
983,99.74727126,0,3.4332275390625E-05,
984,99.84900672,-9,-1.02490615844727,
985,99.95043336,0,3.4332275390625E-05,
986,100.05214842,9,1.02438926696777,
987,100.15358464,0,3.62396240234375E-05,
988,100.25531396,-9,-1.02507019042969,
989,100.35674094,0,3.62396240234375E-05,
990,100.45847372,9,1.02456092834473,
991,100.55989094,0,3.62396240234375E-05,
992,100.66165238,-9,-1.02444458007813,
993,100.76308594,0,3.62396240234375E-05,
994,100.86481924,9,1.02499198913574,
995,100.96625146,0,3.62396240234375E-05,
996,101.06798284,-9,-1.02508354187012,
997,101.16940576,0,3.62396240234375E-05,
998,101.27113588,9,1.02449798583984,
999,101.37256606,0,3.814697265625E-05,
1000,101.47430066,-9,-1.02482604980469,
1001,101.57573116,0,3.62396240234375E-05,
1002,101.67746818,9,1.02472686767578,
1003,101.77888602,0,3.814697265625E-05,
1004,101.8806114,-9,-1.02442932128906,
1005,101.98202264,0,4.00543212890625E-05,
1006,102.08374646,9,1.02488136291504,
1007,102.18518212,0,4.00543212890625E-05,
1008,102.28689312,-9,-1.02490997314453,
1009,102.38831806,0,4.1961669921875E-05,
1010,102.49004784,9,1.0250072479248,
1011,102.59144998,0,3.814697265625E-05,
1012,102.69317546,-9,-1.02470588684082,
1013,102.79460646,0,3.814697265625E-05,
1014,102.89631856,9,1.02495574951172,
1015,102.99775078,0,3.814697265625E-05,
1016,103.09947676,-9,-1.02484893798828,
1017,103.20088946,0,3.814697265625E-05,
1018,103.30264192,9,1.02461242675781,
1019,103.40406988,0,4.1961669921875E-05,
1020,103.50578354,-9,-1.02475357055664,
1021,103.6072148,0,3.62396240234375E-05,
1022,103.70894102,9,1.02454566955566,
1023,103.81035826,0,4.00543212890625E-05,
1024,103.91208866,-9,-1.02499771118164,
1025,104.01350838,0,3.814697265625E-05,
1026,104.11524334,9,1.02463150024414,
1027,104.21667804,0,3.814697265625E-05,
1028,104.3184003,-9,-1.0249137878418,
1029,104.41983222,0,3.62396240234375E-05,
1030,104.52156688,9,1.02464866638184,
1031,104.62299164,0,4.00543212890625E-05,
1032,104.724727,-9,-1.0258617401123,
1033,104.8261536,0,3.4332275390625E-05,
1034,104.92788146,9,1.02420425415039,
1035,105.02931012,0,4.00543212890625E-05,
1036,105.1310365,-9,-1.02583122253418,
1037,105.23244458,0,3.4332275390625E-05,
1038,105.33417568,9,1.0239315032959,
1039,105.4356145,0,3.814697265625E-05,
1040,105.53733508,-9,-1.02534294128418,
1041,105.6387674,0,3.814697265625E-05,
1042,105.74049874,9,1.02467918395996,
1043,105.84191942,0,3.4332275390625E-05,
1044,105.94366052,-9,-1.0250415802002,
1045,106.04506684,0,3.24249267578125E-05,
1046,106.14679772,9,1.02459526062012,
1047,106.2482301,0,3.4332275390625E-05,
1048,106.34996506,-9,-1.02583694458008,
1049,106.4513801,0,3.4332275390625E-05,
1050,106.55308964,9,1.02376365661621,
1051,106.6545017,0,3.0517578125E-05,
1052,106.75624206,-9,-1.02572059631348,
1053,106.85765058,0,3.24249267578125E-05,
1054,106.95936328,9,1.02406692504883,
1055,107.0607952,0,4.00543212890625E-05,
1056,107.16250986,-9,-1.02505302429199,
1057,107.26391876,0,3.4332275390625E-05,
1058,107.3656556,9,1.02460861206055,
1059,107.4670732,0,3.814697265625E-05,
1060,107.5688052,-9,-1.02591896057129,
1061,107.67023168,0,3.814697265625E-05,
1062,107.77194382,9,1.02400588989258,
1063,107.8733738,0,3.814697265625E-05,
1064,107.9750935,-9,-1.02574920654297,
1065,108.07652968,0,4.00543212890625E-05,
1066,108.17827374,9,1.02377319335938,
1067,108.27966882,0,4.38690185546875E-05,
1068,108.38138512,-9,-1.02475166320801,
1069,108.48280058,0,3.4332275390625E-05,
1070,108.5845356,9,1.02472686767578,
1071,108.68596056,0,4.00543212890625E-05,
1072,108.78770244,-9,-1.02489280700684,
1073,108.88912192,0,4.00543212890625E-05,
1074,108.99084812,9,1.02423477172852,
1075,109.09228312,0,3.62396240234375E-05,
1076,109.1940013,-9,-1.02479553222656,
1077,109.29543508,0,3.62396240234375E-05,
1078,109.39715612,9,1.02450561523438,
1079,109.49858622,0,3.4332275390625E-05,
1080,109.60031746,-9,-1.02538681030273,
1081,109.70171478,0,3.4332275390625E-05,
1082,109.80342008,9,1.0247974395752,
1083,109.90484392,0,3.24249267578125E-05,
1084,110.00657024,-9,-1.02531051635742,
1085,110.1080066,0,3.62396240234375E-05,
1086,110.20974498,9,1.02419281005859,
1087,110.31116278,0,4.00543212890625E-05,
1088,110.41288806,-9,-1.02522850036621,
1089,110.51431116,0,4.1961669921875E-05,
1090,110.61604924,9,1.0245532989502,
1091,110.71748286,0,3.814697265625E-05,
1092,110.8191975,-9,-1.02519607543945,
1093,110.92061182,0,3.24249267578125E-05,
1094,111.02235384,9,1.02463912963867,
1095,111.12377738,0,4.1961669921875E-05,
1096,111.22549988,-9,-1.02473831176758,
1097,111.32693872,0,3.4332275390625E-05,
1098,111.4286755,9,1.0245418548584,
1099,111.53011984,0,3.814697265625E-05,
1100,111.63185494,-9,-1.02500915527344,
1101,111.73327602,0,3.814697265625E-05,
1102,111.83501746,9,1.02454376220703,
1103,111.9364484,0,3.814697265625E-05,
1104,112.03817636,-9,-1.02535247802734,
1105,112.13961296,0,3.62396240234375E-05,
1106,112.24132172,9,1.02467918395996,
1107,112.34275306,0,4.1961669921875E-05,
1108,112.4444985,-9,-1.02513313293457,
1109,112.54592268,0,3.62396240234375E-05,
1110,112.64763808,9,1.02480697631836,
1111,112.74907128,0,3.62396240234375E-05,
1112,112.8507848,-9,-1.02517318725586,
1113,112.9522139,0,3.814697265625E-05,
1114,113.05394594,9,1.02446174621582,
1115,113.15536874,0,3.814697265625E-05,
1116,113.257103,-9,-1.02493667602539,
1117,113.35852336,0,3.62396240234375E-05,
1118,113.4602486,9,1.02464866638184,
1119,113.56167694,0,3.62396240234375E-05,
1120,113.6633937,-9,-1.02511405944824,
1121,113.76481428,0,3.62396240234375E-05,
1122,113.86654128,9,1.02453231811523,
1123,113.96794284,0,3.4332275390625E-05,
1124,114.06967136,-9,-1.02522850036621,
1125,114.1711019,0,3.814697265625E-05,
1126,114.27281992,9,1.02446937561035,
1127,114.37425206,0,3.24249267578125E-05,
1128,114.4759793,-9,-1.02508544921875,
1129,114.5773965,0,3.814697265625E-05,
1130,114.67912438,9,1.02423667907715,
1131,114.78055398,0,3.814697265625E-05,
1132,114.88229354,-9,-1.02534103393555,
1133,114.98373366,0,3.62396240234375E-05,
1134,115.08547306,9,1.02389526367188,
1135,115.18690482,0,3.814697265625E-05,
1136,115.28863576,-9,-1.02532005310059,
1137,115.39007984,0,3.62396240234375E-05,
1138,115.49180198,9,1.02391052246094,
1139,115.5932345,0,3.62396240234375E-05,
1140,115.69496436,-9,-1.02420425415039,
1141,115.7963784,0,3.814697265625E-05,
1142,115.89811178,9,1.02423286437988,
1143,115.99954086,0,3.814697265625E-05,
1144,116.10127482,-9,-1.02480506896973,
1145,116.20270754,0,3.814697265625E-05,
1146,116.3044257,9,1.02423095703125,
1147,116.40585162,0,4.00543212890625E-05,
1148,116.50757962,-9,-1.02472114562988,
1149,116.60900342,0,4.00543212890625E-05,
1150,116.7107477,9,1.02424621582031,
1151,116.81217966,0,4.00543212890625E-05,
1152,116.91390962,-9,-1.02446174621582,
1153,117.01533864,0,4.1961669921875E-05,
1154,117.11706926,9,1.02422523498535,
1155,117.21848588,0,4.00543212890625E-05,
1156,117.3202196,-9,-1.02530097961426,
1157,117.42164996,0,3.4332275390625E-05,
1158,117.52337946,9,1.02456092834473,
1159,117.62478982,0,3.4332275390625E-05,
1160,117.72652292,-9,-1.02506637573242,
1161,117.8279637,0,3.62396240234375E-05,
1162,117.9296902,9,1.02394104003906,
1163,118.0311053,0,3.24249267578125E-05,
1164,118.1328339,-9,-1.02511024475098,
1165,118.23426496,0,3.814697265625E-05,
1166,118.3360075,9,1.02414512634277,
1167,118.43744476,0,3.814697265625E-05,
1168,118.53915272,-9,-1.02525329589844,
1169,118.64057436,0,3.814697265625E-05,
1170,118.74230988,9,1.02431488037109,
1171,118.8437216,0,3.62396240234375E-05,
1172,118.94544898,-9,-1.02522468566895,
1173,119.04688666,0,3.814697265625E-05,
1174,119.1486072,9,1.02426338195801,
1175,119.2500399,0,3.814697265625E-05,
1176,119.35177152,-9,-1.02509307861328,
1177,119.45319176,0,4.38690185546875E-05,
1178,119.55491406,9,1.02385902404785,
1179,119.6563436,0,4.1961669921875E-05,
1180,119.75806356,-9,-1.0249195098877,
1181,119.8594914,0,4.00543212890625E-05,
1182,119.96122002,9,1.02377319335938,
1183,120.06263666,0,4.00543212890625E-05,
1184,120.16436124,-9,-1.02478790283203,
1185,120.26577478,0,3.4332275390625E-05,
1186,120.3675035,9,1.02349662780762,
1187,120.46893666,0,4.00543212890625E-05,
1188,120.57065904,-9,-1.02548217773438,
1189,120.67208382,0,3.62396240234375E-05,
1190,120.77382368,9,1.02433967590332,
1191,120.87524956,0,4.00543212890625E-05,
1192,120.97698734,-9,-1.02545547485352,
1193,121.07842348,0,3.814697265625E-05,
1194,121.18014344,9,1.02474975585938,
1195,121.28158114,0,3.814697265625E-05,
1196,121.3833164,-9,-1.02515602111816,
1197,121.48473446,0,4.00543212890625E-05,
1198,121.58647688,9,1.02427291870117,
1199,121.68789898,0,4.00543212890625E-05,
1200,121.78961146,-9,-1.02504920959473,
1201,121.89104918,0,4.00543212890625E-05,
1202,121.9927839,9,1.0242805480957,
1203,122.09420514,0,4.00543212890625E-05,
1204,122.1959461,-9,-1.02536582946777,
1205,122.29736644,0,3.814697265625E-05,
1206,122.3991118,9,1.02445411682129,
1207,122.50052856,0,3.24249267578125E-05,
1208,122.60224226,-9,-1.02537155151367,
1209,122.70368624,0,3.4332275390625E-05,
1210,122.80541684,9,1.024169921875,
1211,122.90684482,0,3.814697265625E-05,
1212,123.0085674,-9,-1.02522468566895,
1213,123.10999418,0,3.62396240234375E-05,
1214,123.21171388,9,1.0247917175293,
1215,123.31314792,0,3.62396240234375E-05,
1216,123.4148797,-9,-1.02533149719238,
1217,123.51630222,0,3.62396240234375E-05,
1218,123.61803998,9,1.02412605285645,
1219,123.71946384,0,3.4332275390625E-05,
1220,123.82122718,-9,-1.02500152587891,
1221,123.92266134,0,3.62396240234375E-05,
1222,124.02438996,9,1.02380180358887,
1223,124.12583502,0,4.00543212890625E-05,
1224,124.22758138,-9,-1.02438735961914,
1225,124.32900506,0,3.62396240234375E-05,
1226,124.43075592,9,1.02397918701172,
1227,124.5321758,0,4.00543212890625E-05,
1228,124.63388986,-9,-1.0254955291748,
1229,124.7353206,0,3.814697265625E-05,
1230,124.83704054,9,1.02386665344238,
1231,124.93846434,0,3.814697265625E-05,
1232,125.0401985,-9,-1.02552223205566,
1233,125.14162212,0,3.62396240234375E-05,
1234,125.24334774,9,1.02373313903809,
1235,125.34475996,0,3.24249267578125E-05,
1236,125.44649644,-9,-1.02471923828125,
1237,125.54792702,0,3.814697265625E-05,
1238,125.64964924,9,1.02366828918457,
1239,125.7510608,0,3.4332275390625E-05,
1240,125.852805,-9,-1.02530479431152,
1241,125.95423276,0,3.62396240234375E-05,
1242,126.05594452,9,1.02432250976563,
1243,126.1573918,0,3.62396240234375E-05,
1244,126.25910778,-9,-1.02532196044922,
1245,126.3605289,0,3.62396240234375E-05,
1246,126.46227348,9,1.02469062805176,
1247,126.56369318,0,3.814697265625E-05,
1248,126.66543934,-9,-1.02512168884277,
1249,126.76687592,0,3.4332275390625E-05,
1250,126.86858582,9,1.02418518066406,
1251,126.97001568,0,3.62396240234375E-05,
1252,127.07173968,-9,-1.02519607543945,
1253,127.17316192,0,3.62396240234375E-05,
1254,127.27488846,9,1.02394485473633,
1255,127.3763096,0,3.24249267578125E-05,
1256,127.47802166,-9,-1.02486991882324,
1257,127.57945236,0,3.62396240234375E-05,
1258,127.68117598,9,1.02435302734375,
1259,127.78258532,0,4.00543212890625E-05,
1260,127.88431254,-9,-1.02496147155762,
1261,127.98573364,0,3.814697265625E-05,
1262,128.08746332,9,1.02420997619629,
1263,128.18889286,0,4.1961669921875E-05,
1264,128.29061116,-9,-1.02565002441406,
1265,128.39204202,0,3.814697265625E-05,
1266,128.4937631,9,1.02441024780273,
1267,128.59519066,0,3.814697265625E-05,
1268,128.69691722,-9,-1.02557754516602,
1269,128.79835308,0,3.4332275390625E-05,
1270,128.90008294,9,1.02471923828125,
1271,129.00151988,0,3.814697265625E-05,
1272,129.1032395,-9,-1.02567672729492,
1273,129.2046762,0,3.814697265625E-05,
1274,129.3064296,9,1.02481079101563,
1275,129.40786482,0,4.00543212890625E-05,
1276,129.50962164,-9,-1.02565956115723,
1277,129.6110466,0,4.00543212890625E-05,
1278,129.71278456,9,1.02495956420898,
1279,129.8141978,0,3.4332275390625E-05,
1280,129.91591684,-9,-1.02558708190918,
1281,130.01733026,0,3.24249267578125E-05,
1282,130.11905164,9,1.02483749389648,
1283,130.22046722,0,4.00543212890625E-05,
1284,130.32218772,-9,-1.02559089660645,
1285,130.42363138,0,4.00543212890625E-05,
1286,130.5253431,9,1.02492332458496,
1287,130.62678608,0,4.38690185546875E-05,
1288,130.72852656,-9,-1.02553176879883,
1289,130.82993574,0,4.00543212890625E-05,
1290,130.93166428,9,1.02458572387695,
1291,131.03309702,0,4.00543212890625E-05,
1292,131.13481504,-9,-1.0254955291748,
1293,131.2362445,0,4.00543212890625E-05,
1294,131.3379764,9,1.02493858337402,
1295,131.43939522,0,4.00543212890625E-05,
1296,131.54113518,-9,-1.025634765625,
1297,131.64256496,0,4.1961669921875E-05,
1298,131.74427808,9,1.02488327026367,
1299,131.8457162,0,4.00543212890625E-05,
1300,131.94746182,-9,-1.02537155151367,
1301,132.04887218,0,4.38690185546875E-05,
1302,132.15059626,9,1.02497673034668,
1303,132.25201098,0,4.38690185546875E-05,
1304,132.35373642,-9,-1.02549743652344,
1305,132.45516824,0,4.00543212890625E-05,
1306,132.55690232,9,1.0250244140625,
1307,132.65835314,0,4.00543212890625E-05,
1308,132.7600798,-9,-1.02559089660645,
1309,132.86151612,0,4.00543212890625E-05,
1310,132.96325346,9,1.0250244140625,
1311,133.06467148,0,4.00543212890625E-05,
1312,133.16638562,-9,-1.02560806274414,
1313,133.26782038,0,4.00543212890625E-05,
1314,133.36953502,9,1.02504539489746,
1315,133.47095186,0,4.38690185546875E-05,
1316,133.57267858,-9,-1.02558326721191,
1317,133.6741048,0,4.1961669921875E-05,
1318,133.77582512,9,1.02504920959473,
1319,133.87725892,0,4.1961669921875E-05,
1320,133.978991,-9,-1.02557563781738,
1321,134.08043434,0,4.38690185546875E-05,
1322,134.18215952,9,1.02497863769531,
1323,134.28358,0,4.57763671875E-05,
1324,134.38531426,-9,-1.0253849029541,
1325,134.486733,0,4.57763671875E-05,
1326,134.58845066,9,1.0249195098877,
1327,134.68988394,0,4.38690185546875E-05,
1328,134.79160072,-9,-1.02635955810547,
1329,134.89302244,0,4.00543212890625E-05,
1330,134.99475726,9,1.02514266967773,
1331,135.09618692,0,4.00543212890625E-05,
1332,135.19791338,-9,-1.02553558349609,
1333,135.29934108,0,4.1961669921875E-05,
1334,135.40106612,9,1.02500343322754,
1335,135.5024881,0,4.00543212890625E-05,
1336,135.60420826,-9,-1.02617645263672,
1337,135.7056393,0,3.814697265625E-05,
1338,135.80737926,9,1.02502632141113,
1339,135.90881312,0,4.1961669921875E-05,
1340,136.01054466,-9,-1.02551651000977,
1341,136.11197482,0,3.814697265625E-05,
1342,136.21369976,9,1.02478981018066,
1343,136.31512258,0,3.814697265625E-05,
1344,136.4168593,-9,-1.02616119384766,
1345,136.51827426,0,4.1961669921875E-05,
1346,136.61999838,9,1.02488327026367,
1347,136.72143182,0,4.00543212890625E-05,
1348,136.82314958,-9,-1.02573394775391,
1349,136.92455582,0,3.24249267578125E-05,
1350,137.02629066,9,1.02497291564941,
1351,137.12771784,0,3.62396240234375E-05,
1352,137.22944654,-9,-1.02547073364258,
1353,137.3308812,0,4.00543212890625E-05,
1354,137.4325993,9,1.02464866638184,
1355,137.5340313,0,3.814697265625E-05,
1356,137.63577236,-9,-1.02624893188477,
1357,137.73718534,0,3.814697265625E-05,
1358,137.83891736,9,1.02494239807129,
1359,137.94034102,0,4.00543212890625E-05,
1360,138.04206146,-9,-1.02622222900391,
1361,138.1434918,0,3.62396240234375E-05,
1362,138.24520724,9,1.02486801147461,
1363,138.3466425,0,3.4332275390625E-05,
1364,138.44838544,-9,-1.02634048461914,
1365,138.54981426,0,4.1961669921875E-05,
1366,138.65154956,9,1.02493667602539,
1367,138.7529804,0,4.00543212890625E-05,
1368,138.8546971,-9,-1.02629852294922,
1369,138.95612702,0,4.00543212890625E-05,
1370,139.0578532,9,1.02498435974121,
1371,139.1592763,0,3.814697265625E-05,
1372,139.26101176,-9,-1.02630615234375,
1373,139.36243252,0,3.62396240234375E-05,
1374,139.46416446,9,1.0252857208252,
1375,139.56559414,0,4.00543212890625E-05,
1376,139.66732418,-9,-1.02535438537598,
1377,139.76877064,0,3.62396240234375E-05,
1378,139.87050334,9,1.0246696472168,
1379,139.97192134,0,4.1961669921875E-05,
1380,140.0736978,-9,-1.02616691589355,
1381,140.17512902,0,3.62396240234375E-05,
1382,140.27686664,9,1.02505874633789,
1383,140.37830124,0,3.62396240234375E-05,
1384,140.48001614,-9,-1.02633285522461,
1385,140.58143826,0,3.814697265625E-05,
1386,140.68318022,9,1.02504920959473,
1387,140.7845883,0,4.00543212890625E-05,
1388,140.88631826,-9,-1.02635383605957,
1389,140.98775598,0,4.00543212890625E-05,
1390,141.08949614,9,1.02546691894531,
1391,141.19093002,0,4.38690185546875E-05,
1392,141.29266494,-9,-1.0262451171875,
1393,141.39409238,0,4.1961669921875E-05,
1394,141.4958389,9,1.02505302429199,
1395,141.59726822,0,4.00543212890625E-05,
1396,141.69898926,-9,-1.0261173248291,
1397,141.8004171,0,4.1961669921875E-05,
1398,141.90214292,9,1.02564430236816,
1399,142.0035644,0,4.00543212890625E-05,
1400,142.105297,-9,-1.02629852294922,
1401,142.20670954,0,3.62396240234375E-05,
1402,142.3084483,9,1.02582168579102,
1403,142.40988862,0,4.00543212890625E-05,
1404,142.5116032,-9,-1.02629661560059,
1405,142.6130292,0,3.814697265625E-05,
1406,142.71475752,9,1.02581024169922,
1407,142.81616846,0,4.1961669921875E-05,
1408,142.9179144,-9,-1.02617835998535,
1409,143.01933344,0,4.00543212890625E-05,
1410,143.12105022,9,1.0257511138916,
1411,143.22248128,0,3.814697265625E-05,
1412,143.32420552,-9,-1.02622032165527,
1413,143.42562476,0,4.00543212890625E-05,
1414,143.5273817,9,1.02569961547852,
1415,143.62880432,0,3.814697265625E-05,
1416,143.7305129,-9,-1.02620887756348,
1417,143.83195394,0,4.00543212890625E-05,
1418,143.93368788,9,1.02567100524902,
1419,144.03511876,0,3.62396240234375E-05,
1420,144.13683846,-9,-1.02617263793945,
1421,144.23825904,0,3.62396240234375E-05,
1422,144.34000218,9,1.02566909790039,
1423,144.44143564,0,3.62396240234375E-05,
1424,144.54314544,-9,-1.02617263793945,
1425,144.64457924,0,3.4332275390625E-05,
1426,144.74629428,9,1.02557373046875,
1427,144.84771592,0,4.00543212890625E-05,
1428,144.94944322,-9,-1.02615165710449,
1429,145.05086536,0,3.814697265625E-05,
1430,145.15257726,9,1.02528381347656,
1431,145.25401432,0,4.1961669921875E-05,
1432,145.35574206,-9,-1.02646446228027,
1433,145.45717654,0,3.62396240234375E-05,
1434,145.55890064,9,1.02548027038574,
1435,145.66032416,0,4.00543212890625E-05,
1436,145.76206042,-9,-1.02616310119629,
1437,145.8634901,0,3.814697265625E-05,
1438,145.9652058,9,1.0252799987793,
1439,146.06664002,0,4.00543212890625E-05,
1440,146.16835488,-9,-1.02614212036133,
1441,146.26977734,0,3.62396240234375E-05,
1442,146.371513,9,1.02488136291504,
1443,146.47293056,0,3.814697265625E-05,
1444,146.57466422,-9,-1.02625465393066,
1445,146.67609456,0,4.00543212890625E-05,
1446,146.77780428,9,1.02524948120117,
1447,146.87923542,0,3.814697265625E-05,
1448,146.98096874,-9,-1.02789688110352,
1449,147.08239212,0,3.814697265625E-05,
1450,147.18413848,9,1.02565002441406,
1451,147.28556858,0,4.1961669921875E-05,
1452,147.3872801,-9,-1.02626609802246,
1453,147.48871174,0,4.00543212890625E-05,
1454,147.59042268,9,1.02569770812988,
1455,147.69183528,0,4.38690185546875E-05,
1456,147.79356512,-9,-1.02538108825684,
1457,147.89497918,0,4.38690185546875E-05,
1458,147.99670428,9,1.02487564086914,
1459,148.09814122,0,4.00543212890625E-05,
1460,148.19986482,-9,-1.0262508392334,
1461,148.30128366,0,4.00543212890625E-05,
1462,148.40301242,9,1.02572059631348,
1463,148.50443046,0,4.38690185546875E-05,
1464,148.60615412,-9,-1.02626800537109,
1465,148.7075925,0,3.814697265625E-05,
1466,148.8092974,9,1.02536392211914,
1467,148.91072746,0,4.00543212890625E-05,
1468,149.01246136,-9,-1.02630996704102,
1469,149.11388022,0,4.00543212890625E-05,
1470,149.2156066,9,1.02536773681641,
1471,149.31702716,0,4.00543212890625E-05,
1472,149.41873866,-9,-1.02629280090332,
1473,149.52017644,0,4.38690185546875E-05,
1474,149.62190524,9,1.02540588378906,
1475,149.72331138,0,4.38690185546875E-05,
1476,149.82504976,-9,-1.02628326416016,
1477,149.92647264,0,4.00543212890625E-05,
1478,150.02820244,9,1.02552223205566,
1479,150.1296297,0,4.1961669921875E-05,
1480,150.2313547,-9,-1.02622604370117,
1481,150.33279822,0,4.00543212890625E-05,
1482,150.4345197,9,1.0252513885498,
1483,150.5359397,0,4.00543212890625E-05,
1484,150.63766974,-9,-1.02626800537109,
1485,150.73908892,0,3.814697265625E-05,
1486,150.84080358,9,1.02554512023926,
1487,150.94224478,0,3.814697265625E-05,
1488,151.04395932,-9,-1.02614212036133,
1489,151.14538356,0,3.62396240234375E-05,
1490,151.24711074,9,1.02482795715332,
1491,151.34853388,0,4.00543212890625E-05,
1492,151.45027702,-9,-1.02536201477051,
1493,151.55168914,0,3.24249267578125E-05,
1494,151.65341852,9,1.02478790283203,
1495,151.75484572,0,4.38690185546875E-05,
1496,151.85657386,-9,-1.02538871765137,
1497,151.95799892,0,4.1961669921875E-05,
1498,152.05973062,9,1.02467155456543,
1499,152.16115282,0,4.00543212890625E-05,
1500,152.26288344,-9,-1.02536964416504,
1501,152.3643165,0,3.814697265625E-05,
1502,152.46603262,9,1.02494049072266,
1503,152.56745066,0,4.57763671875E-05,
1504,152.66919074,-9,-1.02633857727051,
1505,152.77059874,0,4.38690185546875E-05,
1506,152.87233376,9,1.02502250671387,
1507,152.97376222,0,4.57763671875E-05,
1508,153.07547974,-9,-1.02611923217773,
1509,153.17691206,0,4.38690185546875E-05,
1510,153.27865416,9,1.02479553222656,
1511,153.3800659,0,4.38690185546875E-05,
1512,153.48178914,-9,-1.02628898620605,
1513,153.58320652,0,4.00543212890625E-05,
1514,153.68492584,9,1.02487945556641,
1515,153.78636976,0,4.00543212890625E-05,
1516,153.8880867,-9,-1.02629470825195,
1517,153.98949402,0,4.00543212890625E-05,
1518,154.0912238,9,1.02554512023926,
1519,154.1926429,0,4.1961669921875E-05,
1520,154.29437256,-9,-1.02530670166016,
1521,154.39580526,0,4.1961669921875E-05,
1522,154.497523,9,1.02440643310547,
1523,154.5989546,0,4.00543212890625E-05,
1524,154.70068966,-9,-1.02539253234863,
1525,154.80209742,0,4.1961669921875E-05,
1526,154.90383276,9,1.02482414245605,
1527,155.00525706,0,3.814697265625E-05,
1528,155.10697784,-9,-1.0258903503418,
1529,155.20843146,0,3.4332275390625E-05,
1530,155.3101448,9,1.02480125427246,
1531,155.41156104,0,3.814697265625E-05,
1532,155.51329802,-9,-1.02628135681152,
1533,155.61472044,0,3.814697265625E-05,
1534,155.71643444,9,1.0249195098877,
1535,155.81787088,0,4.1961669921875E-05,
1536,155.9195966,-9,-1.02642440795898,
1537,156.02102518,0,4.00543212890625E-05,
1538,156.12276002,9,1.02505302429199,
1539,156.22417592,0,4.1961669921875E-05,
1540,156.32590484,-9,-1.02638053894043,
1541,156.42733078,0,3.814697265625E-05,
1542,156.52906246,9,1.02552604675293,
1543,156.63049352,0,4.38690185546875E-05,
1544,156.73222402,-9,-1.02637672424316,
1545,156.83363598,0,4.1961669921875E-05,
1546,156.93538038,9,1.02507781982422,
1547,157.03679748,0,4.57763671875E-05,
1548,157.13851986,-9,-1.0263557434082,
1549,157.23994844,0,4.1961669921875E-05,
1550,157.3416746,9,1.02514457702637,
1551,157.44312064,0,3.814697265625E-05,
1552,157.54484494,-9,-1.02629852294922,
1553,157.6462627,0,4.00543212890625E-05,
1554,157.74800566,9,1.0250301361084,
1555,157.84941268,0,4.1961669921875E-05,
1556,157.95112696,-9,-1.02643775939941,
1557,158.05255844,0,4.00543212890625E-05,
1558,158.1542841,9,1.02523422241211,
1559,158.25571154,0,4.1961669921875E-05,
1560,158.35743406,-9,-1.02640724182129,
1561,158.45885232,0,4.1961669921875E-05,
1562,158.56056624,9,1.02566337585449,
1563,158.66199596,0,4.00543212890625E-05,
1564,158.76371064,-9,-1.02642440795898,
1565,158.86515528,0,4.1961669921875E-05,
1566,158.96688584,9,1.02597999572754,
1567,159.06830006,0,4.38690185546875E-05,
1568,159.17002884,-9,-1.02638626098633,
1569,159.27144214,0,4.57763671875E-05,
1570,159.37315386,9,1.02554321289063,
1571,159.47458702,0,4.57763671875E-05,
1572,159.57630572,-9,-1.02639579772949,
1573,159.67772498,0,4.1961669921875E-05,
1574,159.77946678,9,1.02507781982422,
1575,159.88087734,0,4.38690185546875E-05,
1576,159.98259302,-9,-1.02564430236816,
1577,160.08402516,0,4.00543212890625E-05,
1578,160.18574872,9,1.02461242675781,
1579,160.2871718,0,4.38690185546875E-05,
1580,160.38890664,-9,-1.02635192871094,
1581,160.49032052,0,3.62396240234375E-05,
1582,160.5920496,9,1.02522087097168,
1583,160.69347716,0,4.00543212890625E-05,
1584,160.79518798,-9,-1.02641105651855,
1585,160.89662346,0,4.1961669921875E-05,
1586,160.99835704,9,1.02552795410156,
1587,161.099777,0,4.38690185546875E-05,
1588,161.2015211,-9,-1.0255184173584,
1589,161.30294494,0,4.1961669921875E-05,
1590,161.40467552,9,1.0245246887207,
1591,161.5061013,0,4.38690185546875E-05,
1592,161.60782034,-9,-1.02549934387207,
1593,161.7092302,0,4.00543212890625E-05,
1594,161.81096156,9,1.02467727661133,
1595,161.9123783,0,4.38690185546875E-05,
1596,162.01414798,-9,-1.02548027038574,
1597,162.11557112,0,4.38690185546875E-05,
1598,162.2172915,9,1.02472877502441,
1599,162.31872172,0,4.1961669921875E-05,
1600,162.42046172,-9,-1.02557373046875,
1601,162.52189004,0,4.38690185546875E-05,
1602,162.62363434,9,1.02490997314453,
1603,162.7250657,0,4.1961669921875E-05,
1604,162.82679324,-9,-1.0255012512207,
1605,162.92822318,0,4.38690185546875E-05,
1606,163.02994304,9,1.02500534057617,
1607,163.1313635,0,4.38690185546875E-05,
1608,163.2331002,-9,-1.02544784545898,
1609,163.33451572,0,4.57763671875E-05,
1610,163.43625254,9,1.02494430541992,
1611,163.5376844,0,4.57763671875E-05,
1612,163.63941196,-9,-1.02620315551758,
1613,163.74083496,0,4.38690185546875E-05,
1614,163.8425623,9,1.02509307861328,
1615,163.94399302,0,4.38690185546875E-05,
1616,164.04573402,-9,-1.02646446228027,
1617,164.14716062,0,4.57763671875E-05,
1618,164.24889568,9,1.0253849029541,
1619,164.3503296,0,4.00543212890625E-05,
1620,164.4520511,-9,-1.02638053894043,
1621,164.5534692,0,4.00543212890625E-05,
1622,164.65521072,9,1.02523803710938,
1623,164.75661344,0,4.38690185546875E-05,
1624,164.8583461,-9,-1.02642440795898,
1625,164.95978438,0,4.38690185546875E-05,
1626,165.06149438,9,1.02519226074219,
1627,165.16292412,0,4.57763671875E-05,
1628,165.26467082,-9,-1.02604675292969,
1629,165.36608562,0,4.1961669921875E-05,
1630,165.46781532,9,1.02500915527344,
1631,165.56924368,0,4.38690185546875E-05,
1632,165.67096476,-9,-1.02592277526855,
1633,165.77239312,0,4.38690185546875E-05,
1634,165.87412188,9,1.02500534057617,
1635,165.97552558,0,4.57763671875E-05,
1636,166.07725896,-9,-1.02641105651855,
1637,166.1786774,0,4.1961669921875E-05,
1638,166.2803937,9,1.02515411376953,
1639,166.3818196,0,4.76837158203125E-05,
1640,166.48353158,-9,-1.02609062194824,
1641,166.58494754,0,4.76837158203125E-05,
1642,166.68669158,9,1.02484512329102,
1643,166.78810782,0,4.57763671875E-05,
1644,166.88983526,-9,-1.02639961242676,
1645,166.99126678,0,4.38690185546875E-05,
1646,167.09300586,9,1.02523231506348,
1647,167.19442976,0,5.14984130859375E-05,
1648,167.29615298,-9,-1.02640914916992,
1649,167.39756122,0,4.9591064453125E-05,
1650,167.49929644,9,1.02532958984375,
1651,167.60072322,0,4.76837158203125E-05,
1652,167.70245232,-9,-1.0263671875,
1653,167.80388192,0,4.38690185546875E-05,
1654,167.9056108,9,1.02500152587891,
1655,168.00702674,0,4.38690185546875E-05,
1656,168.10875646,-9,-1.02639007568359,
1657,168.21017908,0,4.38690185546875E-05,
1658,168.31189408,9,1.02544021606445,
1659,168.41332154,0,4.76837158203125E-05,
1660,168.51505476,-9,-1.0263671875,
1661,168.61647844,0,4.57763671875E-05,
1662,168.7182216,9,1.0252857208252,
1663,168.81963154,0,4.76837158203125E-05,
1664,168.92136846,-9,-1.02632713317871,
1665,169.02278964,0,4.1961669921875E-05,
1666,169.12451188,9,1.02528190612793,
1667,169.22595024,0,4.38690185546875E-05,
1668,169.32767992,-9,-1.02604866027832,
1669,169.42910576,0,4.76837158203125E-05,
1670,169.53083118,9,1.02477836608887,
1671,169.63226286,0,4.38690185546875E-05,
1672,169.73400388,-9,-1.02630996704102,
1673,169.83543352,0,4.38690185546875E-05,
1674,169.93716414,9,1.02513885498047,
1675,170.03859146,0,4.9591064453125E-05,
1676,170.14031574,-9,-1.02632331848145,
1677,170.24173544,0,4.38690185546875E-05,
1678,170.343458,9,1.0252799987793,
1679,170.44488256,0,4.57763671875E-05,
1680,170.54661536,-9,-1.02634811401367,
1681,170.64804966,0,4.76837158203125E-05,
1682,170.74975896,9,1.02503204345703,
1683,170.85117448,0,4.9591064453125E-05,
1684,170.95290792,-9,-1.02627372741699,
1685,171.05431756,0,4.57763671875E-05,
1686,171.15605484,9,1.02470207214355,
1687,171.25748042,0,4.76837158203125E-05,
1688,171.35920794,-9,-1.02637672424316,
1689,171.46065094,0,4.57763671875E-05,
1690,171.5623692,9,1.02528190612793,
1691,171.66378352,0,4.76837158203125E-05,
1692,171.76552138,-9,-1.02633857727051,
1693,171.86693918,0,4.76837158203125E-05,
1694,171.96865746,9,1.02514266967773,
1695,172.07009386,0,4.76837158203125E-05,
1696,172.17181328,-9,-1.02633094787598,
1697,172.27322184,0,4.57763671875E-05,
1698,172.3749443,9,1.02504539489746,
1699,172.47636918,0,4.57763671875E-05,
1700,172.57810266,-9,-1.02622222900391,
1701,172.6795345,0,4.1961669921875E-05,
1702,172.78124088,9,1.02503776550293,
1703,172.88266424,0,4.38690185546875E-05,
1704,172.98439734,-9,-1.02633285522461,
1705,173.08581428,0,4.57763671875E-05,
1706,173.18757682,9,1.02496147155762,
1707,173.28900424,0,4.76837158203125E-05,
1708,173.39071906,-9,-1.02626419067383,
1709,173.49215564,0,4.1961669921875E-05,
1710,173.59389336,9,1.02501678466797,
1711,173.69530344,0,4.57763671875E-05,
1712,173.79702832,-9,-1.02626609802246,
1713,173.89844804,0,4.9591064453125E-05,
1714,174.00016464,9,1.02470779418945,
1715,174.1015976,0,4.57763671875E-05,
1716,174.20331594,-9,-1.0262336730957,
1717,174.30471932,0,4.57763671875E-05,
1718,174.4064496,9,1.0249137878418,
1719,174.5078762,0,4.38690185546875E-05,
1720,174.60961762,-9,-1.02618980407715,
1721,174.71105468,0,4.1961669921875E-05,
1722,174.8127698,9,1.02492713928223,
1723,174.91419884,0,4.57763671875E-05,
1724,175.01592526,-9,-1.02626800537109,
1725,175.11734198,0,4.57763671875E-05,
1726,175.21907498,9,1.02477645874023,
1727,175.32048748,0,4.76837158203125E-05,
1728,175.4222183,-9,-1.02618026733398,
1729,175.52364662,0,4.76837158203125E-05,
1730,175.62536594,9,1.02522277832031,
1731,175.7267783,0,5.14984130859375E-05,
1732,175.8285079,-9,-1.02611923217773,
1733,175.92992704,0,4.57763671875E-05,
1734,176.03166174,9,1.02481842041016,
1735,176.13308584,0,4.76837158203125E-05,
1736,176.23481626,-9,-1.02627563476563,
1737,176.33623884,0,4.76837158203125E-05,
1738,176.43797762,9,1.02510833740234,
1739,176.53939838,0,4.76837158203125E-05,
1740,176.64111952,-9,-1.0262622833252,
1741,176.7425582,0,4.38690185546875E-05,
1742,176.8442838,9,1.02486038208008,
1743,176.94570826,0,4.9591064453125E-05,
1744,177.04741526,-9,-1.02623748779297,
1745,177.14883952,0,4.76837158203125E-05,
1746,177.2505767,9,1.02463722229004,
1747,177.35197562,0,5.53131103515625E-05,
1748,177.45370626,-9,-1.02632904052734,
1749,177.5551228,0,5.14984130859375E-05,
1750,177.65685438,9,1.02487754821777,
1751,177.75829266,0,5.14984130859375E-05,
1752,177.86002118,-9,-1.02633094787598,
1753,177.96143512,0,4.57763671875E-05,
1754,178.06324042,9,1.02475357055664,
1755,178.16465612,0,5.340576171875E-05,
1756,178.26636534,-9,-1.02799224853516,
1757,178.36778968,0,4.76837158203125E-05,
1758,178.46951928,9,1.02570724487305,
1759,178.57092344,0,5.340576171875E-05,
1760,178.67265902,-9,-1.02675437927246,
1761,178.77406216,0,5.7220458984375E-05,
1762,178.87579358,9,1.02567672729492,
1763,178.97722622,0,5.14984130859375E-05,
1764,179.07894288,-9,-1.02632713317871,
1765,179.18035944,0,4.9591064453125E-05,
1766,179.28208882,9,1.02596473693848,
1767,179.38350622,0,5.14984130859375E-05,
1768,179.48524772,-9,-1.02634620666504,
1769,179.58666528,0,5.14984130859375E-05,
1770,179.68838036,9,1.02531242370605,
1771,179.7897994,0,5.14984130859375E-05,
1772,179.89153762,-9,-1.02631187438965,
1773,179.99293766,0,4.9591064453125E-05,
1774,180.09468082,9,1.02488136291504,
1775,180.19610476,0,5.14984130859375E-05,
1776,180.29782782,-9,-1.02639961242676,
1777,180.3992591,0,4.76837158203125E-05,
1778,180.50100328,9,1.0251407623291,
1779,180.60242076,0,4.9591064453125E-05,
1780,180.70415714,-9,-1.02639389038086,
1781,180.80557186,0,4.9591064453125E-05,
1782,180.90729308,9,1.02511405944824,
1783,181.00873124,0,5.14984130859375E-05,
1784,181.11047442,-9,-1.02557373046875,
1785,181.21189458,0,4.9591064453125E-05,
1786,181.31363148,9,1.02404403686523,
1787,181.41504896,0,5.14984130859375E-05,
1788,181.51678628,-9,-1.02630996704102,
1789,181.61819964,0,5.340576171875E-05,
1790,181.71992878,9,1.02525520324707,
1791,181.82135182,0,5.14984130859375E-05,
1792,181.9230861,-9,-1.02634620666504,
1793,182.02450686,0,5.340576171875E-05,
1794,182.12622892,9,1.02525329589844,
1795,182.22764216,0,5.14984130859375E-05,
1796,182.32936636,-9,-1.02615737915039,
1797,182.43079194,0,4.76837158203125E-05,
1798,182.53253098,9,1.02469635009766,
1799,182.63395364,0,5.340576171875E-05,
1800,182.73567498,-9,-1.02628898620605,
1801,182.83709098,0,5.14984130859375E-05,
1802,182.938816,9,1.0251350402832,
1803,183.04022234,0,4.9591064453125E-05,
1804,183.14197216,-9,-1.02631950378418,
1805,183.24340188,0,5.14984130859375E-05,
1806,183.3451127,9,1.02506446838379,
1807,183.44654406,0,4.76837158203125E-05,
1808,183.54827344,-9,-1.02633285522461,
1809,183.64968976,0,4.76837158203125E-05,
1810,183.75142198,9,1.02495765686035,
1811,183.85284602,0,4.9591064453125E-05,
1812,183.95456476,-9,-1.0262336730957,
1813,184.05599392,0,4.57763671875E-05,
1814,184.15772386,9,1.02479934692383,
1815,184.25912852,0,5.14984130859375E-05,
1816,184.36085448,-9,-1.02630805969238,
1817,184.4622842,0,4.57763671875E-05,
1818,184.56399768,9,1.02510452270508,
1819,184.66542892,0,4.57763671875E-05,
1820,184.76716444,-9,-1.02626419067383,
1821,184.86858932,0,4.57763671875E-05,
1822,184.97031864,9,1.02462196350098,
1823,185.07174664,0,4.57763671875E-05,
1824,185.1734688,-9,-1.02636337280273,
1825,185.27490466,0,4.9591064453125E-05,
1826,185.37663792,9,1.0250244140625,
1827,185.4780486,0,4.76837158203125E-05,
1828,185.5797815,-9,-1.02632904052734,
1829,185.68119374,0,4.76837158203125E-05,
1830,185.78289876,9,1.02536582946777,
1831,185.88432442,0,4.76837158203125E-05,
1832,185.98603224,-9,-1.02632904052734,
1833,186.08745086,0,4.57763671875E-05,
1834,186.18918484,9,1.02471923828125,
1835,186.2905883,0,5.14984130859375E-05,
1836,186.3923143,-9,-1.02629852294922,
1837,186.49374882,0,4.9591064453125E-05,
1838,186.59545718,9,1.02578163146973,
1839,186.69689212,0,4.9591064453125E-05,
1840,186.79862168,-9,-1.02630805969238,
1841,186.90003024,0,4.9591064453125E-05,
1842,187.00177842,9,1.02534866333008,
1843,187.1031957,0,5.340576171875E-05,
1844,187.20491112,-9,-1.02633094787598,
1845,187.30633528,0,4.9591064453125E-05,
1846,187.40805828,9,1.02518844604492,
1847,187.50948534,0,4.57763671875E-05,
1848,187.61121666,-9,-1.02632713317871,
1849,187.71263572,0,4.38690185546875E-05,
1850,187.81435962,9,1.02519035339355,
1851,187.91579006,0,5.14984130859375E-05,
1852,188.01752074,-9,-1.02631568908691,
1853,188.11895634,0,4.57763671875E-05,
1854,188.2207,9,1.02486991882324,
1855,188.32211082,0,5.53131103515625E-05,
1856,188.42384996,-9,-1.02633285522461,
1857,188.52527446,0,4.76837158203125E-05,
1858,188.62699866,9,1.02526664733887,
1859,188.72842152,0,5.14984130859375E-05,
1860,188.83013992,-9,-1.02635192871094,
1861,188.93155704,0,4.57763671875E-05,
1862,189.03329404,9,1.02533721923828,
1863,189.13471598,0,4.9591064453125E-05,
1864,189.23643458,-9,-1.02633285522461,
1865,189.33787292,0,4.57763671875E-05,
1866,189.43961004,9,1.02508163452148,
1867,189.5410397,0,4.9591064453125E-05,
1868,189.64278692,-9,-1.02622413635254,
1869,189.74420112,0,4.76837158203125E-05,
1870,189.84592324,9,1.02477836608887,
1871,189.94734652,0,4.9591064453125E-05,
1872,190.04907396,-9,-1.02627754211426,
1873,190.15050524,0,4.57763671875E-05,
1874,190.2522335,9,1.0252857208252,
1875,190.3536437,0,5.14984130859375E-05,
1876,190.45537994,-9,-1.0262622833252,
1877,190.55678876,0,4.76837158203125E-05,
1878,190.65852198,9,1.0250186920166,
1879,190.75996084,0,4.76837158203125E-05,
1880,190.86166958,-9,-1.02623558044434,
1881,190.9630947,0,4.57763671875E-05,
1882,191.06482592,9,1.02495193481445,
1883,191.16623782,0,4.76837158203125E-05,
1884,191.26798264,-9,-1.02645874023438,
1885,191.36940568,0,4.76837158203125E-05,
1886,191.47112674,9,1.02497863769531,
1887,191.57255736,0,4.76837158203125E-05,
1888,191.67429706,-9,-1.02622985839844,
1889,191.77570168,0,4.57763671875E-05,
1890,191.8774502,9,1.02481079101563,
1891,191.9788756,0,4.38690185546875E-05,
1892,192.08060346,-9,-1.02634429931641,
1893,192.18203472,0,4.76837158203125E-05,
1894,192.28374654,9,1.02496910095215,
1895,192.38516394,0,4.76837158203125E-05,
1896,192.48689666,-9,-1.02561378479004,
1897,192.58830796,0,4.9591064453125E-05,
1898,192.69004496,9,1.02460670471191,
1899,192.79147142,0,4.76837158203125E-05,
1900,192.89319264,-9,-1.02648735046387,
1901,192.99461614,0,4.76837158203125E-05,
1902,193.09636574,9,1.0252571105957,
1903,193.1977734,0,4.9591064453125E-05,
1904,193.29950802,-9,-1.02641105651855,
1905,193.40093364,0,4.76837158203125E-05,
1906,193.50264064,9,1.0251350402832,
1907,193.60407394,0,4.9591064453125E-05,
1908,193.70580478,-9,-1.02571678161621,
1909,193.80721374,0,4.9591064453125E-05,
1910,193.90895192,9,1.02450370788574,
1911,194.0103711,0,4.76837158203125E-05,
1912,194.11209902,-9,-1.0257625579834,
1913,194.21352334,0,5.14984130859375E-05,
1914,194.315243,9,1.02477645874023,
1915,194.41666666,0,5.14984130859375E-05,
1916,194.51839044,-9,-1.02646064758301,
1917,194.61982006,0,4.76837158203125E-05,
1918,194.7215707,9,1.02543640136719,
1919,194.82296884,0,5.340576171875E-05,
1920,194.92468588,-9,-1.02670669555664,
1921,195.02612324,0,4.76837158203125E-05,
1922,195.1278464,9,1.02583503723145,
1923,195.22926872,0,4.9591064453125E-05,
1924,195.33100504,-9,-1.0265941619873,
1925,195.43242126,0,4.9591064453125E-05,
1926,195.53415838,9,1.0257511138916,
1927,195.635578,0,4.9591064453125E-05,
1928,195.73729734,-9,-1.02668571472168,
1929,195.83872568,0,4.57763671875E-05,
1930,195.94045124,9,1.02565002441406,
1931,196.04186718,0,4.76837158203125E-05,
1932,196.14360628,-9,-1.0266227722168,
1933,196.24500274,0,5.340576171875E-05,
1934,196.3467316,9,1.02560997009277,
1935,196.44816342,0,5.14984130859375E-05,
1936,196.5498693,-9,-1.02655792236328,
1937,196.65130892,0,4.57763671875E-05,
1938,196.75303438,9,1.02524566650391,
1939,196.8544339,0,4.9591064453125E-05,
1940,196.95617562,-9,-1.02660369873047,
1941,197.0575927,0,4.76837158203125E-05,
1942,197.1593142,9,1.02559280395508,
1943,197.26073742,0,4.9591064453125E-05,
1944,197.36245118,-9,-1.02662086486816,
1945,197.46385618,0,5.14984130859375E-05,
1946,197.56558866,9,1.02597427368164,
1947,197.667002,0,4.9591064453125E-05,
1948,197.76871294,-9,-1.02660369873047,
1949,197.87014276,0,4.9591064453125E-05,
1950,197.9718568,9,1.02557563781738,
1951,198.0732839,0,4.9591064453125E-05,
1952,198.17502388,-9,-1.02658653259277,
1953,198.27643244,0,5.14984130859375E-05,
1954,198.37817062,9,1.02562522888184,
1955,198.47959762,0,4.9591064453125E-05,
1956,198.58131394,-9,-1.02656555175781,
1957,198.68273506,0,5.53131103515625E-05,
1958,198.7844467,9,1.02554893493652,
1959,198.88585822,0,5.14984130859375E-05,
1960,198.98761252,-9,-1.02655601501465,
1961,199.089045,0,4.9591064453125E-05,
1962,199.19075314,9,1.0255184173584,
1963,199.29218918,0,5.14984130859375E-05,
1964,199.3939269,-9,-1.02652359008789,
1965,199.49533642,0,4.9591064453125E-05,
1966,199.59706662,9,1.02539253234863,
1967,199.69848602,0,4.9591064453125E-05,
1968,199.80021868,-9,-1.02644348144531,
1969,199.90164148,0,4.76837158203125E-05,
1970,200.003358,9,1.02548408508301,
1971,200.10478548,0,5.14984130859375E-05,
1972,200.20650458,-9,-1.02846908569336,
1973,200.30791576,0,5.340576171875E-05,
1974,200.40965956,9,1.02610015869141,
1975,200.51106988,0,5.14984130859375E-05,
1976,200.6127953,-9,-1.02786827087402,
1977,200.71422542,0,4.9591064453125E-05,
1978,200.81593712,9,1.02609634399414,
1979,200.91735946,0,5.53131103515625E-05,
1980,201.01910664,-9,-1.02646446228027,
1981,201.12052752,0,5.14984130859375E-05,
1982,201.22226934,9,1.02532577514648,
1983,201.32369146,0,5.14984130859375E-05,
1984,201.4254178,-9,-1.02646064758301,
1985,201.52684238,0,5.14984130859375E-05,
1986,201.62856404,9,1.02508735656738,
1987,201.72997016,0,4.9591064453125E-05,
1988,201.83172234,-9,-1.0264949798584,
1989,201.93312972,0,5.14984130859375E-05,
1990,202.03486878,9,1.02522659301758,
1991,202.13630302,0,4.76837158203125E-05,
1992,202.23800666,-9,-1.02596855163574,
1993,202.33944624,0,5.14984130859375E-05,
1994,202.44118494,9,1.02493476867676,
1995,202.54259338,0,4.76837158203125E-05,
1996,202.64432826,-9,-1.02620506286621,
1997,202.74575272,0,4.9591064453125E-05,
1998,202.84746908,9,1.0249080657959,
1999,202.94889402,0,4.76837158203125E-05,
2000,203.0506275,-9,-1.02572441101074,
