-50,-1.56451
-48.5458,-1.18065
-47.0916,-2.33223
-45.6373,-0.029059
-44.1831,1.12252
-42.7289,1.50639
-41.2747,3.04183
-39.8205,2.27411
-38.3662,0.354802
-36.912,-0.796782
-35.4578,-2.33223
-34.0036,-3.48381
-32.5494,-3.09995
-31.0952,-2.33223
-29.6409,2.27411
-28.1867,6.88045
-26.7325,5.72887
-25.2783,3.80956
-23.8241,6.49659
-22.3698,12.2545
-20.9156,15.7093
-19.4614,17.6286
-18.0072,23.0027
-16.553,22.6187
-15.0987,22.6187
-13.6445,24.5381
-12.1903,34.5185
-10.7361,62.9243
-9.28187,23.0027
-7.82765,23.0027
-6.37343,23.0027
-4.91921,23.0027
-3.46499,23.0027
-2.01077,23.0027
-0.556553,23.0027
0.897666,23.0027
2.35189,23.0027
3.8061,332.011
5.26032,67.9144
6.71454,60.2372
8.16876,60.2372
9.62298,54.8632
11.0772,47.5698
12.5314,42.9634
13.9856,42.1957
15.4399,36.4378
16.8941,31.8314
18.3483,25.3058
19.8025,21.4672
21.2567,22.6187
22.711,16.0931
24.1652,14.5577
25.6194,12.2545
27.0736,11.8707
28.5278,11.1029
29.982,13.4061
31.4363,11.8707
32.8905,8.03203
34.3447,8.03203
35.7989,7.64818
37.2531,6.49659
38.7074,5.345
40.1616,6.88045
41.6158,14.5577
43.07,21.0833
44.5242,35.2862
45.9785,61.3888
47.4327,107.068
48.8869,196.892
50.3411,341.992
51.7953,494.001
53.2495,659.446
54.7038,854.832
56.158,1007.23
57.6122,1142.34
59.0664,1249.06
60.5206,1304.34
61.9749,1348.47
63.4291,1391.47
64.8833,1420.64
66.3375,1462.87
67.7917,1483.98
69.246,1497.03
70.7002,1499.72
72.1544,1518.53
73.6086,1536.95
75.0628,1546.55
76.5171,1566.89
77.9713,1623.32
79.4255,1655.18
80.8797,1666.7
82.3339,1670.54
83.7882,1648.65
85.2424,1624.48
86.6966,1582.25
88.1508,1523.9
89.605,1454.8
91.0592,1402.6
92.5135,1348.47
93.9677,1264.03
95.4219,1202.61
96.8761,1220.26
98.3303,1184.18
99.7846,1146.18
101.239,1130.45
102.693,1121.23
104.147,1112.79
105.601,1063.27
107.056,1053.29
108.51,1051.37
109.964,1038.32
111.418,1045.23
112.873,1029.87
114.327,1017.97
115.781,1007.61
117.235,971.525
118.689,951.566
120.144,932.752
121.598,916.246
123.052,911.256
124.506,872.873
125.961,849.46
127.415,809.535
128.869,785.352
130.323,776.523
131.777,761.169
133.232,763.472
134.686,741.208
136.14,718.944
137.594,703.206
139.048,690.922
140.503,693.225
141.957,699.367
143.411,697.448
144.865,676.335
146.32,631.04
147.774,633.727
149.228,640.252
150.682,641.404
152.136,640.252
153.591,627.969
155.045,616.069
156.499,608.008
157.953,600.331
159.408,594.573
160.862,574.612
162.316,578.45
163.77,582.289
165.224,581.521
166.679,574.612
168.133,567.702
169.587,577.683
171.041,569.238
172.496,560.025
173.95,565.783
175.404,543.135
176.858,553.115
178.312,554.267
179.767,556.187
181.221,570.389
182.675,560.409
184.129,524.71
185.583,521.255
187.038,533.155
188.492,539.68
189.946,522.407
191.4,517.032
192.855,517.8
194.309,518.952
195.763,518.952
197.217,526.629
198.671,525.478
200.126,529.316
201.58,529.316
203.034,517.417
204.488,495.537
205.943,503.213
207.397,518.568
208.851,525.478
210.305,528.932
211.759,525.861
213.214,526.246
214.668,527.013
216.122,520.103
217.576,515.881
219.031,507.052
220.485,527.397
221.939,519.72
223.393,513.194
224.847,522.407
226.302,537.761
227.756,521.639
229.21,522.791
230.664,532.771
232.118,527.781
233.573,508.204
235.027,519.72
236.481,512.042
237.935,503.598
239.39,498.991
240.844,493.617
242.298,499.375
243.752,496.304
245.206,498.223
246.661,504.365
248.115,502.446
249.569,505.133
251.023,492.082
252.478,494.001
253.932,495.152
255.386,484.02
256.84,498.991
258.294,489.011
259.749,482.101
261.203,477.879
262.657,477.495
264.111,481.333
265.566,488.243
267.02,470.201
268.474,453.311
269.928,456.767
271.382,480.565
272.837,467.898
274.291,459.07
275.745,455.999
277.199,460.989
278.654,460.989
280.108,454.463
281.562,436.806
283.016,436.806
284.47,442.18
285.925,427.593
287.379,434.502
288.833,431.816
290.287,429.513
291.741,429.513
293.196,426.441
294.65,412.238
296.104,415.309
297.558,418.38
299.013,421.451
300.467,422.219
301.921,399.955
303.375,394.581
304.829,403.793
306.284,403.41
307.738,394.581
309.192,396.116
310.646,389.591
312.101,392.661
313.555,388.823
315.009,382.297
316.463,379.226
317.917,381.529
319.372,387.287
320.826,376.923
322.28,369.63
323.734,375.388
325.189,373.468
326.643,360.417
328.097,361.952
329.551,369.63
331.005,373.468
332.46,374.236
333.914,370.013
335.368,371.165
336.822,370.781
338.276,367.71
339.731,368.095
341.185,360.801
342.639,373.852
344.093,385.752
345.548,376.156
347.002,352.356
348.456,379.994
349.91,361.569
351.364,354.275
352.819,351.972
354.273,354.659
355.727,364.64
357.181,361.952
358.636,358.114
360.09,366.943
361.544,366.559
362.998,343.527
364.452,344.679
365.907,353.508
367.361,343.911
368.815,348.901
370.269,363.488
371.724,361.952
373.178,347.365
374.632,350.437
376.086,348.517
377.54,345.83
378.995,348.133
380.449,354.275
381.903,337.001
383.357,320.496
384.811,330.476
386.266,354.275
387.72,352.74
389.174,352.74
390.628,348.517
392.083,347.365
393.537,354.659
394.991,366.943
396.445,347.365
397.899,338.921
399.354,343.527
400.808,348.901
402.262,345.83
403.716,328.94
405.171,337.769
406.625,352.356
408.079,351.205
409.533,343.144
410.987,345.447
412.442,351.205
413.896,351.205
415.35,345.83
416.804,340.84
418.259,339.689
419.713,345.83
421.167,343.144
422.621,344.679
424.075,340.84
425.53,337.001
426.984,337.386
428.438,343.911
429.892,349.669
431.346,346.598
432.801,350.053
434.255,353.891
435.709,349.285
437.163,344.295
438.618,337.769
440.072,332.779
441.526,331.628
442.98,336.234
444.434,346.982
445.889,331.243
447.343,326.637
448.797,336.234
450.251,340.072
451.706,332.779
453.16,330.476
454.614,346.214
456.068,346.598
457.522,342.376
458.977,336.234
460.431,332.011
461.885,347.75
463.339,356.962
464.794,353.508
466.248,339.304
467.702,327.789
469.156,344.679
470.61,341.608
472.065,341.224
473.519,340.456
474.973,340.456
476.427,339.689
477.882,338.537
479.336,345.83
480.79,341.608
482.244,340.072
483.698,338.921
485.153,337.769
486.607,343.527
488.061,338.921
489.515,335.85
490.969,330.86
492.424,324.334
493.878,321.264
495.332,325.102
496.786,328.173
498.241,330.476
499.695,327.021
501.149,325.102
502.603,326.253
504.057,336.618
505.512,325.102
506.966,324.334
508.42,332.779
509.874,338.537
511.329,326.637
512.783,330.092
514.237,333.931
515.691,333.931
517.145,328.173
518.6,325.87
520.054,327.405
521.508,326.253
522.962,337.769
524.417,328.557
525.871,323.95
527.325,333.931
528.779,336.234
530.233,345.062
531.688,331.243
533.142,323.95
534.596,323.95
536.05,322.799
537.505,339.304
538.959,322.799
540.413,318.192
541.867,326.637
543.321,331.243
544.776,331.628
546.23,310.515
547.684,312.435
549.138,326.253
550.592,324.718
552.047,320.879
553.501,326.637
554.955,325.486
556.409,329.325
557.864,325.87
559.318,319.344
560.772,323.182
562.226,329.325
563.68,314.738
565.135,316.273
566.589,320.879
568.043,318.192
569.497,322.031
570.952,332.395
572.406,322.799
573.86,333.931
575.314,336.234
576.768,336.618
578.223,335.466
579.677,333.547
581.131,326.637
582.585,318.96
584.039,317.808
585.494,322.031
586.948,332.011
588.402,334.698
589.856,319.344
591.311,329.708
592.765,332.395
594.219,326.637
595.673,327.789
597.127,327.021
598.582,323.182
600.036,329.708
601.49,327.789
602.944,335.85
604.399,339.689
605.853,330.86
607.307,314.738
608.761,320.111
610.215,323.182
611.67,325.486
613.124,328.557
614.578,330.092
616.032,331.243
617.487,335.85
618.941,331.628
620.395,333.931
621.849,329.325
623.303,329.325
624.758,341.224
626.212,351.588
627.666,351.972
629.12,327.405
630.575,328.94
632.029,336.234
633.483,340.072
634.937,338.537
636.391,343.527
637.846,334.698
639.3,326.637
640.754,328.557
642.208,337.769
643.662,337.001
645.117,341.992
646.571,333.931
648.025,333.931
649.479,345.83
650.934,346.982
652.388,335.466
653.842,336.618
655.296,343.144
656.75,333.163
658.205,335.466
659.659,342.759
661.113,350.053
662.567,348.517
664.022,345.447
665.476,351.205
666.93,353.123
668.384,357.73
669.838,353.891
671.293,348.517
672.747,364.64
674.201,353.123
675.655,353.123
677.109,347.75
678.564,341.992
680.018,353.891
681.472,360.801
682.926,361.569
684.381,361.952
685.835,351.972
687.289,353.891
688.743,355.427
690.198,363.488
691.652,353.508
693.106,348.517
694.56,352.74
696.014,356.579
697.469,349.669
698.923,351.588
700.377,370.781
701.831,354.275
703.285,362.337
704.74,359.266
706.194,356.579
707.648,354.275
709.102,351.205
710.557,357.346
712.011,348.133
713.465,356.194
714.919,366.943
716.373,364.255
717.828,354.659
719.282,364.255
720.736,372.316
722.19,363.872
723.645,365.023
725.099,363.104
726.553,361.185
728.007,363.104
729.461,364.64
730.916,366.559
732.37,366.559
733.824,363.488
735.278,356.962
736.732,358.114
738.187,360.034
739.641,368.862
741.095,369.63
742.549,358.498
744.004,356.579
745.458,360.417
746.912,365.407
748.366,353.123
749.82,371.549
751.275,355.043
752.729,351.588
754.183,354.275
755.637,355.811
757.092,359.266
758.546,348.133
760,361.185
761.454,351.972
762.908,361.952
764.363,358.498
765.817,355.811
767.271,363.872
768.725,354.659
770.18,368.478
771.634,366.559
773.088,358.882
774.542,355.427
775.996,357.73
777.451,363.104
778.905,365.023
780.359,383.832
781.813,373.852
783.268,375.004
784.722,379.994
786.176,385.368
787.63,365.023
789.084,370.781
790.539,381.914
791.993,370.781
793.447,367.327
794.901,371.933
796.355,375.771
797.81,371.933
799.264,376.923
800.718,386.903
802.172,380.378
803.627,379.61
805.081,391.126
806.535,397.268
807.989,381.914
809.443,384.217
810.898,382.297
812.352,384.984
813.806,379.61
815.26,375.771
816.715,378.459
818.169,373.852
819.623,373.468
821.077,383.832
822.531,373.468
823.986,382.297
825.44,393.813
826.894,397.268
828.348,391.126
829.802,404.177
831.257,395.732
832.711,405.713
834.165,404.177
835.619,400.722
837.074,397.652
838.528,414.541
839.982,414.541
841.436,391.894
842.891,386.52
844.345,395.349
845.799,408.783
847.253,416.077
848.707,409.168
850.162,387.287
851.616,426.441
853.07,418.38
854.524,410.319
855.978,420.683
857.433,436.422
858.887,426.441
860.341,411.854
861.795,411.471
863.25,408.783
864.704,393.429
866.158,397.268
867.612,398.036
869.066,398.036
870.521,411.854
871.975,404.945
873.429,406.097
874.883,398.419
876.338,398.036
877.792,401.874
879.246,400.722
880.7,402.258
882.154,402.642
883.609,413.006
885.063,409.551
886.517,412.238
887.971,416.461
889.425,417.996
890.88,409.168
892.334,411.086
893.788,406.865
895.242,423.37
896.697,425.29
898.151,422.987
899.605,413.006
901.059,413.39
902.513,412.622
903.968,412.622
905.422,427.209
906.876,424.138
908.33,429.513
909.785,429.128
911.239,424.906
912.693,420.3
914.147,429.896
915.601,422.987
917.056,421.451
918.51,429.896
919.964,416.461
921.418,424.906
922.873,434.886
924.327,429.896
925.781,422.603
927.235,442.947
928.689,424.522
930.144,429.896
931.598,437.189
933.052,439.492
934.506,434.502
935.961,419.147
937.415,428.361
938.869,437.574
940.323,440.644
941.777,434.119
943.232,432.967
944.686,442.18
946.14,439.109
947.594,433.734
949.048,434.886
950.503,429.513
951.957,422.603
953.411,424.138
954.865,418.38
956.32,415.309
957.774,427.977
959.228,437.189
960.682,446.786
962.136,459.837
963.591,443.331
965.045,445.25
966.499,444.099
967.953,433.734
969.408,429.128
970.862,436.806
972.316,444.867
973.77,446.786
975.224,428.745
976.679,434.886
978.133,442.18
979.587,437.574
981.041,435.654
982.495,453.696
983.95,449.473
985.404,441.028
986.858,444.099
988.312,452.928
989.767,459.07
991.221,459.453
992.675,453.696
994.129,459.453
995.583,447.938
997.038,456.767
998.492,470.586
999.946,473.656
1001.4,464.06
1002.85,457.15
1004.31,462.525
1005.76,469.818
1007.22,474.04
1008.67,478.647
1010.13,477.495
1011.58,473.656
1013.03,467.131
1014.49,476.727
1015.94,486.324
1017.4,489.779
1018.85,479.03
1020.31,492.082
1021.76,507.82
1023.21,502.83
1024.67,494.769
1026.12,507.436
1027.58,504.365
1029.03,503.213
1030.48,516.265
1031.94,506.284
1033.39,511.274
1034.85,533.539
1036.3,517.417
1037.76,522.023
1039.21,536.61
1040.66,542.368
1042.12,552.348
1043.57,546.206
1045.03,565.783
1046.48,567.702
1047.94,557.338
1049.39,566.167
1050.84,565.783
1052.3,574.995
1053.75,593.805
1055.21,593.421
1056.66,588.815
1058.11,588.047
1059.57,601.098
1061.02,604.169
1062.48,605.321
1063.93,613.382
1065.39,622.594
1066.84,622.211
1068.29,639.868
1069.75,642.556
1071.2,657.526
1072.66,646.778
1074.11,653.688
1075.57,671.729
1077.02,665.587
1078.47,656.375
1079.93,668.274
1081.38,675.951
1082.84,680.174
1084.29,687.851
1085.75,681.709
1087.2,674.8
1088.65,673.265
1090.11,675.183
1091.56,674.8
1093.02,684.396
1094.47,681.709
1095.92,679.022
1097.38,675.951
1098.83,669.425
1100.29,667.507
1101.74,667.507
1103.2,658.294
1104.65,656.758
1106.1,640.252
1107.56,636.03
1109.01,636.413
1110.47,642.939
1111.92,637.949
1113.38,633.727
1114.83,642.556
1116.28,638.716
1117.74,636.03
1119.19,632.959
1120.65,624.514
1122.1,618.373
1123.55,629.504
1125.01,634.495
1126.46,622.594
1127.92,612.614
1129.37,613.382
1130.83,609.927
1132.28,614.15
1133.73,612.998
1135.19,635.262
1136.64,617.22
1138.1,627.969
1139.55,614.917
1141.01,604.553
1142.46,598.411
1143.91,594.957
1145.37,595.725
1146.82,603.401
1148.28,600.714
1149.73,598.795
1151.18,603.401
1152.64,614.917
1154.09,609.544
1155.55,600.714
1157,611.462
1158.46,616.837
1159.91,606.856
1161.36,632.575
1162.82,617.988
1164.27,613.765
1165.73,609.544
1167.18,603.786
1168.64,603.401
1170.09,608.776
1171.54,604.553
1173,604.553
1174.45,609.544
1175.91,600.331
1177.36,611.462
1178.82,610.695
1180.27,611.847
1181.72,618.373
1183.18,617.605
1184.63,618.373
1186.09,638.716
1187.54,627.969
1188.99,631.423
1190.45,626.049
1191.9,635.646
1193.36,623.746
1194.81,624.514
1196.27,622.979
1197.72,617.605
1199.17,629.12
1200.63,633.727
1202.08,642.939
1203.54,636.413
1204.99,646.778
1206.45,636.03
1207.9,631.04
1209.35,644.091
1210.81,647.929
1212.26,640.252
1213.72,638.333
1215.17,657.91
1216.62,655.607
1218.08,643.707
1219.53,655.991
1220.99,651
1222.44,653.688
1223.9,659.446
1225.35,662.9
1226.8,662.132
1228.26,665.587
1229.71,677.871
1231.17,682.093
1232.62,689.387
1234.08,653.688
1235.53,677.871
1236.98,682.093
1238.44,669.042
1239.89,667.507
1241.35,682.861
1242.8,701.67
1244.25,708.963
1245.71,702.438
1247.16,683.244
1248.62,720.096
1250.07,730.076
1251.53,715.873
1252.98,728.925
1254.43,745.047
1255.89,733.914
1257.34,744.279
1258.8,771.916
1260.25,758.482
1261.71,754.259
1263.16,772.684
1264.61,756.946
1266.07,789.191
1267.52,803.777
1268.98,814.912
1270.43,829.492
1271.89,849.842
1273.34,863.275
1274.79,862.893
1276.25,900.513
1277.7,880.163
1279.16,908.574
1280.61,929.68
1282.06,945.04
1283.52,969.225
1284.97,996.093
1286.43,1031.79
1287.88,1059.43
1289.34,1049.45
1290.79,1075.17
1292.24,1118.54
1293.7,1196.85
1295.15,1200.69
1296.61,1232.55
1298.06,1272.47
1299.52,1321.99
1300.97,1367.29
1302.42,1409.12
1303.88,1467.86
1305.33,1545.01
1306.79,1562.67
1308.24,1664.01
1309.69,1715.45
1311.15,1811.41
1312.6,1895.87
1314.06,1984.92
1315.51,2067.83
1316.97,2141.53
1318.42,2211.78
1319.87,2285.1
1321.33,2387.59
1322.78,2485.48
1324.24,2518.87
1325.69,2620.98
1327.15,2629.81
1328.6,2629.81
1330.05,2644.01
1331.51,2663.59
1332.96,2659.37
1334.42,2630.96
1335.87,2596.41
1337.32,2563.4
1338.78,2493.92
1340.23,2416.38
1341.69,2363.79
1343.14,2283.95
1344.6,2164.56
1346.05,2103.91
1347.5,2009.49
1348.96,1940.39
1350.41,1864.77
1351.87,1791.83
1353.32,1743.85
1354.78,1649.04
1356.23,1576.88
1357.68,1507.39
1359.14,1477.45
1360.59,1401.83
1362.05,1317
1363.5,1260.57
1364.96,1241
1366.41,1223.34
1367.86,1184.57
1369.32,1151.17
1370.77,1133.13
1372.23,1112.4
1373.68,1072.09
1375.13,1049.84
1376.59,1041
1378.04,1020.66
1379.5,1000.7
1380.95,982.277
1382.41,978.051
1383.86,959.627
1385.31,958.091
1386.77,960.009
1388.22,943.886
1389.68,940.432
1391.13,919.7
1392.59,893.987
1394.04,909.338
1395.49,927.762
1396.95,908.956
1398.4,913.174
1399.86,901.277
1401.31,895.523
1402.76,884.771
1404.22,882.089
1405.67,902.813
1407.13,880.553
1408.58,896.287
1410.04,885.153
1411.49,893.987
1412.94,877.481
1414.4,888.607
1415.85,879.017
1417.31,888.607
1418.76,893.987
1420.22,896.287
1421.67,891.297
1423.12,889.761
1424.58,912.792
1426.03,885.153
1427.49,898.205
1428.94,913.174
1430.4,910.11
1431.85,892.069
1433.3,912.028
1434.76,934.288
1436.21,926.616
1437.67,916.246
1439.12,929.68
1440.57,932.37
1442.03,928.534
1443.48,951.566
1444.94,955.783
1446.39,947.34
1447.85,975.361
1449.3,956.174
1450.75,1015.67
1452.21,1005.31
1453.66,996.857
1455.12,1004.15
1456.57,1025.27
1458.03,1022.2
1459.48,1023.73
1460.93,1031.4
1462.39,1043.31
1463.84,1055.97
1465.3,1067.88
1466.75,1066.72
1468.2,1103.57
1469.66,1112.79
1471.11,1125.46
1472.57,1146.57
1474.02,1151.17
1475.48,1158.85
1476.93,1195.31
1478.38,1203.76
1479.84,1211.06
1481.29,1236.77
1482.75,1250.59
1484.2,1270.17
1485.66,1296.27
1487.11,1323.91
1488.56,1355.77
1490.02,1377.65
1491.47,1373.04
1492.93,1400.3
1494.38,1435.23
1495.83,1493.58
1497.29,1524.29
1498.74,1553.85
1500.2,1596.07
1501.65,1635.6
1503.11,1708.15
1504.56,1743.85
1506.01,1803.35
1507.47,1845.58
1508.92,1915.05
1510.38,1985.3
1511.83,2057.47
1513.29,2138.46
1514.74,2242.11
1516.19,2334.24
1517.65,2458.22
1519.1,2598.72
1520.56,2759.56
1522.01,2923.08
1523.46,3106.18
1524.92,3308.86
1526.37,3514.22
1527.83,3715.75
1529.28,4040.11
1530.74,4335.69
1532.19,4713.02
1533.64,5137.58
1535.1,5579.79
1536.55,6058.84
1538.01,6547.88
1539.46,7129.43
1540.92,7748.6
1542.37,8396.59
1543.82,9102.08
1545.28,9853.33
1546.73,10619.1
1548.19,11367.7
1549.64,12216.4
1551.1,12950.7
1552.55,13728
1554,14515.7
1555.46,15282.6
1556.91,15934.1
1558.37,16630.4
1559.82,16997.7
1561.27,17183.2
1562.73,17317.9
1564.18,17360.9
1565.64,17148.2
1567.09,16641.9
1568.55,16111.4
1570,15429.3
1571.45,14607.9
1572.91,13690
1574.36,12733.8
1575.82,11820.2
1577.27,10773
1578.73,9989.21
1580.18,9208.79
1581.63,8429.18
1583.09,7774.7
1584.54,7188.16
1586,6600.85
1587.45,6104.91
1588.9,5689.57
1590.36,5272.7
1591.81,4953.71
1593.27,4611.68
1594.72,4364.48
1596.18,4161.8
1597.63,3929.18
1599.08,3781.78
1600.54,3577.56
1601.99,3354.92
1603.45,3242.06
1604.9,3097.35
1606.36,2911.94
1607.81,2781.43
1609.26,2648.62
1610.72,2524.63
1612.17,2412.54
1613.63,2275.5
1615.08,2173.78
1616.54,2090.1
1617.99,1994.14
1619.44,1904.69
1620.9,1805.66
1622.35,1764.2
1623.81,1713.15
1625.26,1649.43
1626.71,1556.15
1628.17,1522.75
1629.62,1483.6
1631.08,1442.14
1632.53,1401.45
1633.99,1376.5
1635.44,1359.22
1636.89,1331.59
1638.35,1291.28
1639.8,1242.91
1641.26,1225.25
1642.71,1224.11
1644.17,1201.08
1645.62,1156.16
1647.07,1156.16
1648.53,1124.68
1649.98,1107.02
1651.44,1086.68
1652.89,1094.74
1654.34,1064.42
1655.8,1063.27
1657.25,1043.31
1658.71,1042.92
1660.16,1021.42
1661.62,997.628
1663.07,968.453
1664.52,961.545
1665.98,961.545
1667.43,946.576
1668.89,946.958
1670.34,935.06
1671.8,926.226
1673.25,903.585
1674.7,903.585
1676.16,884.389
1677.61,888.607
1679.07,865.575
1680.52,882.089
1681.97,887.843
1683.43,862.121
1684.88,834.1
1686.34,825.656
1687.79,839.09
1689.25,831.028
1690.7,817.976
1692.15,806.465
1693.61,790.726
1695.06,802.242
1696.52,813.376
1697.97,804.161
1699.43,784.2
1700.88,780.745
1702.33,774.988
1703.79,795.332
1705.24,774.22
1706.7,765.007
1708.15,786.888
1709.6,774.604
1711.06,746.198
1712.51,758.482
1713.97,768.078
1715.42,758.482
1716.88,760.401
1718.33,761.552
1719.78,748.501
1721.24,741.976
1722.69,749.269
1724.15,756.562
1725.6,750.42
1727.06,750.037
1728.51,761.937
1729.96,761.169
1731.42,754.259
1732.87,755.411
1734.33,765.007
1735.78,748.501
1737.24,745.43
1738.69,755.027
1740.14,743.895
1741.6,722.015
1743.05,720.479
1744.51,734.682
1745.96,742.359
1747.41,722.782
1748.87,715.873
1750.32,713.57
1751.78,715.873
1753.23,705.892
1754.69,704.741
1756.14,710.883
1757.59,703.206
1759.05,698.983
1760.5,694.761
1761.96,686.7
1763.41,705.125
1764.87,700.902
1766.32,667.89
1767.77,681.326
1769.23,684.78
1770.68,685.932
1772.14,674.032
1773.59,689.003
1775.04,671.345
1776.5,667.507
1777.95,656.375
1779.41,651.768
1780.86,669.042
1782.32,655.991
1783.77,660.213
1785.22,652.536
1786.68,657.143
1788.13,668.658
1789.59,671.345
1791.04,672.497
1792.5,659.061
1793.95,654.839
1795.4,664.819
1796.86,660.213
1798.31,629.888
1799.77,635.262
1801.22,641.788
1802.68,630.655
1804.13,647.929
1805.58,650.617
1807.04,657.526
1808.49,650.617
1809.95,636.413
1811.4,654.071
1812.85,656.758
1814.31,644.474
1815.76,668.658
1817.22,634.495
1818.67,637.565
1820.13,662.132
1821.58,650.233
1823.03,652.92
1824.49,654.455
1825.94,664.436
1827.4,644.091
1828.85,647.162
1830.31,642.556
1831.76,643.707
1833.21,651
1834.67,669.425
1836.12,652.152
1837.58,657.526
1839.03,675.568
1840.48,656.758
1841.94,660.213
1843.39,667.122
1844.85,680.942
1846.3,679.022
1847.76,681.326
1849.21,690.155
1850.66,680.558
1852.12,676.719
1853.57,691.69
1855.03,680.558
1856.48,659.829
1857.94,690.922
1859.39,690.155
1860.84,702.822
1862.3,709.731
1863.75,695.528
1865.21,704.357
1866.66,718.56
1868.11,688.619
1869.57,691.306
1871.02,708.58
1872.48,684.396
1873.93,675.568
1875.39,674.032
1876.84,672.113
1878.29,667.122
1879.75,666.355
1881.2,667.122
1882.66,654.071
1884.11,660.213
1885.57,667.507
1887.02,651.385
1888.47,645.626
1889.93,645.242
1891.38,634.878
1892.84,633.343
1894.29,642.171
1895.75,638.333
1897.2,620.676
1898.65,618.756
1900.11,623.362
1901.56,612.998
1903.02,619.14
1904.47,623.746
1905.92,604.937
1907.38,594.957
1908.83,606.089
1910.29,613.382
1911.74,629.888
1913.2,616.453
1914.65,605.321
1916.1,591.118
1917.56,589.199
1919.01,600.331
1920.47,596.876
1921.92,609.544
1923.38,600.714
1924.83,594.573
1926.28,597.26
1927.74,607.624
1929.19,615.301
1930.65,616.069
1932.1,602.634
1933.55,606.472
1935.01,614.533
1936.46,607.24
1937.92,600.331
1939.37,611.079
1940.83,606.856
1942.28,612.614
1943.73,615.685
1945.19,611.079
1946.64,608.776
1948.1,612.23
1949.55,606.089
1951.01,605.704
1952.46,606.472
1953.91,602.25
1955.37,597.26
1956.82,605.704
1958.28,608.776
1959.73,616.453
1961.18,632.191
1962.64,631.04
1964.09,617.605
1965.55,615.685
1967,612.998
1968.46,605.704
1969.91,617.988
1971.36,642.556
1972.82,642.556
1974.27,643.323
1975.73,636.03
1977.18,636.03
1978.64,630.655
1980.09,628.352
1981.54,625.666
1983,632.575
1984.45,634.495
1985.91,638.333
1987.36,651.768
1988.82,635.646
1990.27,643.323
1991.72,631.423
1993.18,629.12
1994.63,632.191
1996.09,626.049
1997.54,645.626
1998.99,647.162
2000.45,649.081
2001.9,653.688
2003.36,630.272
2004.81,634.11
2006.27,623.746
2007.72,638.333
2009.17,634.878
2010.63,637.949
2012.08,649.081
2013.54,631.423
2014.99,611.847
2016.45,606.856
2017.9,620.676
2019.35,622.979
2020.81,599.179
2022.26,614.917
2023.72,615.301
2025.17,588.047
2026.62,591.118
2028.08,607.24
2029.53,627.585
2030.99,618.756
2032.44,598.795
2033.9,592.653
2035.35,601.482
2036.8,596.108
2038.26,574.612
2039.71,589.582
2041.17,577.299
2042.62,583.441
2044.08,589.199
2045.53,594.189
2046.98,591.885
2048.44,575.763
2049.89,583.056
2051.35,578.45
2052.8,569.238
2054.25,563.864
2055.71,565.783
2057.16,565.399
2058.62,560.793
2060.07,556.955
2061.53,568.086
2062.98,569.622
2064.43,561.945
2065.89,563.096
2067.34,555.803
2068.8,553.883
2070.25,546.59
2071.71,551.964
2073.16,548.893
2074.61,552.732
2076.07,543.135
2077.52,540.832
2078.98,561.945
2080.43,564.248
2081.89,556.57
2083.34,544.671
2084.79,537.377
2086.25,528.932
2087.7,537.377
2089.16,545.054
2090.61,544.671
2092.06,538.145
2093.52,543.519
2094.97,539.68
2096.43,531.619
2097.88,543.903
2099.34,552.732
2100.79,552.732
2102.24,545.822
2103.7,551.964
2105.15,547.741
2106.61,533.922
2108.06,545.822
2109.52,540.065
2110.97,529.7
2112.42,525.861
2113.88,536.993
2115.33,540.448
2116.79,536.993
2118.24,546.974
2119.69,565.783
2121.15,558.106
2122.6,538.145
2124.06,541.216
2125.51,551.196
2126.97,551.196
2128.42,534.69
2129.87,539.68
2131.33,554.651
2132.78,549.661
2134.24,541.216
2135.69,552.348
2137.15,555.803
2138.6,564.248
2140.05,567.319
2141.51,546.206
2142.96,546.59
2144.42,566.167
2145.87,559.258
2147.32,559.258
2148.78,566.167
2150.23,558.106
2151.69,562.713
2153.14,579.986
2154.6,570.006
2156.05,569.622
2157.5,566.934
2158.96,575.763
2160.41,562.713
2161.87,560.409
2163.32,558.49
2164.78,557.722
2166.23,560.409
2167.68,570.389
2169.14,576.147
2170.59,577.299
2172.05,576.531
2173.5,589.199
2174.96,573.844
2176.41,588.815
2177.86,603.786
2179.32,605.321
2180.77,597.26
2182.23,594.573
2183.68,606.472
2185.13,596.876
2186.59,584.209
2188.04,601.098
2189.5,583.441
2190.95,570.006
2192.41,594.957
2193.86,581.521
2195.31,588.431
2196.77,605.321
2198.22,594.189
2199.68,596.876
2201.13,596.876
2202.59,586.896
2204.04,593.805
2205.49,600.331
2206.95,586.511
2208.4,603.401
2209.86,594.957
2211.31,585.36
2212.76,595.725
2214.22,604.553
2215.67,599.179
2217.13,592.27
2218.58,585.36
2220.04,602.25
2221.49,596.492
2222.94,611.079
2224.4,604.169
2225.85,612.998
2227.31,624.13
2228.76,599.946
2230.22,584.976
2231.67,599.946
2233.12,598.795
2234.58,610.695
2236.03,614.15
2237.49,617.22
2238.94,604.937
2240.4,597.643
2241.85,600.331
2243.3,606.089
2244.76,606.472
2246.21,611.847
2247.67,623.362
2249.12,620.291
2250.57,609.544
2252.03,614.533
2253.48,630.655
2254.94,621.443
2256.39,622.594
2257.85,634.878
2259.3,623.362
2260.75,632.191
2262.21,625.666
2263.66,619.524
2265.12,620.291
2266.57,626.049
2268.03,628.737
2269.48,613.382
2270.93,628.352
2272.39,632.959
2273.84,633.727
2275.3,626.817
2276.75,646.394
2278.2,651
2279.66,654.839
2281.11,648.697
2282.57,657.526
2284.02,637.565
2285.48,656.758
2286.93,637.181
2288.38,638.716
2289.84,654.455
2291.29,659.446
2292.75,648.313
2294.2,660.597
2295.66,674.416
2297.11,683.629
2298.56,683.244
2300.02,676.719
2301.47,695.528
2302.93,690.155
2304.38,682.861
2305.83,663.668
2307.29,674.416
2308.74,686.315
2310.2,682.861
2311.65,687.083
2313.11,703.974
2314.56,711.267
2316.01,717.409
2317.47,693.225
2318.92,701.67
2320.38,715.105
2321.83,723.55
2323.29,728.54
2324.74,720.479
2326.19,720.096
2327.65,723.55
2329.1,722.782
2330.56,715.873
2332.01,735.066
2333.47,733.531
2334.92,740.44
2336.37,728.925
2337.83,736.218
2339.28,727.389
2340.74,739.672
2342.19,743.511
2343.64,750.037
2345.1,755.794
2346.55,761.552
2348.01,756.179
2349.46,757.714
2350.92,774.22
2352.37,770.381
2353.82,781.897
2355.28,797.252
2356.73,803.01
2358.19,787.271
2359.64,789.958
2361.1,791.11
2362.55,814.912
2364,829.11
2365.46,826.428
2366.91,846.006
2368.37,867.111
2369.82,855.986
2371.27,859.821
2372.73,882.089
2374.18,877.481
2375.64,905.502
2377.09,900.122
2378.55,918.936
2380,938.896
2381.45,956.174
2382.91,948.875
2384.36,963.463
2385.82,983.041
2387.27,1004.15
2388.73,1025.65
2390.18,1071.71
2391.63,1075.17
2393.09,1060.2
2394.54,1100.89
2396,1113.17
2397.45,1125.84
2398.9,1165.38
2400.36,1171.9
2401.81,1193.78
2403.27,1216.43
2404.72,1252.51
2406.18,1246.37
2407.63,1275.92
2409.08,1303.18
2410.54,1312.01
2411.99,1322.76
2413.45,1344.26
2414.9,1347.33
2416.36,1366.51
2417.81,1382.26
2419.26,1396.07
2420.72,1417.58
2422.17,1381.1
2423.63,1425.63
2425.08,1421.79
2426.53,1431.39
2427.99,1431.01
2429.44,1423.71
2430.9,1407.98
2432.35,1406.06
2433.81,1398.76
2435.26,1411.05
2436.71,1398
2438.17,1390.32
2439.62,1404.91
2441.08,1399.14
2442.53,1386.86
2443.99,1369.98
2445.44,1371.12
2446.89,1337.73
2448.35,1322.38
2449.8,1299.73
2451.26,1311.24
2452.71,1310.86
2454.17,1305.1
2455.62,1279
2457.07,1273.24
2458.53,1312.01
2459.98,1307.02
2461.44,1264.41
2462.89,1249.82
2464.34,1255.2
2465.8,1256.74
2467.25,1249.82
2468.71,1242.53
2470.16,1255.58
2471.62,1234.09
2473.07,1206.83
2474.52,1196.85
2475.98,1203.38
2477.43,1201.08
2478.89,1199.16
2480.34,1190.71
2481.8,1199.16
2483.25,1218.35
2484.7,1231.78
2486.16,1212.59
2487.61,1191.1
2489.07,1167.67
2490.52,1200.69
2491.97,1191.48
2493.43,1200.3
2494.88,1186.87
2496.34,1216.05
2497.79,1213.36
2499.25,1220.65
2500.7,1231.02
2502.15,1227.56
2503.61,1222.95
2505.06,1215.66
2506.52,1226.41
2507.97,1237.16
2509.43,1245.6
2510.88,1236.39
2512.33,1265.94
2513.79,1267.86
2515.24,1272.85
2516.7,1267.86
2518.15,1287.44
2519.6,1299.35
2521.06,1280.91
2522.51,1307.79
2523.97,1335.04
2525.42,1323.52
2526.88,1344.26
2528.33,1365.75
2529.78,1371.12
2531.24,1371.12
2532.69,1371.51
2534.15,1389.55
2535.6,1429.09
2537.06,1439.45
2538.51,1460.95
2539.96,1480.53
2541.42,1482.44
2542.87,1469.39
2544.33,1519.68
2545.78,1554.99
2547.24,1548.47
2548.69,1585.32
2550.14,1597.22
2551.6,1626.01
2553.05,1653.26
2554.51,1657.49
2555.96,1708.54
2557.41,1737.71
2558.87,1774.95
2560.32,1827.54
2561.78,1855.56
2563.23,1865.15
2564.69,1893.18
2566.14,1914.67
2567.59,1961.89
2569.05,2017.93
2570.5,2056.7
2571.96,2110.06
2573.41,2169.55
2574.87,2230.2
2576.32,2222.14
2577.77,2311.97
2579.23,2393.35
2580.68,2447.48
2582.14,2505.05
2583.59,2556.11
2585.04,2601.4
2586.5,2686.62
2587.95,2791.03
2589.41,2891.6
2590.86,2953.41
2592.32,3051.68
2593.77,3153.39
2595.22,3246.67
2596.68,3378.33
2598.13,3500.02
2599.59,3617.1
2601.04,3787.92
2602.5,3875.44
2603.95,4018.62
2605.4,4174.47
2606.86,4342.98
2608.31,4469.66
2609.77,4654.29
2611.22,4842.01
2612.68,5045.06
2614.13,5226.63
2615.58,5458.87
2617.04,5704.16
2618.49,5927.95
2619.95,6143.29
2621.4,6382.05
2622.85,6685.31
2624.31,6880.31
2625.76,7189.32
2627.22,7433.45
2628.67,7676.43
2630.13,8012.7
2631.58,8305.97
2633.03,8527.84
2634.49,8860.31
2635.94,9077.54
2637.4,9389.2
2638.85,9729.31
2640.31,9915.09
2641.76,10144.7
2643.21,10362.3
2644.67,10577.3
2646.12,10830.3
2647.58,11014.9
2649.03,11142.3
2650.48,11247.9
2651.94,11409.1
2653.39,11445.2
2654.85,11560.7
2656.3,11660.6
2657.76,11596.8
2659.21,11613
2660.66,11619
2662.12,11469.8
2663.57,11403
2665.03,11338.8
2666.48,11151.5
2667.94,10969.5
2669.39,10707.1
2670.84,10526.2
2672.3,10332
2673.75,10081
2675.21,9876
2676.66,9651.37
2678.11,9408.38
2679.57,9021.46
2681.02,8767.01
2682.48,8414.22
2683.93,8200.81
2685.39,7918.27
2686.84,7611.95
2688.29,7271.85
2689.75,7007.37
2691.2,6735.98
2692.66,6411.23
2694.11,6226.2
2695.57,5932.94
2697.02,5697.24
2698.47,5428.93
2699.93,5230.47
2701.38,4984.8
2702.84,4815.13
2704.29,4604.01
2705.75,4397.11
2707.2,4204.02
2708.65,4037.04
2710.11,3883.5
2711.56,3717.67
2713.02,3574.87
2714.47,3493.88
2715.92,3306.17
2717.38,3204.06
2718.83,3099.66
2720.29,2986.8
2721.74,2879.32
2723.2,2797.94
2724.65,2659.75
2726.1,2573.77
2727.56,2497.76
2729.01,2447.09
2730.47,2359.95
2731.92,2300.83
2733.38,2230.59
2734.83,2127.33
2736.28,2084.73
2737.74,2047.11
2739.19,2025.23
2740.65,1958.82
2742.1,1889.34
2743.55,1839.43
2745.01,1838.29
2746.46,1788.77
2747.92,1747.31
2749.37,1675.91
2750.83,1707.77
2752.28,1619.1
2753.73,1621.79
2755.19,1581.48
2756.64,1529.66
2758.1,1505.48
2759.55,1491.27
2761.01,1480.14
2762.46,1434.85
2763.91,1384.56
2765.37,1388.4
2766.82,1387.25
2768.28,1347.33
2769.73,1328.9
2771.18,1312.78
2772.64,1299.35
2774.09,1265.18
2775.55,1282.45
2777,1252.51
2778.46,1234.47
2779.91,1206.45
2781.36,1216.05
2782.82,1204.91
2784.27,1202.22
2785.73,1188.41
2787.18,1183.8
2788.64,1136.97
2790.09,1131.98
2791.54,1140.81
2793,1125.07
2794.45,1110.87
2795.91,1075.55
2797.36,1072.48
2798.82,1072.09
2800.27,1095.13
2801.72,1074.01
2803.18,1037.93
2804.63,1072.48
2806.09,1049.84
2807.54,1039.47
2808.99,1037.17
2810.45,1019.51
2811.9,1003
2813.36,996.857
2814.81,1024.5
2816.27,998.783
2817.72,980.351
2819.17,988.413
2820.63,989.185
2822.08,972.289
2823.54,956.174
2824.99,963.845
2826.45,961.545
2827.9,946.576
2829.35,955.401
2830.81,946.958
2832.26,988.413
2833.72,945.04
2835.17,933.906
2836.62,952.329
2838.08,941.968
2839.53,928.152
2840.99,941.204
2842.44,944.268
2843.9,933.524
2845.35,926.616
2846.8,938.132
2848.26,930.07
2849.71,914.328
2851.17,923.544
2852.62,936.596
2854.08,908.184
2855.53,897.441
2856.98,900.122
2858.44,907.802
2859.89,901.277
2861.35,910.874
2862.8,925.08
2864.25,910.874
2865.71,930.07
2867.16,915.1
2868.62,900.895
2870.07,897.059
2871.53,891.679
2872.98,915.1
2874.43,937.36
2875.89,900.122
2877.34,901.659
2878.8,915.1
2880.25,918.554
2881.71,922.39
2883.16,917.4
2884.61,902.431
2886.07,906.648
2887.52,904.73
2888.98,898.205
2890.43,922.008
2891.89,944.268
2893.34,924.69
2894.79,920.854
2896.25,917.018
2897.7,936.596
2899.16,928.534
2900.61,921.626
2902.06,916.246
2903.52,917.4
2904.97,895.133
2906.43,903.966
2907.88,913.564
2909.34,900.513
2910.79,901.659
2912.24,887.843
2913.7,870.573
2915.15,887.843
2916.61,874.409
2918.06,860.203
2919.52,865.575
2920.97,861.357
2922.42,847.534
2923.88,851.76
2925.33,835.636
2926.79,835.254
2928.24,832.564
2929.69,825.274
2931.15,837.944
2932.6,812.986
2934.06,830.646
2935.51,813.376
2936.97,798.404
2938.42,791.878
2939.87,778.442
2941.33,757.714
2942.78,763.855
2944.24,781.897
2945.69,764.623
2947.15,756.179
2948.6,739.672
2950.05,735.066
2951.51,732.763
2952.96,700.902
2954.42,695.145
2955.87,719.712
2957.32,694.761
2958.78,691.306
2960.23,681.709
2961.69,698.983
2963.14,684.012
2964.6,664.436
2966.05,657.526
2967.5,649.081
2968.96,669.81
2970.41,660.213
2971.87,675.951
2973.32,665.971
2974.78,652.92
2976.23,644.091
2977.68,631.807
2979.14,629.888
2980.59,648.313
2982.05,633.727
2983.5,623.362
2984.96,633.343
2986.41,619.14
2987.86,625.282
2989.32,627.585
2990.77,603.786
2992.23,634.495
2993.68,600.331
2995.13,611.079
2996.59,608.392
2998.04,621.443
2999.5,607.624
3000.95,604.937
3002.41,604.937
3003.86,600.714
3005.31,603.786
3006.77,597.26
3008.22,596.876
3009.68,586.511
3011.13,581.521
3012.59,577.683
3014.04,586.128
3015.49,586.896
3016.95,603.018
3018.4,591.885
3019.86,578.835
3021.31,592.27
3022.76,595.725
3024.22,571.541
3025.67,580.37
3027.13,582.673
3028.58,574.612
3030.04,596.876
3031.49,569.238
3032.94,571.541
3034.4,579.218
3035.85,580.37
3037.31,571.157
3038.76,566.167
3040.22,570.006
3041.67,582.289
3043.12,568.854
3044.58,571.925
3046.03,583.824
3047.49,577.683
3048.94,561.177
3050.4,587.279
3051.85,573.46
3053.3,577.299
3054.76,566.551
3056.21,581.138
3057.67,597.643
3059.12,576.531
3060.57,575.763
3062.03,608.776
3063.48,589.199
3064.94,587.664
3066.39,589.199
3067.85,597.643
3069.3,586.511
3070.75,584.976
3072.21,603.786
3073.66,602.25
3075.12,595.34
3076.57,604.169
3078.03,615.685
3079.48,598.411
3080.93,614.533
3082.39,605.321
3083.84,603.018
3085.3,584.209
3086.75,624.13
3088.2,613.765
3089.66,623.746
3091.11,650.617
3092.57,635.646
3094.02,627.201
3095.48,647.929
3096.93,665.587
3098.38,650.233
3099.84,655.607
3101.29,680.558
3102.75,681.326
3104.2,659.829
3105.66,674.416
3107.11,741.208
3108.56,706.66
3110.02,710.115
3111.47,739.672
3112.93,746.198
3114.38,753.108
3115.83,766.159
3117.29,768.078
3118.74,769.998
3120.2,781.129
3121.65,781.129
3123.11,788.423
3124.56,815.294
3126.01,786.503
3127.47,813.758
3128.92,835.254
3130.38,841.78
3131.83,864.429
3133.29,855.596
3134.74,850.606
3136.19,877.091
3137.65,869.037
3139.1,867.111
3140.56,867.883
3142.01,862.511
3143.47,865.575
3144.92,868.265
3146.37,874.027
3147.83,901.277
3149.28,859.821
3150.74,892.833
3152.19,921.236
3153.64,920.09
3155.1,890.915
3156.55,908.184
3158.01,872.101
3159.46,889.761
3160.92,907.802
3162.37,912.792
3163.82,929.68
3165.28,924.308
3166.73,931.606
3168.19,946.194
3169.64,966.535
3171.1,954.638
3172.55,956.174
3174,966.535
3175.46,969.607
3176.91,991.485
3178.37,1019.12
3179.82,994.175
3181.27,1031.02
3182.73,1042.16
3184.18,1048.3
3185.64,1072.48
3187.09,1091.29
3188.55,1104.34
3190,1103.57
3191.45,1112.4
3192.91,1126.22
3194.36,1122
3195.82,1120.08
3197.27,1135.05
3198.73,1140.43
3200.18,1130.45
3201.63,1134.66
3203.09,1122.38
3204.54,1141.19
3206,1126.6
3207.45,1105.5
3208.9,1088.6
3210.36,1092.44
3211.81,1084.76
3213.27,1058.66
3214.72,1037.93
3216.18,1032.94
3217.63,994.175
3219.08,977.279
3220.54,954.247
3221.99,919.318
3223.45,898.205
3224.9,866.347
3226.36,855.986
3227.81,864.429
3229.26,818.366
3230.72,803.393
3232.17,773.068
3233.63,758.482
3235.08,745.43
3236.53,705.892
3237.99,707.812
3239.44,665.587
3240.9,659.829
3242.35,652.92
3243.81,652.152
3245.26,630.655
3246.71,610.311
3248.17,598.795
3249.62,609.927
3251.08,593.805
3252.53,577.683
3253.99,578.45
3255.44,566.934
3256.89,554.651
3258.35,563.864
3259.8,551.58
3261.26,537.761
3262.71,529.316
3264.17,535.074
3265.62,527.397
3267.07,516.649
3268.53,519.72
3269.98,508.588
3271.44,503.598
3272.89,522.407
3274.34,521.639
3275.8,493.617
3277.25,491.314
3278.71,490.162
3280.16,489.011
3281.62,489.779
3283.07,490.93
3284.52,481.333
3285.98,492.082
3287.43,477.111
3288.89,479.03
3290.34,480.565
3291.8,461.757
3293.25,474.808
3294.7,499.759
3296.16,485.172
3297.61,480.182
3299.07,474.424
3300.52,488.243
3301.97,484.788
3303.43,464.443
3304.88,477.111
3306.34,480.182
3307.79,471.737
3309.25,489.779
3310.7,464.443
3312.15,475.576
3313.61,466.746
3315.06,465.595
3316.52,469.818
3317.97,455.999
3319.43,473.656
3320.88,471.737
3322.33,464.443
3323.79,466.746
3325.24,471.737
3326.7,474.424
3328.15,462.525
3329.6,462.525
3331.06,469.818
3332.51,467.514
3333.97,467.131
3335.42,478.647
3336.88,441.028
3338.33,472.889
3339.78,458.302
3341.24,453.696
3342.69,457.918
3344.15,464.828
3345.6,464.828
3347.06,461.757
3348.51,469.818
3349.96,447.553
3351.42,457.918
3352.87,447.553
3354.33,454.847
3355.78,459.837
3357.24,464.443
3358.69,462.14
3360.14,454.079
3361.6,467.898
3363.05,452.928
3364.51,453.696
3365.96,462.14
3367.41,464.06
3368.87,454.079
3370.32,452.928
3371.78,442.947
3373.23,448.321
3374.69,459.453
3376.14,467.514
3377.59,456.767
3379.05,446.402
3380.5,442.563
3381.96,452.928
3383.41,454.847
3384.87,440.26
3386.32,445.25
3387.77,462.14
3389.23,451.776
3390.68,460.605
3392.14,445.25
3393.59,457.15
3395.04,488.627
3396.5,457.534
3397.95,451.009
3399.41,455.231
3400.86,444.867
3402.32,457.918
3403.77,464.443
3405.22,449.089
3406.68,440.26
3408.13,446.402
3409.59,456.767
3411.04,462.525
3412.5,446.018
3413.95,444.483
3415.4,442.563
3416.86,441.028
3418.31,458.685
3419.77,447.938
3421.22,457.534
3422.68,456.767
3424.13,420.683
3425.58,460.605
3427.04,452.544
3428.49,452.544
3429.95,444.483
3431.4,453.311
3432.85,446.786
3434.31,434.502
3435.76,452.16
3437.22,453.696
3438.67,441.412
3440.13,448.321
3441.58,423.755
3443.03,439.109
3444.49,449.473
3445.94,437.189
3447.4,427.593
3448.85,453.696
3450.31,430.664
3451.76,452.16
3453.21,451.392
3454.67,460.605
3456.12,437.957
3457.58,463.292
3459.03,445.635
3460.48,464.443
3461.94,457.15
3463.39,451.776
3464.85,453.311
3466.3,438.341
3467.76,435.654
3469.21,436.806
3470.66,451.009
3472.12,446.018
3473.57,445.25
3475.03,439.877
3476.48,441.412
3477.94,453.311
3479.39,462.908
3480.84,440.26
3482.3,441.412
3483.75,451.776
3485.21,447.17
3486.66,435.27
3488.11,451.009
3489.57,444.099
3491.02,441.412
3492.48,458.685
3493.93,450.241
3495.39,439.877
3496.84,452.16
3498.29,452.16
3499.75,445.635
3501.2,439.877
3502.66,447.17
3504.11,440.26
3505.57,434.886
3507.02,452.928
3508.47,450.241
3509.93,452.544
3511.38,451.776
3512.84,444.867
3514.29,436.038
3515.75,455.615
3517.2,446.786
3518.65,454.463
3520.11,463.676
3521.56,445.25
3523.02,442.18
3524.47,448.705
3525.92,442.563
3527.38,442.947
3528.83,456.382
3530.29,451.009
3531.74,451.776
3533.2,461.373
3534.65,457.534
3536.1,462.908
3537.56,445.25
3539.01,432.583
3540.47,454.847
3541.92,453.696
3543.38,432.583
3544.83,432.583
3546.28,443.715
3547.74,445.25
3549.19,453.696
3550.65,464.828
3552.1,440.26
3553.55,451.392
3555.01,453.696
3556.46,449.856
3557.92,449.473
3559.37,429.128
3560.83,447.553
3562.28,445.25
3563.73,434.119
3565.19,437.189
3566.64,427.977
3568.1,430.28
3569.55,436.422
3571.01,440.644
3572.46,441.795
3573.91,437.574
3575.37,432.967
3576.82,439.877
3578.28,446.786
3579.73,449.856
3581.18,454.079
3582.64,449.856
3584.09,433.351
3585.55,446.402
3587,452.544
3588.46,432.967
3589.91,438.341
3591.36,436.038
3592.82,436.422
3594.27,432.583
3595.73,452.16
3597.18,449.856
3598.64,456.382
3600.09,452.928
3601.54,457.15
3603,452.928
3604.45,446.402
3605.91,435.654
3607.36,449.856
3608.82,447.938
3610.27,440.644
3611.72,452.928
3613.18,428.361
3614.63,453.311
3616.09,443.715
3617.54,451.776
3618.99,454.079
3620.45,467.131
3621.9,439.492
3623.36,448.705
3624.81,449.089
3626.27,449.089
3627.72,455.615
3629.17,443.331
3630.63,460.605
3632.08,439.877
3633.54,445.635
3634.99,453.311
3636.45,451.392
3637.9,444.867
3639.35,447.17
3640.81,441.412
3642.26,453.696
3643.72,441.028
3645.17,432.199
3646.62,441.028
3648.08,454.463
3649.53,444.483
3650.99,462.908
3652.44,452.928
3653.9,439.877
3655.35,446.402
3656.8,450.241
3658.26,458.302
3659.71,470.969
3661.17,450.624
3662.62,449.089
3664.08,446.786
3665.53,461.757
3666.98,441.412
3668.44,448.705
3669.89,459.453
3671.35,459.453
3672.8,455.231
3674.25,447.938
3675.71,452.16
3677.16,449.856
3678.62,451.392
3680.07,447.553
3681.53,446.018
3682.98,451.776
3684.43,452.928
3685.89,452.16
3687.34,452.16
3688.8,466.363
3690.25,452.544
3691.71,453.311
3693.16,461.757
3694.61,438.725
3696.07,442.947
3697.52,440.26
3698.98,455.999
3700.43,435.27
3701.89,457.918
3703.34,450.624
3704.79,445.635
3706.25,462.525
3707.7,449.856
3709.16,445.635
3710.61,450.241
3712.06,465.595
3713.52,466.363
3714.97,455.999
3716.43,460.605
3717.88,449.089
3719.34,459.07
3720.79,460.989
3722.24,452.928
3723.7,455.231
3725.15,472.504
3726.61,473.656
3728.06,477.495
3729.52,458.685
3730.97,454.847
3732.42,442.18
3733.88,455.231
3735.33,474.04
3736.79,472.121
3738.24,454.463
3739.69,463.292
3741.15,464.06
3742.6,467.131
3744.06,467.131
3745.51,453.311
3746.97,453.696
3748.42,458.685
3749.87,462.14
3751.33,464.06
3752.78,461.373
3754.24,459.453
3755.69,457.534
3757.15,468.283
3758.6,483.637
3760.05,463.676
3761.51,462.908
3762.96,463.292
3764.42,459.07
3765.87,462.14
3767.32,461.757
3768.78,467.514
3770.23,465.979
3771.69,462.908
3773.14,460.989
3774.6,457.15
3776.05,459.837
3777.5,478.262
3778.96,466.746
3780.41,472.504
3781.87,464.443
3783.32,475.192
3784.78,482.101
3786.23,473.272
3787.68,458.685
3789.14,457.918
3790.59,469.818
3792.05,465.595
3793.5,476.727
3794.96,466.746
3796.41,456.767
3797.86,455.231
3799.32,472.121
3800.77,469.818
3802.23,480.95
3803.68,458.685
3805.13,472.121
3806.59,474.424
3808.04,482.485
3809.5,466.363
3810.95,462.14
3812.41,498.607
3813.86,483.637
3815.31,487.859
3816.77,474.04
3818.22,482.869
3819.68,491.698
3821.13,483.253
3822.59,480.182
3824.04,471.737
3825.49,485.172
3826.95,476.344
3828.4,471.353
3829.86,472.889
3831.31,481.333
3832.76,464.443
3834.22,479.798
3835.67,474.808
3837.13,470.969
3838.58,489.779
3840.04,470.201
3841.49,489.011
3842.94,455.231
3844.4,482.869
3845.85,478.647
3847.31,474.04
3848.76,507.052
3850.22,490.93
3851.67,482.485
3853.12,487.091
3854.58,473.272
3856.03,487.091
3857.49,470.969
3858.94,487.091
3860.4,513.194
3861.85,507.436
3863.3,495.152
3864.76,494.385
3866.21,497.072
3867.67,496.304
3869.12,485.172
3870.57,482.101
3872.03,484.02
3873.48,490.93
3874.94,500.143
3876.39,506.284
3877.85,482.869
3879.3,489.779
3880.75,484.788
3882.21,478.262
3883.66,496.304
3885.12,509.356
3886.57,499.375
3888.03,489.779
3889.48,495.152
3890.93,500.527
3892.39,515.497
3893.84,503.598
3895.3,508.588
3896.75,508.971
3898.2,510.507
3899.66,510.123
3901.11,508.204
3902.57,525.478
3904.02,518.952
3905.48,517.032
3906.93,512.426
3908.38,513.962
3909.84,513.578
3911.29,511.274
3912.75,510.891
3914.2,525.861
3915.66,527.013
3917.11,515.881
3918.56,509.356
3920.02,515.497
3921.47,521.639
3922.93,525.094
3924.38,532.004
3925.83,526.246
3927.29,536.993
3928.74,509.739
3930.2,538.913
3931.65,537.761
3933.11,525.861
3934.56,537.761
3936.01,543.903
3937.47,541.983
3938.92,538.913
3940.38,558.106
3941.83,557.338
3943.29,551.196
3944.74,535.842
3946.19,554.651
3947.65,571.925
3949.1,543.519
3950.56,546.206
3952.01,567.319
3953.47,563.864
3954.92,539.68
3956.37,553.115
3957.83,556.57
3959.28,573.844
3960.74,581.905
3962.19,562.713
3963.64,551.58
3965.1,572.309
3966.55,583.824
3968.01,581.521
3969.46,573.844
3970.92,557.722
3972.37,571.925
3973.82,567.319
3975.28,588.815
3976.73,579.218
3978.19,569.622
3979.64,598.411
3981.1,584.209
3982.55,586.128
3984,596.492
3985.46,588.815
3986.91,593.037
3988.37,586.128
3989.82,601.098
3991.27,603.786
3992.73,607.24
3994.18,609.544
3995.64,609.159
3997.09,584.209
3998.55,571.925
4000,609.159
