-50,-2.63012
-48.5458,-1.75733
-47.0916,-3.72291
-45.6373,-0.305311
-44.1831,1.51084
-42.7289,2.47283
-41.2747,4.60307
-39.8205,3.87579
-38.3662,0.622077
-36.912,-1.43913
-35.4578,-3.82856
-34.0036,-5.48794
-32.5494,-4.58367
-31.0952,-3.9134
-29.6409,3.41232
-28.1867,10.9278
-26.7325,9.25169
-25.2783,6.16838
-23.8241,10.1397
-22.3698,19.1053
-20.9156,24.82
-19.4614,27.848
-18.0072,36.1496
-16.553,35.8387
-15.0987,35.4954
-13.6445,38.3882
-12.1903,54.387
-10.7361,98.828
-9.28187,36.1702
-7.82765,36.1702
-6.37343,36.1702
-4.91921,36.1702
-3.46499,36.1702
-2.01077,36.1702
-0.556553,36.1702
0.897666,36.1702
2.35189,36.1702
3.8061,522.885
5.26032,107.136
6.71454,95.0793
8.16876,94.6705
9.62298,86.4607
11.0772,75.0143
12.5314,67.9823
13.9856,66.2846
15.4399,57.1165
16.8941,50.4332
18.3483,40.1166
19.8025,34.0446
21.2567,35.5175
22.711,25.1467
24.1652,22.9513
25.6194,19.4468
27.0736,18.5125
28.5278,17.2842
29.982,20.9643
31.4363,18.4971
32.8905,12.8343
34.3447,12.866
35.7989,12.2992
37.2531,10.1263
38.7074,8.41414
40.1616,11.137
41.6158,23.1987
43.07,33.3848
44.5242,55.5599
45.9785,96.6651
47.4327,168.961
48.8869,310.034
50.3411,538.891
51.7953,778.165
53.2495,1038.6
54.7038,1346.5
56.158,1586.43
57.6122,1799.47
59.0664,1967.89
60.5206,2054.57
61.9749,2124.52
63.4291,2191.75
64.8833,2237.84
66.3375,2304.65
67.7917,2337.65
69.246,2358.28
70.7002,2362.64
72.1544,2392.08
73.6086,2420.84
75.0628,2435.94
76.5171,2468.2
77.9713,2557.26
79.4255,2607.43
80.8797,2625.3
82.3339,2631.31
83.7882,2597.38
85.2424,2559.28
86.6966,2492.68
88.1508,2400.42
89.605,2292
91.0592,2209.75
92.5135,2123.97
93.9677,1991.24
95.4219,1894.56
96.8761,1922.21
98.3303,1865.36
99.7846,1805.66
101.239,1780.54
102.693,1766.32
104.147,1753.19
105.601,1674.78
107.056,1659.05
108.51,1655.98
109.964,1635.85
111.418,1646.68
112.873,1622.22
114.327,1603.56
115.781,1587.44
117.235,1530.6
118.689,1498.83
120.144,1469.47
121.598,1443.35
123.052,1435.32
124.506,1375.03
125.961,1338.37
127.415,1275.38
128.869,1237.27
130.323,1223.02
131.777,1199.26
133.232,1202.64
134.686,1167.41
136.14,1132.27
137.594,1107.49
139.048,1088.4
140.503,1091.74
141.957,1101.74
143.411,1098.88
144.865,1065.26
146.32,993.77
147.774,998.148
149.228,1008.47
150.682,1010.23
152.136,1008.5
153.591,989.511
155.045,970.49
156.499,957.905
157.953,945.553
159.408,936.723
160.862,905.053
162.316,911.054
163.77,917.182
165.224,916.125
166.679,904.919
168.133,894.266
169.587,910.266
171.041,896.818
172.496,882.267
173.95,891.343
175.404,855.885
176.858,871.145
178.312,873.271
179.767,876.258
181.221,898.281
182.675,882.855
184.129,826.643
185.583,821.335
187.038,839.814
188.492,850.03
189.946,823.088
191.4,814.609
192.855,815.462
194.309,817.748
195.763,817.684
197.217,829.452
198.671,827.972
200.126,833.982
201.58,834.053
203.034,814.972
204.488,780.37
205.943,792.981
207.397,816.851
208.851,827.886
210.305,833.42
211.759,828.655
213.214,829
214.668,830.287
216.122,819.589
217.576,812.671
219.031,798.612
220.485,830.913
221.939,818.992
223.393,808.68
224.847,823.051
226.302,847.138
227.756,821.698
229.21,823.518
230.664,838.976
232.118,831.225
233.573,800.583
235.027,818.761
236.481,806.831
237.935,793.568
239.39,785.77
240.844,777.385
242.298,786.892
243.752,781.963
245.206,784.884
246.661,794.536
248.115,791.53
249.569,795.822
251.023,775.424
252.478,778.024
253.932,780.091
255.386,762.758
256.84,785.754
258.294,770.366
259.749,759.316
261.203,753.077
262.657,752.297
264.111,758.195
265.566,769.06
267.02,740.862
268.474,713.89
269.928,719.542
271.382,756.941
272.837,737.267
274.291,723.297
275.745,718.086
277.199,726.08
278.654,726.444
280.108,715.712
281.562,687.944
283.016,687.862
284.47,696.294
285.925,673.795
287.379,684.29
288.833,680.143
290.287,676.778
291.741,676.587
293.196,671.964
294.65,649.17
296.104,654.362
297.558,659.19
299.013,663.661
300.467,664.844
301.921,629.792
303.375,621.424
304.829,636.24
306.284,635.235
307.738,621.86
309.192,623.799
310.646,613.601
312.101,618.429
313.555,612.536
315.009,602.144
316.463,597.47
317.917,601.242
319.372,610.204
320.826,593.854
322.28,582.041
323.734,591.309
325.189,588.212
326.643,567.916
328.097,570.243
329.551,582.382
331.005,588.523
332.46,589.488
333.914,582.828
335.368,584.413
336.822,583.803
338.276,578.951
339.731,579.849
341.185,568.422
342.639,588.967
344.093,607.42
345.548,592.395
347.002,555.275
348.456,598.388
349.91,569.825
351.364,557.831
352.819,554.281
354.273,558.669
355.727,574.57
357.181,569.996
358.636,564.298
360.09,578.14
361.544,577.164
362.998,540.906
364.452,543.174
365.907,556.744
367.361,542.031
368.815,549.829
370.269,572.785
371.724,570.358
373.178,547.211
374.632,551.898
376.086,549.172
377.54,544.582
378.995,548.505
380.449,558.055
381.903,531.029
383.357,505.123
384.811,520.399
386.266,557.939
387.72,555.605
389.174,555.899
390.628,548.784
392.083,546.988
393.537,558.882
394.991,578.076
396.445,547.068
397.899,534.019
399.354,541.136
400.808,549.723
402.262,544.794
403.716,518.454
405.171,532.378
406.625,555.347
408.079,553.031
409.533,540.327
410.987,543.895
412.442,553.438
413.896,553.253
415.35,544.74
416.804,537.162
418.259,535.158
419.713,544.652
421.167,540.41
422.621,542.846
424.075,537.198
425.53,530.862
426.984,531.709
428.438,542.031
429.892,550.978
431.346,546.078
432.801,551.535
434.255,557.317
435.709,550.274
437.163,542.565
438.618,532.283
440.072,524.505
441.526,522.428
442.98,529.862
444.434,546.315
445.889,521.94
447.343,514.501
448.797,529.848
450.251,535.798
451.706,523.946
453.16,520.318
454.614,545.243
456.068,545.928
457.522,539.512
458.977,529.89
460.431,522.821
461.885,547.536
463.339,562.52
464.794,556.964
466.248,534.343
467.702,516.522
469.156,543.249
470.61,538.058
472.065,537.578
473.519,536.372
474.973,536.369
476.427,535.313
477.882,533.1
479.336,544.866
480.79,538.045
482.244,535.939
483.698,533.77
485.153,532.345
486.607,540.982
488.061,533.621
489.515,528.803
490.969,520.966
492.424,510.92
493.878,505.861
495.332,512.017
496.786,517.25
498.241,520.436
499.695,515.393
501.149,512.08
502.603,514.069
504.057,530.324
505.512,512.41
506.966,510.822
508.42,523.955
509.874,533.143
511.329,514.728
512.783,519.872
514.237,526.175
515.691,525.946
517.145,516.894
518.6,513.093
520.054,515.459
521.508,514.114
522.962,531.915
524.417,517.517
525.871,510.544
527.325,525.94
528.779,529.571
530.233,543.395
531.688,521.653
533.142,510.271
534.596,510.175
536.05,508.288
537.505,534.316
538.959,508.614
540.413,501.102
541.867,514.549
543.321,521.535
544.776,522.347
546.23,488.894
547.684,492.44
549.138,513.687
550.592,511.497
552.047,505.434
553.501,514.795
554.955,512.932
556.409,518.644
557.864,513.142
559.318,503.002
560.772,509.01
562.226,519.006
563.68,495.617
565.135,498.438
566.589,505.209
568.043,501.007
569.497,507.287
570.952,523.318
572.406,508.501
573.86,526.053
575.314,529.928
576.768,530.388
578.223,528.686
579.677,525.602
581.131,514.333
582.585,502.442
584.039,500.485
585.494,507.039
586.948,523.023
588.402,526.996
589.856,503.109
591.311,519.132
592.765,523.84
594.219,514.584
595.673,516.427
597.127,515.067
598.582,508.886
600.036,519.584
601.49,516.421
602.944,528.976
604.399,535.331
605.853,521.345
607.307,495.551
608.761,504.317
610.215,509.361
611.67,513.018
613.124,517.807
614.578,519.932
616.032,521.943
617.487,529.106
618.941,522.139
620.395,525.954
621.849,519.049
623.303,518.529
624.758,537.259
626.212,553.996
627.666,554.52
629.12,515.525
630.575,518.093
632.029,529.942
633.483,535.671
634.937,533.244
636.391,541.348
637.846,527.336
639.3,514.486
640.754,517.349
642.208,531.996
643.662,531.108
645.117,538.954
646.571,525.735
648.025,526.227
649.479,544.897
650.934,546.408
652.388,528.517
653.842,530.442
655.296,540.453
656.75,524.599
658.205,528.582
659.659,540.042
661.113,551.226
662.567,549.019
664.022,544.372
665.476,553.349
666.93,556.51
668.384,563.579
669.838,557.182
671.293,549.056
672.747,574.391
674.201,555.979
675.655,556.508
677.109,547.715
678.564,538.502
680.018,557.201
681.472,568.118
682.926,569.417
684.381,570.007
685.835,554.243
687.289,557.421
688.743,559.862
690.198,572.697
691.652,557.119
693.106,548.956
694.56,555.867
696.014,561.913
697.469,551.02
698.923,553.973
700.377,584.263
701.831,558.245
703.285,570.855
704.74,565.901
706.194,561.891
707.648,558.149
709.102,553.164
710.557,563.005
712.011,548.158
713.465,561.086
714.919,578.319
716.373,573.712
717.828,558.882
719.282,573.654
720.736,586.253
722.19,572.998
723.645,575.211
725.099,572.148
726.553,568.739
728.007,571.936
729.461,574.646
730.916,577.259
732.37,577.418
733.824,572.755
735.278,562.542
736.732,564.187
738.187,567.341
739.641,580.773
741.095,582.44
742.549,564.554
744.004,561.757
745.458,567.942
746.912,575.435
748.366,556.519
749.82,585.025
751.275,559.302
752.729,553.775
754.183,557.859
755.637,560.799
757.092,565.979
758.546,548.408
760,569.147
761.454,554.402
762.908,570.045
764.363,564.78
765.817,560.343
767.271,573.368
768.725,558.902
770.18,580.456
771.634,577.135
773.088,565.164
774.542,560.112
775.996,563.238
777.451,571.826
778.905,574.923
780.359,604.755
781.813,588.913
783.268,590.934
784.722,598.582
786.176,606.842
787.63,575.29
789.084,584.038
790.539,601.865
791.993,583.849
793.447,578.552
794.901,586.11
796.355,591.986
797.81,586.138
799.264,593.6
800.718,609.549
802.172,599.095
803.627,598.257
805.081,616.105
806.535,625.827
807.989,601.695
809.443,605.448
810.898,602.272
812.352,606.164
813.806,598.235
815.26,591.751
816.715,596.22
818.169,588.929
819.623,588.102
821.077,604.372
822.531,588.155
823.986,602.126
825.44,620.445
826.894,625.883
828.348,616.072
829.802,636.436
831.257,623.368
832.711,639.118
834.165,636.686
835.619,631.312
837.074,626.17
838.528,653.199
839.982,653.143
841.436,617.26
842.891,608.988
844.345,622.937
845.799,643.672
847.253,655.669
848.707,644.254
850.162,610.079
851.616,671.84
853.07,658.982
854.524,646.652
855.978,662.975
857.433,687.407
858.887,671.681
860.341,648.501
861.795,648.232
863.25,644.221
864.704,619.861
866.158,625.59
867.612,627.215
869.066,626.915
870.521,648.581
871.975,637.624
873.429,639.499
874.883,627.843
876.338,627.03
877.792,632.764
879.246,631.026
880.7,633.454
882.154,634.429
883.609,650.729
885.063,645.105
886.517,649.61
887.971,656.098
889.425,658.266
890.88,644.64
892.334,647.83
893.788,641.078
895.242,667.07
896.697,669.974
898.151,666.375
899.605,650.666
901.059,651.258
902.513,649.86
903.968,650.15
905.422,672.899
906.876,667.958
908.33,676.438
909.785,676.05
911.239,669.103
912.693,662.296
914.147,677.304
915.601,666.373
917.056,664.204
918.51,677.026
919.964,656.072
921.418,669.632
922.873,685.177
924.327,677.349
925.781,665.613
927.235,697.804
928.689,668.48
930.144,677.046
931.598,688.861
933.052,692.564
934.506,684.287
935.961,660.067
937.415,674.569
938.869,689.163
940.323,694.305
941.777,684.053
943.232,681.824
944.686,696.59
946.14,691.805
947.594,683.137
949.048,685.147
950.503,676.704
951.957,665.443
953.411,667.952
954.865,659.092
956.32,654.161
957.774,673.886
959.228,688.467
960.682,704.107
962.136,724.305
963.591,698.179
965.045,701.539
966.499,699.514
967.953,683.111
969.408,676.22
970.862,688.359
972.316,700.53
973.77,704.055
975.224,675.174
976.679,684.77
978.133,696.411
979.587,689.509
981.041,686.133
982.495,714.857
983.95,707.981
985.404,694.633
986.858,699.416
988.312,713.243
989.767,723.196
991.221,724.031
992.675,714.944
994.129,723.497
995.583,705.595
997.038,719.578
998.492,741.422
999.946,746.339
1001.4,731.22
1002.85,719.996
1004.31,728.488
1005.76,740.212
1007.22,746.553
1008.67,753.903
1010.13,751.975
1011.58,746.301
1013.03,736.142
1014.49,750.878
1015.94,766.333
1017.4,771.529
1018.85,754.813
1020.31,775.436
1021.76,800.17
1023.21,792.15
1024.67,779.619
1026.12,799.282
1027.58,794.423
1029.03,792.409
1030.48,813.204
1031.94,797.303
1033.39,805.308
1034.85,840.647
1036.3,815.005
1037.76,822.239
1039.21,845.516
1040.66,854.418
1042.12,870.16
1043.57,860.597
1045.03,891.171
1046.48,894.104
1047.94,878.059
1049.39,892.149
1050.84,891.498
1052.3,905.659
1053.75,935.26
1055.21,934.665
1056.66,927.804
1058.11,926.173
1059.57,946.617
1061.02,951.875
1062.48,953.498
1063.93,965.977
1065.39,980.58
1066.84,979.883
1068.29,1008.14
1069.75,1012.2
1071.2,1035.63
1072.66,1018.69
1074.11,1029.9
1075.57,1058.45
1077.02,1048.73
1078.47,1033.98
1079.93,1052.87
1081.38,1064.65
1082.84,1071.63
1084.29,1083.42
1085.75,1074.03
1087.2,1062.7
1088.65,1060.55
1090.11,1063.83
1091.56,1063.02
1093.02,1078.3
1094.47,1074.13
1095.92,1069.61
1097.38,1064.95
1098.83,1054.31
1100.29,1051.5
1101.74,1051.34
1103.2,1037.12
1104.65,1034.36
1106.1,1008.59
1107.56,1001.72
1109.01,1002.51
1110.47,1012.72
1111.92,1005.09
1113.38,998.33
1114.83,1012.35
1116.28,1006.06
1117.74,1001.7
1119.19,996.955
1120.65,983.71
1122.1,974.081
1123.55,991.737
1125.01,999.743
1126.46,980.586
1127.92,965.114
1129.37,966.525
1130.83,960.94
1132.28,967.733
1133.73,965.769
1135.19,1000.48
1136.64,972.088
1138.1,989.315
1139.55,968.872
1141.01,952.453
1142.46,942.563
1143.91,937.473
1145.37,938.478
1146.82,950.684
1148.28,946.339
1149.73,943.179
1151.18,950.229
1152.64,968.491
1154.09,960.179
1155.55,946.288
1157,963.199
1158.46,971.819
1159.91,955.843
1161.36,996.514
1162.82,973.334
1164.27,966.791
1165.73,959.989
1167.18,951.21
1168.64,950.528
1170.09,958.947
1171.54,952.275
1173,952.297
1174.45,960.412
1175.91,945.531
1177.36,963.294
1178.82,961.895
1180.27,963.947
1181.72,974.192
1183.18,972.749
1184.63,973.909
1186.09,1006.36
1187.54,989.256
1188.99,994.566
1190.45,986.224
1191.9,1001.38
1193.36,982.801
1194.81,983.897
1196.27,981.19
1197.72,972.643
1199.17,990.957
1200.63,998.128
1202.08,1012.72
1203.54,1002.43
1204.99,1019.14
1206.45,1001.96
1207.9,994.044
1209.35,1014.84
1210.81,1020.91
1212.26,1008.31
1213.72,1005.54
1215.17,1036.2
1216.62,1032.83
1218.08,1014.19
1219.53,1033.18
1220.99,1025.31
1222.44,1029.69
1223.9,1039.1
1225.35,1044.29
1226.8,1042.88
1228.26,1048.76
1229.71,1068.12
1231.17,1074.68
1232.62,1086.21
1234.08,1029.62
1235.53,1068.04
1236.98,1074.34
1238.44,1053.93
1239.89,1051.77
1241.35,1075.97
1242.8,1105.57
1244.25,1116.61
1245.71,1106.48
1247.16,1076.58
1248.62,1134.5
1250.07,1150.07
1251.53,1127.8
1252.98,1148.53
1254.43,1173.56
1255.89,1156.33
1257.34,1172.26
1258.8,1216.2
1260.25,1194.72
1261.71,1188.08
1263.16,1217.44
1264.61,1192.55
1266.07,1243.12
1267.52,1266.06
1268.98,1283.89
1270.43,1306.54
1271.89,1338.76
1273.34,1360.02
1274.79,1359.26
1276.25,1418.63
1277.7,1386.23
1279.16,1431.52
1280.61,1464.56
1282.06,1488.43
1283.52,1526.71
1284.97,1569.28
1286.43,1625.21
1287.88,1668.83
1289.34,1653.01
1290.79,1693.69
1292.24,1762.27
1293.7,1885.56
1295.15,1891.22
1296.61,1941.85
1298.06,2004.77
1299.52,2082.22
1300.97,2153.97
1302.42,2219.93
1303.88,2312.29
1305.33,2433.55
1306.79,2461.76
1308.24,2620.97
1309.69,2702.42
1311.15,2853.46
1312.6,2986.66
1314.06,3126.98
1315.51,3257.2
1316.97,3373.78
1318.42,3483.85
1319.87,3599.93
1321.33,3761.04
1322.78,3915.01
1324.24,3968.16
1325.69,4128.73
1327.15,4142.41
1328.6,4142.37
1330.05,4165.32
1331.51,4196.11
1332.96,4189.23
1334.42,4144.26
1335.87,4089.77
1337.32,4038.24
1338.78,3928.87
1340.23,3806.33
1341.69,3723.36
1343.14,3598.06
1344.6,3410.02
1346.05,3314.24
1347.5,3165.39
1348.96,3056.49
1350.41,2937.66
1351.87,2822.41
1353.32,2747.19
1354.78,2597.58
1356.23,2484.27
1357.68,2374.32
1359.14,2327.53
1360.59,2207.98
1362.05,2074.6
1363.5,1985.64
1364.96,1954.92
1366.41,1927.08
1367.86,1866.12
1369.32,1813.64
1370.77,1785.07
1372.23,1752.56
1373.68,1688.95
1375.13,1653.9
1376.59,1639.75
1378.04,1607.97
1379.5,1576.24
1380.95,1547.56
1382.41,1540.88
1383.86,1511.72
1385.31,1509.52
1386.77,1512.53
1388.22,1486.87
1389.68,1481.14
1391.13,1448.51
1392.59,1408.44
1394.04,1432.75
1395.49,1461.5
1396.95,1431.98
1398.4,1438.28
1399.86,1420.02
1401.31,1410.68
1402.76,1393.58
1404.22,1389.81
1405.67,1422.13
1407.13,1387.16
1408.58,1411.72
1410.04,1394.08
1411.49,1408.5
1412.94,1382.33
1414.4,1400.07
1415.85,1384.64
1417.31,1399.85
1418.76,1408.02
1420.22,1411.69
1421.67,1403.81
1423.12,1401.41
1424.58,1438.01
1426.03,1394.51
1427.49,1414.62
1428.94,1438.79
1430.4,1433.94
1431.85,1405.35
1433.3,1436.55
1434.76,1471.55
1436.21,1459.77
1437.67,1443.1
1439.12,1464.37
1440.57,1468.56
1442.03,1462.49
1443.48,1498.7
1444.94,1505.77
1446.39,1492.53
1447.85,1536.46
1449.3,1506.21
1450.75,1600.23
1452.21,1583.45
1453.66,1570.54
1455.12,1581.73
1456.57,1614.88
1458.03,1610.23
1459.48,1612.74
1460.93,1624.65
1462.39,1643.24
1463.84,1663.57
1465.3,1681.91
1466.75,1680.21
1468.2,1738.14
1469.66,1753.03
1471.11,1773.19
1472.57,1805.85
1474.02,1813.22
1475.48,1825.35
1476.93,1883
1478.38,1896.01
1479.84,1907.57
1481.29,1948.5
1482.75,1969.89
1484.2,2001.07
1485.66,2041.91
1487.11,2085.59
1488.56,2135.65
1490.02,2169.94
1491.47,2163.15
1492.93,2205.62
1494.38,2260.87
1495.83,2352.49
1497.29,2401.02
1498.74,2447.43
1500.2,2514.45
1501.65,2576.4
1503.11,2690.54
1504.56,2746.99
1506.01,2840.87
1507.47,2907.53
1508.92,3016.65
1510.38,3127.61
1511.83,3240.98
1513.29,3368.7
1514.74,3532.13
1516.19,3676.8
1517.65,3872.52
1519.1,4093.81
1520.56,4346.8
1522.01,4604.43
1523.46,4893.16
1524.92,5212.31
1526.37,5535.86
1527.83,5853.55
1529.28,6364.33
1530.74,6829.73
1532.19,7424.11
1533.64,8093.33
1535.1,8789.81
1536.55,9544.2
1538.01,10314.6
1539.46,11230.8
1540.92,12206.3
1542.37,13226.9
1543.82,14338.2
1545.28,15521.3
1546.73,16727.8
1548.19,17906.9
1549.64,19244.1
1551.1,20400.7
1552.55,21625.2
1554,22866.4
1555.46,24074.1
1556.91,25100.6
1558.37,26197.2
1559.82,26776.2
1561.27,27067.9
1562.73,27280.4
1564.18,27348.2
1565.64,27013.2
1567.09,26215.3
1568.55,25379.5
1570,24305.2
1571.45,23011.3
1572.91,21565.5
1574.36,20059.1
1575.82,18619.9
1577.27,16970.4
1578.73,15735.6
1580.18,14506.1
1581.63,13278.2
1583.09,12247.4
1584.54,11323.5
1586,10398.1
1587.45,9616.65
1588.9,8962.54
1590.36,8305.68
1591.81,7803.71
1593.27,7264.45
1594.72,6875.17
1596.18,6556.15
1597.63,6189.49
1599.08,5957.39
1600.54,5635.34
1601.99,5284.8
1603.45,5107.31
1604.9,4879.31
1606.36,4587.27
1607.81,4381.59
1609.26,4172.37
1610.72,3976.94
1612.17,3800.61
1613.63,3584.76
1615.08,3424.48
1616.54,3292.24
1617.99,3141.41
1619.44,3000.12
1620.9,2844.28
1622.35,2779.06
1623.81,2698.6
1625.26,2598.27
1626.71,2451.6
1628.17,2398.82
1629.62,2337.34
1631.08,2271.9
1632.53,2207.81
1633.99,2168.31
1635.44,2141.38
1636.89,2097.52
1638.35,2034.06
1639.8,1957.99
1641.26,1930.37
1642.71,1928.45
1644.17,1892.08
1645.62,1821.27
1647.07,1821.15
1648.53,1771.41
1649.98,1744.04
1651.44,1711.79
1652.89,1724.34
1654.34,1676.78
1655.8,1674.89
1657.25,1643.75
1658.71,1642.69
1660.16,1609.31
1661.62,1571.32
1663.07,1525.75
1664.52,1514.6
1665.98,1514.76
1667.43,1491.33
1668.89,1491.47
1670.34,1473.25
1671.8,1459.25
1673.25,1423.27
1674.7,1423.25
1676.16,1393.28
1677.61,1399.56
1679.07,1363.31
1680.52,1389.23
1681.97,1398.61
1683.43,1357.92
1684.88,1313.87
1686.34,1300.48
1687.79,1322.07
1689.25,1309.15
1690.7,1288.28
1692.15,1270.41
1693.61,1245.49
1695.06,1263.9
1696.52,1281.04
1697.97,1266.75
1699.43,1235.14
1700.88,1229.77
1702.33,1221.08
1703.79,1253.03
1705.24,1219.82
1706.7,1205.32
1708.15,1239.47
1709.6,1220.42
1711.06,1175.66
1712.51,1194.87
1713.97,1209.96
1715.42,1194.95
1716.88,1197.61
1718.33,1199.95
1719.78,1179.38
1721.24,1169.06
1722.69,1180.23
1724.15,1191.67
1725.6,1182.29
1727.06,1181.79
1728.51,1200.45
1729.96,1199.01
1731.42,1188.22
1732.87,1189.82
1734.33,1204.87
1735.78,1178.85
1737.24,1174.06
1738.69,1189.39
1740.14,1172.02
1741.6,1137.28
1743.05,1134.68
1744.51,1157.55
1745.96,1169.63
1747.41,1138.81
1748.87,1127.89
1750.32,1123.85
1751.78,1127.93
1753.23,1111.84
1754.69,1110.24
1756.14,1120.08
1757.59,1107.86
1759.05,1101.13
1760.5,1094.55
1761.96,1081.56
1763.41,1110.81
1764.87,1104.08
1766.32,1051.93
1767.77,1073.01
1769.23,1078.51
1770.68,1080.74
1772.14,1061.74
1773.59,1085.29
1775.04,1057.46
1776.5,1051.45
1777.95,1034.07
1779.41,1026.83
1780.86,1054.21
1782.32,1033.65
1783.77,1040.14
1785.22,1028.18
1786.68,1035.42
1788.13,1053.24
1789.59,1057.6
1791.04,1059.08
1792.5,1038.35
1793.95,1031.78
1795.4,1047.27
1796.86,1039.9
1798.31,992.035
1799.77,1000.99
1801.22,1010.81
1802.68,993.278
1804.13,1020.84
1805.58,1025.18
1807.04,1035.69
1808.49,1024.82
1809.95,1002.28
1811.4,1030.48
1812.85,1034.69
1814.31,1015.14
1815.76,1053.3
1817.22,999.37
1818.67,1004.28
1820.13,1043.29
1821.58,1024.31
1823.03,1028.41
1824.49,1030.95
1825.94,1046.7
1827.4,1014.89
1828.85,1019.71
1830.31,1012.5
1831.76,1013.73
1833.21,1025.41
1834.67,1054.44
1836.12,1027.58
1837.58,1035.59
1839.03,1064.14
1840.48,1034.76
1841.94,1040.14
1843.39,1050.96
1844.85,1072.72
1846.3,1069.57
1847.76,1073.55
1849.21,1087.43
1850.66,1071.77
1852.12,1066.29
1853.57,1089.46
1855.03,1071.92
1856.48,1039.42
1857.94,1088.51
1859.39,1086.99
1860.84,1106.88
1862.3,1117.83
1863.75,1095.52
1865.21,1109.37
1866.66,1131.67
1868.11,1085.03
1869.57,1089.1
1871.02,1116.15
1872.48,1077.87
1873.93,1064.01
1875.39,1061.82
1876.84,1058.71
1878.29,1050.65
1879.75,1049.6
1881.2,1050.71
1882.66,1030.59
1884.11,1039.99
1885.57,1051.79
1887.02,1026.25
1888.47,1017.13
1889.93,1016.46
1891.38,1000.41
1892.84,997.914
1894.29,1011.81
1895.75,1005.31
1897.2,977.763
1898.65,974.644
1900.11,982.239
1901.56,965.488
1903.02,975.488
1904.47,982.599
1905.92,953.163
1907.38,937.409
1908.83,954.581
1910.29,966.515
1911.74,991.972
1913.2,970.969
1914.65,953.387
1916.1,931.187
1917.56,927.955
1919.01,945.748
1920.47,940.155
1921.92,960.224
1923.38,946.535
1924.83,936.704
1926.28,941.004
1927.74,957.333
1929.19,969.284
1930.65,970.592
1932.1,949.428
1933.55,955.184
1935.01,967.964
1936.46,956.788
1937.92,945.471
1939.37,962.462
1940.83,955.758
1942.28,965.171
1943.73,969.616
1945.19,962.363
1946.64,959.278
1948.1,964.392
1949.55,954.762
1951.01,954.268
1952.46,955.618
1953.91,948.547
1955.37,940.741
1956.82,954.399
1958.28,959.074
1959.73,971.083
1961.18,995.678
1962.64,993.948
1964.09,973.071
1965.55,969.705
1967,965.499
1968.46,953.867
1969.91,973.251
1971.36,1012.09
1972.82,1012.02
1974.27,1013.21
1975.73,1001.84
1977.18,1001.64
1978.64,993.288
1980.09,989.734
1981.54,985.705
1983,996.409
1984.45,999.725
1985.91,1005.62
1987.36,1026.86
1988.82,1001.12
1990.27,1013.41
1991.72,994.708
1993.18,991.026
1994.63,995.985
1996.09,986.278
1997.54,1016.93
1998.99,1019.33
2000.45,1022.45
2001.9,1029.73
2003.36,992.638
2004.81,998.905
2006.27,982.817
2007.72,1005.38
2009.17,1000.04
2010.63,1004.97
2012.08,1022.58
2013.54,994.648
2014.99,963.854
2016.45,956.117
2017.9,977.948
2019.35,981.136
2020.81,943.785
2022.26,968.851
2023.72,969.146
2025.17,926.436
2026.62,931.322
2028.08,956.733
2029.53,988.365
2030.99,974.713
2032.44,943.479
2033.9,933.408
2035.35,947.335
2036.8,938.799
2038.26,905.289
2039.71,928.532
2041.17,909.434
2042.62,919.016
2044.08,927.919
2045.53,935.817
2046.98,932.145
2048.44,906.837
2049.89,918.412
2051.35,910.983
2052.8,896.662
2054.25,888.527
2055.71,890.981
2057.16,890.468
2058.62,883.565
2060.07,877.269
2061.53,895.066
2062.98,897.103
2064.43,885.067
2065.89,887.262
2067.34,875.286
2068.8,872.475
2070.25,861.227
2071.71,869.219
2073.16,864.673
2074.61,870.637
2076.07,855.301
2077.52,851.735
2078.98,885.088
2080.43,889.081
2081.89,876.589
2083.34,857.803
2084.79,846.525
2086.25,833.271
2087.7,846.353
2089.16,858.808
2090.61,858.051
2092.06,847.588
2093.52,856.477
2094.97,850.43
2096.43,837.532
2097.88,856.681
2099.34,870.567
2100.79,870.77
2102.24,859.778
2103.7,869.727
2105.15,862.704
2106.61,840.806
2108.06,859.919
2109.52,850.756
2110.97,834.372
2112.42,828.084
2113.88,845.752
2115.33,851.166
2116.79,845.909
2118.24,861.776
2119.69,891.344
2121.15,879.033
2122.6,847.881
2124.06,852.269
2125.51,868.212
2126.97,868.023
2128.42,842.464
2129.87,850.079
2131.33,873.682
2132.78,865.771
2134.24,852.521
2135.69,869.891
2137.15,875.636
2138.6,888.7
2140.05,893.855
2141.51,860.709
2142.96,860.746
2144.42,892.026
2145.87,880.746
2147.32,881.257
2148.78,892.06
2150.23,879.252
2151.69,886.424
2153.14,913.732
2154.6,898.198
2156.05,897.444
2157.5,892.96
2158.96,906.793
2160.41,886.456
2161.87,882.843
2163.32,879.512
2164.78,878.606
2166.23,882.837
2167.68,898.337
2169.14,907.49
2170.59,909.668
2172.05,908.284
2173.5,928.022
2174.96,903.718
2176.41,927.804
2177.86,951.001
2179.32,953.277
2180.77,940.95
2182.23,936.334
2183.68,955.461
2185.13,940.326
2186.59,920.046
2188.04,946.823
2189.5,919.155
2190.95,898.141
2192.41,937.117
2193.86,915.987
2195.31,926.838
2196.77,953.316
2198.22,936.044
2199.68,940.332
2201.13,940.273
2202.59,924.535
2204.04,935.342
2205.49,945.953
2206.95,923.87
2208.4,950.509
2209.86,937.159
2211.31,922.299
2212.76,938.713
2214.22,952.349
2215.67,943.941
2217.13,933.044
2218.58,922.032
2220.04,948.519
2221.49,939.566
2222.94,962.495
2224.4,951.529
2225.85,965.35
2227.31,983.081
2228.76,945.009
2230.22,921.376
2231.67,944.867
2233.12,943.15
2234.58,962.249
2236.03,967.358
2237.49,972.181
2238.94,953.087
2240.4,941.639
2241.85,945.844
2243.3,954.58
2244.76,955.074
2246.21,964.06
2247.67,982.107
2249.12,977.312
2250.57,960.462
2252.03,968.048
2253.48,993.4
2254.94,979.187
2256.39,980.576
2257.85,1000.29
2259.3,982.091
2260.75,995.906
2262.21,985.38
2263.66,975.898
2265.12,977.233
2266.57,986.38
2268.03,990.56
2269.48,966.135
2270.93,989.569
2272.39,997.285
2273.84,998.465
2275.3,987.547
2276.75,1017.97
2278.2,1025.59
2279.66,1031.42
2281.11,1021.77
2282.57,1035.74
2284.02,1004.12
2285.48,1034.59
2286.93,1003.85
2288.38,1006.33
2289.84,1030.73
2291.29,1038.64
2292.75,1021.12
2294.2,1040.57
2295.66,1062.38
2297.11,1077.07
2298.56,1076.3
2300.02,1066
2301.47,1095.81
2302.93,1087.39
2304.38,1075.76
2305.83,1045.42
2307.29,1062.68
2308.74,1081.07
2310.2,1075.85
2311.65,1082.48
2313.11,1108.85
2314.56,1120.42
2316.01,1130.33
2317.47,1091.78
2318.92,1105.48
2320.38,1126.31
2321.83,1139.88
2323.29,1147.89
2324.74,1134.65
2326.19,1134.14
2327.65,1139.81
2329.1,1138.38
2330.56,1127.66
2332.01,1157.71
2333.47,1155.81
2334.92,1166.23
2336.37,1148.37
2337.83,1159.79
2339.28,1145.99
2340.74,1165.12
2342.19,1171.2
2343.64,1181.76
2345.1,1190.3
2346.55,1199.56
2348.01,1191.22
2349.46,1193.38
2350.92,1219.33
2352.37,1213.7
2353.82,1231.98
2355.28,1255.72
2356.73,1265.09
2358.19,1240.15
2359.64,1244.44
2361.1,1246.38
2362.55,1283.64
2364,1306.32
2365.46,1301.56
2366.91,1332.94
2368.37,1366.18
2369.82,1348.35
2371.27,1354.72
2372.73,1389.44
2374.18,1382.13
2375.64,1426.58
2377.09,1417.79
2378.55,1447.51
2380,1478.94
2381.45,1506.28
2382.91,1494.59
2384.36,1517.5
2385.82,1548.54
2387.27,1581.82
2388.73,1615.86
2390.18,1687.98
2391.63,1693.64
2393.09,1670.39
2394.54,1734.25
2396,1753.69
2397.45,1773.63
2398.9,1835.77
2400.36,1846.09
2401.81,1880.56
2403.27,1916.11
2404.72,1972.94
2406.18,1963.13
2407.63,2009.78
2409.08,2052.93
2410.54,2066.82
2411.99,2083.85
2413.45,2117.74
2414.9,2122.52
2416.36,2152.48
2417.81,2177.18
2419.26,2199.38
2420.72,2232.99
2422.17,2175.81
2423.63,2245.97
2425.08,2239.57
2426.53,2254.8
2427.99,2254.34
2429.44,2242.62
2430.9,2217.85
2432.35,2215
2433.81,2203.66
2435.26,2222.78
2436.71,2202.03
2438.17,2190.3
2439.62,2213.27
2441.08,2203.94
2442.53,2184.82
2443.99,2158.27
2445.44,2160.09
2446.89,2107.47
2448.35,2083.11
2449.8,2047.34
2451.26,2065.26
2452.71,2064.76
2454.17,2056.13
2455.62,2014.74
2457.07,2005.72
2458.53,2066.68
2459.98,2058.92
2461.44,1991.6
2462.89,1969.05
2464.34,1977.42
2465.8,1979.5
2467.25,1968.61
2468.71,1957.16
2470.16,1978.09
2471.62,1944.16
2473.07,1901.08
2474.52,1885.33
2475.98,1895.61
2477.43,1892.28
2478.89,1889.1
2480.34,1875.88
2481.8,1888.74
2483.25,1919.45
2484.7,1940.39
2486.16,1909.96
2487.61,1876.49
2489.07,1839.66
2490.52,1891.54
2491.97,1876.72
2493.43,1891.07
2494.88,1869.62
2496.34,1915.65
2497.79,1911.47
2499.25,1922.68
2500.7,1938.9
2502.15,1933.48
2503.61,1926.62
2505.06,1914.9
2506.52,1931.94
2507.97,1948.97
2509.43,1962.29
2510.88,1947.67
2512.33,1994.13
2513.79,1997.53
2515.24,2005.29
2516.7,1997.3
2518.15,2027.87
2519.6,2046.97
2521.06,2017.71
2522.51,2059.85
2523.97,2102.92
2525.42,2085.13
2526.88,2117.71
2528.33,2151.17
2529.78,2159.83
2531.24,2160.1
2532.69,2160.25
2534.15,2188.8
2535.6,2251.07
2537.06,2267.59
2538.51,2301.61
2539.96,2332.4
2541.42,2335.24
2542.87,2314.46
2544.33,2394.04
2545.78,2449.74
2547.24,2439.18
2548.69,2497.3
2550.14,2515.79
2551.6,2561.23
2553.05,2604.5
2554.51,2610.88
2555.96,2691.13
2557.41,2737.64
2558.87,2796.23
2560.32,2878.93
2561.78,2923.14
2563.23,2938.16
2564.69,2982.55
2566.14,3015.97
2567.59,3090.79
2569.05,3178.69
2570.5,3239.59
2571.96,3323.88
2573.41,3417.51
2574.87,3512.95
2576.32,3500.21
2577.77,3642.09
2579.23,3770.37
2580.68,3855.41
2582.14,3946.41
2583.59,4026.74
2585.04,4098.07
2586.5,4232.02
2587.95,4396.59
2589.41,4555.1
2590.86,4652.25
2592.32,4807.04
2593.77,4967.21
2595.22,5114.17
2596.68,5321.72
2598.13,5513.32
2599.59,5697.87
2601.04,5966.91
2602.5,6104.57
2603.95,6330.13
2605.4,6575.94
2606.86,6841.09
2608.31,7041.06
2609.77,7331.68
2611.22,7627.3
2612.68,7947.11
2614.13,8233.52
2615.58,8598.92
2617.04,8985.81
2618.49,9338.28
2619.95,9677.58
2621.4,10053.5
2622.85,10531.4
2624.31,10838.3
2625.76,11325.3
2627.22,11709.5
2628.67,12092.4
2630.13,12622.1
2631.58,13083.9
2633.03,13433.4
2634.49,13957.2
2635.94,14299.3
2637.4,14790.8
2638.85,15326.5
2640.31,15618.9
2641.76,15980.9
2643.21,16323.5
2644.67,16662.3
2646.12,17060.3
2647.58,17351.4
2649.03,17552.1
2650.48,17718.5
2651.94,17972.6
2653.39,18029
2654.85,18211
2656.3,18368.6
2657.76,18268.4
2659.21,18293.3
2660.66,18303.1
2662.12,18068
2663.57,17962.9
2665.03,17861.9
2666.48,17566.8
2667.94,17280
2669.39,16866.5
2670.84,16581.9
2672.3,16275.8
2673.75,15880.1
2675.21,15557
2676.66,15203.2
2678.11,14820.8
2679.57,14211.1
2681.02,13810.3
2682.48,13254.3
2683.93,12918.1
2685.39,12473.4
2686.84,11991.1
2688.29,11455.3
2689.75,11038.8
2691.2,10610.7
2692.66,10099.7
2694.11,9807.83
2695.57,9346.07
2697.02,8974.49
2698.47,8552.13
2699.93,8239.24
2701.38,7852.68
2702.84,7584.88
2704.29,7252.67
2705.75,6926.74
2707.2,6622.52
2708.65,6359.54
2710.11,6117.79
2711.56,5856.25
2713.02,5631.19
2714.47,5503.71
2715.92,5207.96
2717.38,5047.23
2718.83,4882.72
2720.29,4704.82
2721.74,4535.99
2723.2,4407.67
2724.65,4189.81
2726.1,4054.18
2727.56,3934.44
2729.01,3855
2730.47,3717.86
2731.92,3624.43
2733.38,3513.82
2734.83,3351.38
2736.28,3283.81
2737.74,3224.83
2739.19,3190.01
2740.65,3085.51
2742.1,2976.28
2743.55,2897.47
2745.01,2896.02
2746.46,2817.96
2747.92,2752.23
2749.37,2639.99
2750.83,2690.02
2752.28,2550.29
2753.73,2554.94
2755.19,2491.56
2756.64,2409.4
2758.1,2371.82
2759.55,2349.19
2761.01,2331.45
2762.46,2260.03
2763.91,2180.86
2765.37,2187.12
2766.82,2185.4
2768.28,2122.42
2769.73,2093.16
2771.18,2068.06
2772.64,2047.06
2774.09,1992.96
2775.55,2020.13
2777,1973.13
2778.46,1944.52
2779.91,1900.31
2781.36,1915.88
2782.82,1897.78
2784.27,1894.02
2785.73,1872.04
2787.18,1864.82
2788.64,1791.02
2790.09,1783.29
2791.54,1797.23
2793,1772.28
2794.45,1749.93
2795.91,1694.23
2797.36,1689.63
2798.82,1689.05
2800.27,1725.08
2801.72,1691.86
2803.18,1635.25
2804.63,1689.65
2806.09,1653.74
2807.54,1637.6
2808.99,1633.86
2810.45,1606.28
2811.9,1579.96
2813.36,1570.12
2814.81,1613.69
2816.27,1573.09
2817.72,1544.09
2819.17,1557.17
2820.63,1558.5
2822.08,1531.74
2823.54,1506.06
2824.99,1518.19
2826.45,1514.92
2827.9,1491.35
2829.35,1504.87
2830.81,1491.84
2832.26,1557.27
2833.72,1488.92
2835.17,1471.11
2836.62,1500.17
2838.08,1483.99
2839.53,1462.24
2840.99,1482.72
2842.44,1487.67
2843.9,1470.34
2845.35,1459.68
2846.8,1477.89
2848.26,1465.28
2849.71,1440.09
2851.17,1454.8
2852.62,1475.59
2854.08,1430.61
2855.53,1413.85
2856.98,1417.71
2858.44,1430.29
2859.89,1419.58
2861.35,1434.84
2862.8,1457.4
2864.25,1434.72
2865.71,1464.82
2867.16,1441.51
2868.62,1418.89
2870.07,1413.33
2871.53,1404.89
2872.98,1441.27
2874.43,1476.71
2875.89,1417.9
2877.34,1420.42
2878.8,1441.76
2880.25,1446.95
2881.71,1453.08
2883.16,1445.45
2884.61,1421.72
2886.07,1428.04
2887.52,1425.24
2888.98,1415.01
2890.43,1452.24
2891.89,1487.57
2893.34,1456.88
2894.79,1450.54
2896.25,1444.72
2897.7,1475.23
2899.16,1462.66
2900.61,1451.57
2902.06,1443.21
2903.52,1445.26
2904.97,1409.9
2906.43,1423.85
2907.88,1439.11
2909.34,1418.8
2910.79,1420.54
2912.24,1398.85
2913.7,1371.51
2915.15,1398.83
2916.61,1377.62
2918.06,1354.86
2919.52,1363.53
2920.97,1356.99
2922.42,1334.96
2923.88,1341.57
2925.33,1316.08
2926.79,1315.59
2928.24,1311.26
2929.69,1300.02
2931.15,1319.86
2932.6,1280.58
2934.06,1308.4
2935.51,1281.12
2936.97,1257.68
2938.42,1247.61
2939.87,1226.37
2941.33,1193.7
2942.78,1203.51
2944.24,1231.88
2945.69,1204.57
2947.15,1191.18
2948.6,1165.21
2950.05,1158.19
2951.51,1154.34
2952.96,1104.16
2954.42,1094.83
2955.87,1133.58
2957.32,1094.63
2958.78,1089.06
2960.23,1073.9
2961.69,1100.99
2963.14,1077.31
2964.6,1046.96
2966.05,1035.66
2967.5,1022.3
2968.96,1055
2970.41,1039.85
2971.87,1064.89
2973.32,1049.33
2974.78,1028.57
2976.23,1014.69
2977.68,995.48
2979.14,992.162
2980.59,1021.09
2982.05,998.441
2983.5,982.09
2984.96,997.903
2986.41,975.156
2987.86,984.917
2989.32,988.426
2990.77,950.855
2992.23,999.271
2993.68,945.509
2995.13,962.691
2996.59,958.624
2998.04,978.803
2999.5,957.021
3000.95,953.038
3002.41,952.659
3003.86,946.468
3005.31,951.352
3006.77,940.6
3008.22,940.193
3009.68,923.794
3011.13,916.042
3012.59,910.082
3014.04,923.244
3015.49,924.368
3016.95,950.021
3018.4,932.588
3019.86,911.817
3021.31,932.76
3022.76,938.327
3024.22,900.087
3025.67,914.015
3027.13,917.631
3028.58,905.185
3030.04,940.07
3031.49,896.842
3032.94,900.199
3034.4,912.526
3035.85,914.399
3037.31,899.72
3038.76,891.62
3040.22,898.114
3041.67,917.119
3043.12,896.352
3044.58,900.914
3046.03,919.63
3047.49,910.272
3048.94,883.986
3050.4,924.978
3051.85,903.11
3053.3,909.642
3054.76,892.332
3056.21,915.213
3057.67,941.483
3059.12,908.414
3060.57,907.196
3062.03,959.162
3063.48,928.454
3064.94,925.784
3066.39,927.869
3067.85,941.722
3069.3,924.138
3070.75,921.202
3072.21,950.95
3073.66,948.958
3075.12,937.829
3076.57,951.597
3078.03,969.796
3079.48,942.575
3080.93,968.144
3082.39,953.564
3083.84,950.112
3085.3,920.336
3086.75,983.128
3088.2,966.673
3089.66,982.463
3091.11,1025.03
3092.57,1001.12
3094.02,988.167
3095.48,1020.91
3096.93,1048.55
3098.38,1024.38
3099.84,1032.94
3101.29,1071.88
3102.75,1073.25
3104.2,1039.63
3105.66,1062.21
3107.11,1167.62
3108.56,1113.23
3110.02,1118.7
3111.47,1165.21
3112.93,1175.3
3114.38,1186.27
3115.83,1206.63
3117.29,1210.05
3118.74,1213.07
3120.2,1230.42
3121.65,1230.35
3123.11,1242.26
3124.56,1284.08
3126.01,1238.78
3127.47,1282.05
3128.92,1315.78
3130.38,1325.9
3131.83,1361.97
3133.29,1347.88
3134.74,1340.02
3136.19,1381.52
3137.65,1368.76
3139.1,1365.84
3140.56,1366.85
3142.01,1358.79
3143.47,1363.41
3144.92,1367.62
3146.37,1376.63
3147.83,1419.61
3149.28,1354.65
3150.74,1406.26
3152.19,1451.06
3153.64,1449.1
3155.1,1403.38
3156.55,1430.65
3158.01,1373.93
3159.46,1401.34
3160.92,1430.33
3162.37,1438.13
3163.82,1464.24
3165.28,1456.03
3166.73,1467.74
3168.19,1490.73
3169.64,1522.49
3171.1,1503.91
3172.55,1506.06
3174,1522.56
3175.46,1527.51
3176.91,1562.09
3178.37,1605.38
3179.82,1566.38
3181.27,1624.32
3182.73,1641.47
3184.18,1651.27
3185.64,1689.27
3187.09,1718.94
3188.55,1739.39
3190,1738.47
3191.45,1752.26
3192.91,1774.19
3194.36,1767.19
3195.82,1764.22
3197.27,1787.77
3198.73,1796.35
3200.18,1780.86
3201.63,1787.57
3203.09,1768.13
3204.54,1797.86
3206,1774.65
3207.45,1741.23
3208.9,1714.74
3210.36,1720.8
3211.81,1708.91
3213.27,1667.74
3214.72,1634.74
3216.18,1626.89
3217.63,1565.87
3219.08,1539.6
3220.54,1503.37
3221.99,1448.06
3223.45,1414.95
3224.9,1365
3226.36,1348.4
3227.81,1361.53
3229.26,1289.21
3230.72,1265.85
3232.17,1217.57
3233.63,1194.57
3235.08,1173.96
3236.53,1111.91
3237.99,1115.13
3239.44,1048.24
3240.9,1039.44
3242.35,1028.65
3243.81,1027.33
3245.26,993.677
3246.71,961.682
3248.17,943.062
3249.62,961.048
3251.08,935.586
3252.53,909.874
3253.99,910.999
3255.44,893.382
3256.89,873.772
3258.35,888.468
3259.8,868.682
3261.26,847.374
3262.71,833.939
3264.17,842.969
3265.62,830.625
3267.07,814.116
3268.53,818.838
3269.98,801.394
3271.44,793.326
3272.89,822.799
3274.34,821.687
3275.8,777.605
3277.25,774.105
3278.71,772.352
3280.16,770.139
3281.62,771.574
3283.07,773.589
3284.52,758.114
3285.98,775.188
3287.43,751.572
3288.89,754.56
3290.34,756.849
3291.8,727.279
3293.25,747.754
3294.7,787.078
3296.16,764.401
3297.61,756.511
3299.07,747.367
3300.52,769.221
3301.97,763.646
3303.43,731.684
3304.88,751.314
3306.34,756.272
3307.79,743.318
3309.25,771.63
3310.7,731.647
3312.15,749.139
3313.61,734.988
3315.06,733.542
3316.52,740.238
3317.97,718.439
3319.43,746.143
3320.88,743.322
3322.33,731.913
3323.79,735.123
3325.24,742.946
3326.7,747.624
3328.15,728.672
3329.6,728.31
3331.06,739.917
3332.51,736.69
3333.97,735.566
3335.42,754.035
3336.88,694.732
3338.33,744.886
3339.78,722.029
3341.24,714.71
3342.69,721.241
3344.15,732.175
3345.6,731.964
3347.06,727.552
3348.51,740.302
3349.96,704.948
3351.42,721.476
3352.87,704.85
3354.33,716.349
3355.78,724.134
3357.24,731.647
3358.69,727.8
3360.14,715.1
3361.6,737.321
3363.05,713.304
3364.51,714.641
3365.96,728.169
3367.41,730.867
3368.87,715.559
3370.32,713.634
3371.78,697.823
3373.23,706.456
3374.69,723.537
3376.14,736.496
3377.59,719.628
3379.05,703.446
3380.5,696.891
3381.96,713.587
3383.41,716.74
3384.87,693.661
3386.32,701.584
3387.77,728.2
3389.23,711.377
3390.68,725.548
3392.14,701.35
3393.59,720.311
3395.04,769.815
3396.5,720.931
3397.95,710.281
3399.41,717.261
3400.86,700.755
3402.32,721.403
3403.77,731.513
3405.22,707.332
3406.68,693.631
3408.13,703.006
3409.59,719.603
3411.04,728.737
3412.5,702.873
3413.95,700.456
3415.4,697.061
3416.86,695.039
3418.31,722.279
3419.77,705.371
3421.22,721.026
3422.68,719.507
3424.13,662.56
3425.58,725.55
3427.04,712.681
3428.49,712.98
3429.95,699.838
3431.4,714.03
3432.85,703.984
3434.31,684.217
3435.76,712.019
3437.22,714.846
3438.67,694.508
3440.13,705.908
3441.58,667.062
3443.03,690.852
3444.49,707.519
3445.94,687.804
3447.4,673.689
3448.85,715.598
3450.31,677.783
3451.76,711.413
3453.21,710.719
3454.67,725.189
3456.12,688.763
3457.58,730.668
3459.03,702.719
3460.48,729.793
3461.94,719.489
3463.39,711.765
3464.85,713.725
3466.3,687.897
3467.76,685.461
3469.21,688.384
3470.66,708.987
3472.12,700.853
3473.57,702.06
3475.03,693.271
3476.48,694.451
3477.94,714.21
3479.39,731.054
3480.84,691.398
3482.3,695.908
3483.75,711.244
3485.21,704.729
3486.66,685.768
3488.11,711.158
3489.57,700.876
3491.02,696.636
3492.48,723.487
3493.93,708.808
3495.39,690.665
3496.84,710.454
3498.29,713.865
3499.75,703.585
3501.2,689.539
3502.66,705.731
3504.11,692.634
3505.57,682.355
3507.02,717.102
3508.47,711.814
3509.93,711.703
3511.38,712.706
3512.84,700.189
3514.29,684.845
3515.75,720.082
3517.2,706.346
3518.65,715.382
3520.11,726.19
3521.56,702.002
3523.02,698.354
3524.47,707.342
3525.92,691.031
3527.38,691.897
3528.83,717.061
3530.29,709.05
3531.74,711.43
3533.2,726.791
3534.65,719.419
3536.1,732.549
3537.56,702.165
3539.01,675.432
3540.47,718.247
3541.92,715.377
3543.38,674.918
3544.83,679.708
3546.28,694.119
3547.74,696.885
3549.19,719.344
3550.65,732.274
3552.1,691.487
3553.55,713.147
3555.01,722.106
3556.46,712.538
3557.92,710.632
3559.37,674.28
3560.83,701.642
3562.28,696.87
3563.73,685.332
3565.19,692.329
3566.64,672.111
3568.1,680.902
3569.55,690.261
3571.01,695.061
3572.46,701.536
3573.91,689.54
3575.37,680.298
3576.82,695.519
3578.28,701.302
3579.73,706.046
3581.18,718.303
3582.64,711.921
3584.09,686.546
3585.55,702.263
3587,716.417
3588.46,681.122
3589.91,688.507
3591.36,682.324
3592.82,678.742
3594.27,672.443
3595.73,710.207
3597.18,709.81
3598.64,715.78
3600.09,714.063
3601.54,719.964
3603,715.17
3604.45,705.122
3605.91,688.896
3607.36,714.048
3608.82,710.101
3610.27,696.53
3611.72,707.954
3613.18,668.283
3614.63,710.872
3616.09,699.831
3617.54,709.74
3618.99,719.329
3620.45,734.188
3621.9,689.882
3623.36,710.399
3624.81,714.745
3626.27,703.611
3627.72,713.454
3629.17,696.266
3630.63,724.333
3632.08,692.276
3633.54,689.813
3634.99,718.665
3636.45,712.915
3637.9,698.664
3639.35,702.081
3640.81,695.076
3642.26,711.026
3643.72,686.339
3645.17,677.015
3646.62,697.054
3648.08,718.261
3649.53,694.241
3650.99,727.316
3652.44,720.076
3653.9,695.044
3655.35,709.051
3656.8,715.92
3658.26,722.556
3659.71,736.244
3661.17,711.588
3662.62,704.267
3664.08,699.451
3665.53,720.772
3666.98,697.218
3668.44,717.157
3669.89,728.55
3671.35,728.655
3672.8,718.103
3674.25,705.58
3675.71,715.604
3677.16,704.873
3678.62,709.859
3680.07,706.978
3681.53,706.358
3682.98,709.448
3684.43,701.987
3685.89,714.868
3687.34,709.513
3688.8,735.039
3690.25,714.215
3691.71,708.834
3693.16,726.501
3694.61,679.981
3696.07,688.437
3697.52,698.159
3698.98,725.85
3700.43,686.911
3701.89,721.506
3703.34,708.518
3704.79,690.759
3706.25,721.112
3707.7,703.502
3709.16,699.388
3710.61,711.673
3712.06,735.684
3713.52,751.704
3714.97,726.067
3716.43,727.811
3717.88,698.367
3719.34,722.869
3720.79,727.575
3722.24,718.847
3723.7,723.5
3725.15,743.564
3726.61,735.721
3728.06,754.358
3729.52,713.266
3730.97,720.311
3732.42,704.696
3733.88,722.306
3735.33,753.309
3736.79,739.286
3738.24,707.732
3739.69,719.361
3741.15,733.504
3742.6,740.048
3744.06,740.262
3745.51,709.467
3746.97,710.905
3748.42,732.169
3749.87,728.235
3751.33,726.798
3752.78,713.834
3754.24,715.47
3755.69,714.93
3757.15,730.937
3758.6,770.387
3760.05,741.056
3761.51,748.218
3762.96,726.144
3764.42,717.813
3765.87,722.672
3767.32,723.018
3768.78,726.699
3770.23,715.576
3771.69,727.834
3773.14,729.836
3774.6,734.647
3776.05,724.898
3777.5,755.417
3778.96,723.597
3780.41,738.927
3781.87,718.463
3783.32,720.91
3784.78,760.654
3786.23,740.77
3787.68,725.437
3789.14,730.655
3790.59,748.065
3792.05,717.206
3793.5,755.612
3794.96,727.335
3796.41,704.198
3797.86,707.237
3799.32,744.017
3800.77,728.664
3802.23,759.909
3803.68,709.717
3805.13,743.88
3806.59,759.513
3808.04,759.918
3809.5,724.565
3810.95,733.398
3812.41,793.425
3813.86,760.028
3815.31,767.004
3816.77,744.316
3818.22,771.007
3819.68,792.907
3821.13,799.185
3822.59,771.417
3824.04,763.58
3825.49,769.432
3826.95,755.031
3828.4,750.653
3829.86,737.816
3831.31,761.528
3832.76,734.44
3834.22,769.703
3835.67,746.387
3837.13,744.634
3838.58,781.682
3840.04,758.625
3841.49,757.031
3842.94,698.695
3844.4,758.882
3845.85,748.642
3847.31,747.105
3848.76,792.118
3850.22,760.291
3851.67,763.6
3853.12,788.672
3854.58,747.787
3856.03,778.457
3857.49,744.327
3858.94,752.794
3860.4,801.154
3861.85,801.449
3863.3,778.824
3864.76,772.347
3866.21,802.23
3867.67,769.533
3869.12,770.1
3870.57,751.561
3872.03,764.677
3873.48,785.079
3874.94,801.693
3876.39,807.057
3877.85,763.077
3879.3,763.542
3880.75,770.984
3882.21,756.166
3883.66,785.182
3885.12,811.11
3886.57,809.869
3888.03,790.689
3889.48,786.602
3890.93,791.086
3892.39,801.752
3893.84,811.624
3895.3,798.247
3896.75,805.33
3898.2,781.886
3899.66,820.498
3901.11,822.496
3902.57,828.945
3904.02,825.392
3905.48,807.124
3906.93,796.573
3908.38,811.276
3909.84,835.792
3911.29,781.594
3912.75,804.493
3914.2,824.924
3915.66,847.993
3917.11,797.313
3918.56,834.864
3920.02,815.832
3921.47,835.949
3922.93,825.251
3924.38,834.799
3925.83,834.696
3927.29,865.973
3928.74,821.191
3930.2,874.263
3931.65,850.265
3933.11,816.385
3934.56,850.117
3936.01,874.651
3937.47,881.193
3938.92,881.035
3940.38,870.058
3941.83,859.951
3943.29,849.9
3944.74,851.339
3946.19,888.322
3947.65,894.502
3949.1,881.941
3950.56,868.911
3952.01,908.813
3953.47,857.225
3954.92,884.463
3956.37,849.848
3957.83,889.393
3959.28,910.215
3960.74,902.504
3962.19,899.719
3963.64,878.52
3965.1,890.108
3966.55,926.88
3968.01,888.563
3969.46,895.856
3970.92,877.204
3972.37,889.127
3973.82,904.982
3975.28,920.375
3976.73,911.463
3978.19,904.218
3979.64,941.285
3981.1,924.449
3982.55,917.163
3984,908.39
3985.46,929.898
3986.91,912.785
3988.37,928.558
3989.82,944.416
3991.27,959.663
3992.73,953.791
3994.18,969.874
3995.64,944.035
3997.09,943.526
3998.55,916.668
4000,932.541
