-50,50.4724
-48.5458,50.1105
-47.0916,50.8988
-45.6373,47.7795
-44.1831,45.964
-42.7289,46.9099
-41.2747,47.8589
-39.8205,48.1241
-38.3662,49.1157
-36.912,50.9744
-35.4578,55.0801
-34.0036,60.8139
-32.5494,60.8411
-31.0952,64.1009
-29.6409,63.5007
-28.1867,62.7544
-26.7325,65.2644
-25.2783,61.7883
-23.8241,64.8109
-22.3698,66.6625
-20.9156,68.9499
-19.4614,74.1068
-18.0072,74.6182
-16.553,80.3195
-15.0987,91.1386
-13.6445,105.94
-12.1903,118.18
-10.7361,139.083
-9.28187,739.81
-7.82765,109.073
-6.37343,109.073
-4.91921,109.073
-3.46499,109.073
-2.01077,109.073
-0.556553,109.073
0.897666,109.073
2.35189,109.073
3.8061,553.236
5.26032,138.572
6.71454,108.976
8.16876,97.6661
9.62298,86.5095
11.0772,79.6981
12.5314,76.2378
13.9856,80.9868
15.4399,81.3531
16.8941,79.5029
18.3483,75.4677
19.8025,72.2917
21.2567,66.5976
22.711,70.1314
24.1652,70.0459
25.6194,67.1167
27.0736,63.4522
28.5278,63.07
29.982,60.7672
31.4363,60.7283
32.8905,60.1617
34.3447,58.213
35.7989,61.6413
37.2531,61.9136
38.7074,64.2766
40.1616,65.4976
41.6158,67.3961
43.07,79.2743
44.5242,92.0905
45.9785,117.803
47.4327,181.219
48.8869,275.334
50.3411,405.808
51.7953,589.945
53.2495,796.709
54.7038,992.285
56.158,1166.92
57.6122,1308.99
59.0664,1430.69
60.5206,1531.49
61.9749,1618.27
63.4291,1673.87
64.8833,1704.15
66.3375,1734.63
67.7917,1763.74
69.246,1753.72
70.7002,1728.7
72.1544,1732.49
73.6086,1758.13
75.0628,1798.6
76.5171,1842.18
77.9713,1888.42
79.4255,1919.47
80.8797,1933.36
82.3339,1921.56
83.7882,1898.97
85.2424,1860.33
86.6966,1808.17
88.1508,1736.19
89.605,1687.17
91.0592,1615.02
92.5135,1549.13
93.9677,1500.28
95.4219,1461.06
96.8761,1446.15
98.3303,1428.55
99.7846,1377.52
101.239,1333.83
102.693,1310.7
104.147,1296.9
105.601,1276.48
107.056,1260.7
108.51,1243.35
109.964,1238.34
111.418,1211.98
112.873,1199.54
114.327,1184.17
115.781,1157.34
117.235,1139.38
118.689,1119.69
120.144,1095
121.598,1060.79
123.052,1041.99
124.506,1052.11
125.961,1004.18
127.415,974.265
128.869,968.572
130.323,974.156
131.777,947.605
133.232,922.624
134.686,899.556
136.14,880.486
137.594,865.741
139.048,872.235
140.503,877.515
141.957,856.944
143.411,837.229
144.865,836.397
146.32,840.635
147.774,830.074
149.228,814.589
150.682,792.424
152.136,792.781
153.591,794.835
155.045,790.269
156.499,799.058
157.953,815.779
159.408,805.894
160.862,782.088
162.316,775.538
163.77,746.586
165.224,742.884
166.679,757.96
168.133,740.494
169.587,743.22
171.041,741.46
172.496,734.227
173.95,738.401
175.404,723.52
176.858,725.968
178.312,711.008
179.767,705.823
181.221,707.354
182.675,703.194
184.129,699.387
185.583,691.82
187.038,694.357
188.492,698.695
189.946,677.082
191.4,675.894
192.855,681.885
194.309,675.819
195.763,661.16
197.217,670.971
198.671,662.47
200.126,658.511
201.58,662.66
203.034,655.148
204.488,669.397
205.943,685.622
207.397,679.081
208.851,667.39
210.305,677.317
211.759,676.847
213.214,678.632
214.668,674.691
216.122,670.689
217.576,666.822
219.031,657.332
220.485,676.129
221.939,674.665
223.393,663.467
224.847,660.099
226.302,685.138
227.756,677.879
229.21,677.233
230.664,665.986
232.118,647.892
233.573,659.801
235.027,673.9
236.481,666.097
237.935,673.122
239.39,692.374
240.844,678.996
242.298,653.803
243.752,646.806
245.206,652.44
246.661,655.831
248.115,635.096
249.569,639.341
251.023,636.208
252.478,627.845
253.932,626.785
255.386,647.5
256.84,664.586
258.294,655.808
259.749,637.072
261.203,633.742
262.657,639.378
264.111,620.882
265.566,624.145
267.02,621.2
268.474,622.592
269.928,630.459
271.382,645.893
272.837,608.093
274.291,602.449
275.745,599.294
277.199,595.815
278.654,614.902
280.108,608.208
281.562,597.634
283.016,599.08
284.47,599.831
285.925,573.12
287.379,573.356
288.833,571.034
290.287,567.021
291.741,560.677
293.196,564.323
294.65,557.789
296.104,556.012
297.558,559.56
299.013,554.882
300.467,546.026
301.921,549.791
303.375,542.051
304.829,532.053
306.284,534.978
307.738,549.919
309.192,552.972
310.646,523.969
312.101,513.289
313.555,521.381
315.009,531.589
316.463,524.856
317.917,532.449
319.372,516.251
320.826,516.713
322.28,518.817
323.734,505.412
325.189,513.196
326.643,502.459
328.097,513.908
329.551,524.138
331.005,520.081
332.46,510.52
333.914,527.011
335.368,516.9
336.822,514.489
338.276,512.339
339.731,499.768
341.185,495.795
342.639,508.782
344.093,493.392
345.548,490.825
347.002,511.221
348.456,493.074
349.91,489.872
351.364,498.638
352.819,502.852
354.273,500.201
355.727,500.931
357.181,492.648
358.636,503.112
360.09,505.496
361.544,502.922
362.998,502.153
364.452,491.22
365.907,484.066
367.361,484.353
368.815,485.691
370.269,486.18
371.724,487.274
373.178,477.449
374.632,488.144
376.086,495.527
377.54,489.98
378.995,481.603
380.449,476.331
381.903,476.518
383.357,478.903
384.811,484.954
386.266,493.755
387.72,488.538
389.174,486.522
390.628,482.457
392.083,486.597
393.537,493.41
394.991,490.951
396.445,488.046
397.899,489.879
399.354,495.149
400.808,491.368
402.262,480.7
403.716,475.315
405.171,487.652
406.625,489.161
408.079,474.486
409.533,471.324
410.987,495.881
412.442,476.708
413.896,484.791
415.35,484.176
416.804,485.975
418.259,488.842
419.713,490.783
421.167,504.338
422.621,481.433
424.075,478.232
425.53,485.478
426.984,486.417
428.438,494.149
429.892,493.431
431.346,487.848
432.801,486.108
434.255,480.296
435.709,465.833
437.163,471.788
438.618,484.404
440.072,478.907
441.526,468.569
442.98,467.316
444.434,475.659
445.889,475.263
447.343,477.098
448.797,473.219
450.251,476.148
451.706,486.157
453.16,473.689
454.614,482.968
456.068,481.27
457.522,477.336
458.977,469.582
460.431,462.189
461.885,475.901
463.339,493.58
464.794,486.379
466.248,490.804
467.702,491.562
469.156,465.666
470.61,468.086
472.065,486.853
473.519,490.406
474.973,486.581
476.427,484.983
477.882,478.556
479.336,472.395
480.79,477.391
482.244,471.674
483.698,470.432
485.153,479.044
486.607,471.882
488.061,486.965
489.515,479.862
490.969,465.123
492.424,462.584
493.878,480.789
495.332,463.836
496.786,460.706
498.241,472.297
499.695,468.531
501.149,456.898
502.603,460.557
504.057,465.474
505.512,468.617
506.966,467.247
508.42,466.318
509.874,465.453
511.329,451.368
512.783,455.904
514.237,450.778
515.691,469.515
517.145,473.802
518.6,460.038
520.054,447.898
521.508,457.202
522.962,457.409
524.417,455.517
525.871,448.332
527.325,445.281
528.779,449.233
530.233,465.872
531.688,460.963
533.142,454.68
534.596,457.166
536.05,455.568
537.505,465.67
538.959,467.119
540.413,465.705
541.867,461.565
543.321,462.825
544.776,454.854
546.23,457.288
547.684,448.365
549.138,451.004
550.592,465.509
552.047,466.307
553.501,459.33
554.955,455.1
556.409,447.051
557.864,440.705
559.318,438.89
560.772,445.354
562.226,453.99
563.68,467.933
565.135,466.59
566.589,462.774
568.043,467.783
569.497,462.532
570.952,447.907
572.406,456.251
573.86,467.191
575.314,457.674
576.768,453.289
578.223,454.686
579.677,446.743
581.131,456.565
582.585,457.353
584.039,454.361
585.494,451.735
586.948,452.294
588.402,450.795
589.856,448.199
591.311,443.3
592.765,457.241
594.219,447.193
595.673,441.759
597.127,442.903
598.582,443.876
600.036,452.175
601.49,456.763
602.944,460.264
604.399,454.266
605.853,453.571
607.307,459.79
608.761,450.055
610.215,457.179
611.67,470.53
613.124,463.64
614.578,454.778
616.032,470.835
617.487,467.934
618.941,456.324
620.395,458.236
621.849,457.24
623.303,460.76
624.758,470.427
626.212,477.528
627.666,466.931
629.12,455.553
630.575,467.221
632.029,470.305
633.483,462.175
634.937,447.563
636.391,463.546
637.846,472.818
639.3,468.798
640.754,470.905
642.208,472.053
643.662,479.951
645.117,468.607
646.571,472.773
648.025,482.445
649.479,475.723
650.934,472.056
652.388,476.769
653.842,466.605
655.296,477.637
656.75,484.202
658.205,477.318
659.659,475.686
661.113,476.191
662.567,472.334
664.022,483.319
665.476,481.905
666.93,478.834
668.384,489.193
669.838,491.794
671.293,474.582
672.747,484.635
674.201,487.073
675.655,476.717
677.109,482.856
678.564,483.225
680.018,489.54
681.472,490.628
682.926,486.877
684.381,484.213
685.835,485.455
687.289,486.14
688.743,479.001
690.198,474.625
691.652,491.231
693.106,487.286
694.56,488.961
696.014,490.917
697.469,490.38
698.923,493.346
700.377,490.517
701.831,491.544
703.285,474.383
704.74,484.186
706.194,487.172
707.648,491.056
709.102,487.678
710.557,486.967
712.011,490.961
713.465,495.482
714.919,481.742
716.373,478.07
717.828,489.41
719.282,494.681
720.736,477.095
722.19,475.704
723.645,479.972
725.099,488.654
726.553,499.465
728.007,506.341
729.461,489.354
730.916,492.842
732.37,494.569
733.824,492.656
735.278,498.293
736.732,496.385
738.187,479.775
739.641,501.425
741.095,498.353
742.549,495.169
744.004,498.449
745.458,496.074
746.912,496.235
748.366,499.48
749.82,488.258
751.275,486.825
752.729,490.665
754.183,500.526
755.637,506.835
757.092,496.988
758.546,487.21
760,500.452
761.454,499.64
762.908,489.362
764.363,482.051
765.817,479.263
767.271,493.377
768.725,498.573
770.18,495.954
771.634,489.214
773.088,501.697
774.542,507.386
775.996,496.158
777.451,493.134
778.905,493.884
780.359,502.145
781.813,486.681
783.268,500.75
784.722,505.848
786.176,502.291
787.63,506.589
789.084,498.001
790.539,514.037
791.993,498.992
793.447,492.63
794.901,491.678
796.355,505.153
797.81,514.859
799.264,504.926
800.718,511.019
802.172,503.738
803.627,514.137
805.081,512.108
806.535,510.457
807.989,523.011
809.443,519.802
810.898,499.113
812.352,509.791
813.806,516.158
815.26,517.607
816.715,515.036
818.169,503.672
819.623,519.04
821.077,526.753
822.531,516.767
823.986,526.552
825.44,535.757
826.894,528.842
828.348,528.591
829.802,513.955
831.257,522.012
832.711,547.958
834.165,533.107
835.619,518.198
837.074,525.864
838.528,529.29
839.982,524.962
841.436,534.086
842.891,541.726
844.345,544.652
845.799,561.124
847.253,565.667
848.707,549.661
850.162,534.297
851.616,537.1
853.07,536.635
854.524,563.644
855.978,570.058
857.433,552.478
858.887,540.116
860.341,544.084
861.795,545.99
863.25,543.004
864.704,537.708
866.158,537.436
867.612,531.309
869.066,530.354
870.521,526.508
871.975,517.056
873.429,532.464
874.883,549.487
876.338,532.081
877.792,536.286
879.246,542.255
880.7,544.655
882.154,544.786
883.609,563.221
885.063,569.674
886.517,556.777
887.971,537.744
889.425,536.632
890.88,546.386
892.334,547.766
893.788,549.419
895.242,548.183
896.697,548.342
898.151,552.532
899.605,541.344
901.059,545.354
902.513,557.182
903.968,556.999
905.422,556.816
906.876,563.454
908.33,564.234
909.785,557.944
911.239,555.153
912.693,553.71
914.147,568.627
915.601,570.576
917.056,557.657
918.51,565.822
919.964,567.745
921.418,570.8
922.873,577.571
924.327,575.446
925.781,569.861
927.235,566.898
928.689,563.348
930.144,580.057
931.598,589.365
933.052,580.408
934.506,570.039
935.961,569.869
937.415,565.953
938.869,570.887
940.323,575.455
941.777,577.035
943.232,576.578
944.686,576.695
946.14,575.425
947.594,561.84
949.048,569.071
950.503,576.967
951.957,573.457
953.411,588.341
954.865,580.355
956.32,574.729
957.774,568.51
959.228,559.673
960.682,568.138
962.136,589.432
963.591,576.607
965.045,571.513
966.499,578.074
967.953,576.507
969.408,568.927
970.862,571.441
972.316,565.844
973.77,574.193
975.224,574.825
976.679,579.845
978.133,573.987
979.587,574.491
981.041,589.951
982.495,592.652
983.95,601.466
985.404,602.861
986.858,578.987
988.312,582.962
989.767,595.011
991.221,601.272
992.675,601.526
994.129,591.931
995.583,589.866
997.038,605.07
998.492,622.001
999.946,618.223
1001.4,619.425
1002.85,609.988
1004.31,604.128
1005.76,613.545
1007.22,610.285
1008.67,601.968
1010.13,621.288
1011.58,607.124
1013.03,605.49
1014.49,619.624
1015.94,633.164
1017.4,639.83
1018.85,643.011
1020.31,648.561
1021.76,638.728
1023.21,645.37
1024.67,649.566
1026.12,644.011
1027.58,648.717
1029.03,659.806
1030.48,661.558
1031.94,672.485
1033.39,672.867
1034.85,670.366
1036.3,682.279
1037.76,688.077
1039.21,685.705
1040.66,692.051
1042.12,696.801
1043.57,716.466
1045.03,695.158
1046.48,682.139
1047.94,691.333
1049.39,709.44
1050.84,721.314
1052.3,733.872
1053.75,742.563
1055.21,745.506
1056.66,740.116
1058.11,744.887
1059.57,735.189
1061.02,750.496
1062.48,761.062
1063.93,771.678
1065.39,780.058
1066.84,781.994
1068.29,793.816
1069.75,795.706
1071.2,816.891
1072.66,814.332
1074.11,809.199
1075.57,816.393
1077.02,808.196
1078.47,813.166
1079.93,854.456
1081.38,844.477
1082.84,850.645
1084.29,829.825
1085.75,833.706
1087.2,829.311
1088.65,830.494
1090.11,843.832
1091.56,844.913
1093.02,834.165
1094.47,861.471
1095.92,831.271
1097.38,824.777
1098.83,827.865
1100.29,824.987
1101.74,826.146
1103.2,831.754
1104.65,824.311
1106.1,803.631
1107.56,781.994
1109.01,795.154
1110.47,784.195
1111.92,793.645
1113.38,790.3
1114.83,802.278
1116.28,812.847
1117.74,803.747
1119.19,785.626
1120.65,779.21
1122.1,778.448
1123.55,766.345
1125.01,774.549
1126.46,782.679
1127.92,781.458
1129.37,767.564
1130.83,775.198
1132.28,783.978
1133.73,761.796
1135.19,764.315
1136.64,751.171
1138.1,768.708
1139.55,777.087
1141.01,763.748
1142.46,753.844
1143.91,754.589
1145.37,760.625
1146.82,743.932
1148.28,770.587
1149.73,746.775
1151.18,754.629
1152.64,774.745
1154.09,770.754
1155.55,765.48
1157,768.555
1158.46,776.52
1159.91,773.343
1161.36,783.324
1162.82,785.284
1164.27,779.607
1165.73,773.194
1167.18,760.803
1168.64,759.54
1170.09,768.43
1171.54,772.883
1173,777.077
1174.45,779.023
1175.91,777.307
1177.36,771.271
1178.82,784.203
1180.27,779.7
1181.72,780.82
1183.18,788.799
1184.63,796.133
1186.09,804.183
1187.54,810.366
1188.99,819.193
1190.45,799.664
1191.9,778.463
1193.36,802.589
1194.81,810.747
1196.27,801.313
1197.72,790.176
1199.17,792.781
1200.63,810.063
1202.08,812.668
1203.54,815.958
1204.99,813.811
1206.45,815.219
1207.9,826.621
1209.35,838.823
1210.81,830.968
1212.26,818.4
1213.72,821.036
1215.17,828.565
1216.62,822.856
1218.08,815.522
1219.53,810.537
1220.99,823.432
1222.44,844.757
1223.9,846.989
1225.35,829.724
1226.8,818.486
1228.26,835.253
1229.71,844.462
1231.17,837.151
1232.62,856.695
1234.08,868.937
1235.53,855.576
1236.98,840.682
1238.44,846.111
1239.89,867.343
1241.35,882.508
1242.8,881.482
1244.25,895.567
1245.71,888.038
1247.16,886.677
1248.62,903.328
1250.07,912.086
1251.53,915.469
1252.98,910.289
1254.43,917.429
1255.89,916.596
1257.34,908.656
1258.8,930.946
1260.25,943.242
1261.71,978.208
1263.16,991.951
1264.61,997.356
1266.07,1012.11
1267.52,1004.44
1268.98,997.963
1270.43,1015.67
1271.89,1048.39
1273.34,1078.22
1274.79,1073.42
1276.25,1082.42
1277.7,1090.01
1279.16,1126.18
1280.61,1153.04
1282.06,1159.75
1283.52,1162.06
1284.97,1201.87
1286.43,1235.75
1287.88,1250.74
1289.34,1298.65
1290.79,1348.25
1292.24,1338.66
1293.7,1387.02
1295.15,1418.62
1296.61,1463.58
1298.06,1513.35
1299.52,1584.43
1300.97,1638.36
1302.42,1681.16
1303.88,1741.35
1305.33,1795.63
1306.79,1913.68
1308.24,1982.99
1309.69,2066.29
1311.15,2151.54
1312.6,2260.13
1314.06,2363.02
1315.51,2461.2
1316.97,2548.36
1318.42,2627.69
1319.87,2710.07
1321.33,2773.55
1322.78,2920.73
1324.24,3024.26
1325.69,3112.11
1327.15,3116.79
1328.6,3214.76
1330.05,3237.34
1331.51,3212.45
1332.96,3218.93
1334.42,3198.81
1335.87,3156.02
1337.32,3137.99
1338.78,3075.49
1340.23,3011.09
1341.69,2920.38
1343.14,2812.89
1344.6,2686.12
1346.05,2606.73
1347.5,2512
1348.96,2418.17
1350.41,2311.43
1351.87,2211.62
1353.32,2133.96
1354.78,2039.88
1356.23,1951.12
1357.68,1863.51
1359.14,1789.93
1360.59,1724.82
1362.05,1677.97
1363.5,1601.46
1364.96,1569.77
1366.41,1537.41
1367.86,1488.29
1369.32,1450.45
1370.77,1402.12
1372.23,1369.34
1373.68,1347.68
1375.13,1343.78
1376.59,1315.43
1378.04,1280.1
1379.5,1262.01
1380.95,1253.88
1382.41,1224
1383.86,1201.79
1385.31,1197.93
1386.77,1194.49
1388.22,1176.36
1389.68,1159.3
1391.13,1143
1392.59,1125.63
1394.04,1154.94
1395.49,1128.44
1396.95,1128.96
1398.4,1125.56
1399.86,1112.29
1401.31,1107.04
1402.76,1095.2
1404.22,1095.82
1405.67,1115.56
1407.13,1100.97
1408.58,1081.41
1410.04,1086.31
1411.49,1103.64
1412.94,1084.76
1414.4,1098.52
1415.85,1100.34
1417.31,1089.93
1418.76,1084.29
1420.22,1098.34
1421.67,1115.72
1423.12,1107.16
1424.58,1103.98
1426.03,1107.24
1427.49,1098.31
1428.94,1126.54
1430.4,1125.23
1431.85,1120.49
1433.3,1132.74
1434.76,1133.22
1436.21,1144.98
1437.67,1135.84
1439.12,1140.68
1440.57,1158.12
1442.03,1161.22
1443.48,1167.91
1444.94,1180
1446.39,1194.13
1447.85,1179.35
1449.3,1191.36
1450.75,1187.34
1452.21,1193.02
1453.66,1205.86
1455.12,1226.69
1456.57,1236.95
1458.03,1241.39
1459.48,1250.19
1460.93,1258.09
1462.39,1270.6
1463.84,1264.81
1465.3,1288.86
1466.75,1312.13
1468.2,1330.99
1469.66,1320.55
1471.11,1346.46
1472.57,1369.36
1474.02,1349.48
1475.48,1375.05
1476.93,1401.72
1478.38,1396.07
1479.84,1417.24
1481.29,1459.52
1482.75,1452.9
1484.2,1509.07
1485.66,1519.42
1487.11,1554.21
1488.56,1580.9
1490.02,1606.41
1491.47,1623.08
1492.93,1656.99
1494.38,1709.26
1495.83,1702.21
1497.29,1744.29
1498.74,1809.75
1500.2,1854.89
1501.65,1908.06
1503.11,1955.11
1504.56,1993.69
1506.01,2010.97
1507.47,2086.41
1508.92,2169.3
1510.38,2260.14
1511.83,2312.81
1513.29,2382.12
1514.74,2479.68
1516.19,2600.11
1517.65,2732.95
1519.1,2887.66
1520.56,3046.4
1522.01,3186.14
1523.46,3302.87
1524.92,3520.79
1526.37,3742.46
1527.83,4031.32
1529.28,4321.01
1530.74,4625.48
1532.19,4889.39
1533.64,5358.68
1535.1,5807
1536.55,6271.41
1538.01,6778.13
1539.46,7376.5
1540.92,8066.8
1542.37,8695.28
1543.82,9380.93
1545.28,10199.1
1546.73,11024.7
1548.19,11851
1549.64,12761.1
1551.1,13665.4
1552.55,14447.2
1554,15466.1
1555.46,16269.5
1556.91,17084.4
1558.37,17832.1
1559.82,18372.3
1561.27,18909.7
1562.73,19218
1564.18,19349.7
1565.64,19328.3
1567.09,18992.3
1568.55,18539
1570,17889.8
1571.45,16986.5
1572.91,16190.4
1574.36,15228.4
1575.82,14256.8
1577.27,13202.6
1578.73,12206.7
1580.18,11283.1
1581.63,10434.4
1583.09,9562.53
1584.54,8748.09
1586,8048.98
1587.45,7486.65
1588.9,6957.54
1590.36,6400.11
1591.81,5975.69
1593.27,5577.83
1594.72,5251.84
1596.18,4990.89
1597.63,4673.28
1599.08,4443.39
1600.54,4210.8
1601.99,4023.84
1603.45,3861.36
1604.9,3667.38
1606.36,3488.63
1607.81,3312.55
1609.26,3158.52
1610.72,2981.04
1612.17,2836.55
1613.63,2722.83
1615.08,2609.8
1616.54,2483.77
1617.99,2344.95
1619.44,2272.5
1620.9,2171.25
1622.35,2054.94
1623.81,2025.49
1625.26,1931
1626.71,1898.58
1628.17,1799.1
1629.62,1779.89
1631.08,1718.95
1632.53,1667.94
1633.99,1633.21
1635.44,1592.41
1636.89,1559.13
1638.35,1507.42
1639.8,1461.15
1641.26,1445.14
1642.71,1434.84
1644.17,1409.56
1645.62,1412.42
1647.07,1397.26
1648.53,1382.22
1649.98,1335.73
1651.44,1323.51
1652.89,1291.56
1654.34,1289.36
1655.8,1264.38
1657.25,1230.88
1658.71,1229.69
1660.16,1223.65
1661.62,1204.31
1663.07,1190.02
1664.52,1169.62
1665.98,1156.15
1667.43,1148.8
1668.89,1139.47
1670.34,1157.38
1671.8,1118.92
1673.25,1094.92
1674.7,1093.07
1676.16,1075.8
1677.61,1056.06
1679.07,1077.73
1680.52,1071.72
1681.97,1046.54
1683.43,1048.76
1684.88,1046.66
1686.34,1030.33
1687.79,1010.85
1689.25,1005.95
1690.7,1002.2
1692.15,1003.45
1693.61,998.079
1695.06,1005.75
1696.52,993.872
1697.97,975.611
1699.43,963.533
1700.88,973.456
1702.33,972.36
1703.79,985.052
1705.24,951.532
1706.7,963.743
1708.15,947.154
1709.6,943.685
1711.06,940.613
1712.51,951.991
1713.97,960.639
1715.42,940.582
1716.88,930.082
1718.33,914.248
1719.78,937.144
1721.24,933.185
1722.69,935.13
1724.15,932.905
1725.6,930.681
1727.06,932.408
1728.51,930.424
1729.96,931.311
1731.42,939.423
1732.87,931.436
1734.33,917.545
1735.78,917.74
1737.24,916.309
1738.69,893.972
1740.14,880.447
1741.6,907.194
1743.05,884.507
1744.51,898.234
1745.96,887.486
1747.41,900.427
1748.87,890.185
1750.32,900.458
1751.78,887.113
1753.23,870.609
1754.69,884.546
1756.14,875.89
1757.59,865.468
1759.05,868.004
1760.5,862.995
1761.96,855.871
1763.41,846.25
1764.87,855.855
1766.32,868.867
1767.77,847.02
1769.23,853.476
1770.68,870.088
1772.14,850.886
1773.59,840.705
1775.04,835.837
1776.5,833.962
1777.95,845.092
1779.41,820.959
1780.86,828.822
1782.32,832.166
1783.77,814.97
1785.22,812.886
1786.68,822.133
1788.13,823.665
1789.59,802.386
1791.04,834.647
1792.5,848
1793.95,832.368
1795.4,825.042
1796.86,820.344
1798.31,807.115
1799.77,816.502
1801.22,830.268
1802.68,819.94
1804.13,817.334
1805.58,792.33
1807.04,802.814
1808.49,790.02
1809.95,804.432
1811.4,799.727
1812.85,792.758
1814.31,793.372
1815.76,796.343
1817.22,788.395
1818.67,776.955
1820.13,783.449
1821.58,804.673
1823.03,795.247
1824.49,807.403
1825.94,794.492
1827.4,819.605
1828.85,801.484
1830.31,803.911
1831.76,799.485
1833.21,798.677
1834.67,815.297
1836.12,812.201
1837.58,810.685
1839.03,827.888
1840.48,827.67
1841.94,839.025
1843.39,827.266
1844.85,821.682
1846.3,838.512
1847.76,837.392
1849.21,855.56
1850.66,845.185
1852.12,837.073
1853.57,836.84
1855.03,851.244
1856.48,856.68
1857.94,849.354
1859.39,841.016
1860.84,829.265
1862.3,851.539
1863.75,828.51
1865.21,850.668
1866.66,844.182
1868.11,858.204
1869.57,833.651
1871.02,829.91
1872.48,847.402
1873.93,841.53
1875.39,844.594
1876.84,845.667
1878.29,818.867
1879.75,825.695
1881.2,828.409
1882.66,822.709
1884.11,821.114
1885.57,811.019
1887.02,794.905
1888.47,810.941
1889.93,816.992
1891.38,814.83
1892.84,818.742
1894.29,812.069
1895.75,789.989
1897.2,772.131
1898.65,773.382
1900.11,780.664
1901.56,766.058
1903.02,757.279
1904.47,765.283
1905.92,756.506
1907.38,753.154
1908.83,774.514
1910.29,762.195
1911.74,782.165
1913.2,761.763
1914.65,783.682
1916.1,787.151
1917.56,760.705
1919.01,766.436
1920.47,733.376
1921.92,752.3
1923.38,752.376
1924.83,742.762
1926.28,751.635
1927.74,769.385
1929.19,772.673
1930.65,770.342
1932.1,753.597
1933.55,767.938
1935.01,764.667
1936.46,737.33
1937.92,756.02
1939.37,754.596
1940.83,750.66
1942.28,763.886
1943.73,770.391
1945.19,761.155
1946.64,776.157
1948.1,780.104
1949.55,760.04
1951.01,754.606
1952.46,752.272
1953.91,756.667
1955.37,763.929
1956.82,758.62
1958.28,764.245
1959.73,766.364
1961.18,774.127
1962.64,779.132
1964.09,795.612
1965.55,779.646
1967,764.759
1968.46,772.703
1969.91,772.954
1971.36,772.189
1972.82,762.038
1974.27,773.516
1975.73,778.378
1977.18,788.652
1978.64,779.848
1980.09,774.177
1981.54,773.302
1983,781.364
1984.45,801.982
1985.91,799.104
1987.36,818.19
1988.82,794.477
1990.27,797.067
1991.72,807.994
1993.18,790.269
1994.63,789.966
1996.09,791.996
1997.54,816.502
1998.99,782.78
2000.45,801.002
2001.9,783.744
2003.36,789.733
2004.81,781.691
2006.27,807.652
2007.72,794.586
2009.17,788.792
2010.63,792.198
2012.08,789.484
2013.54,796.172
2014.99,781.605
2016.45,765.289
2017.9,780.019
2019.35,784.063
2020.81,783.114
2022.26,784.117
2023.72,772.61
2025.17,771.069
2026.62,783.923
2028.08,763.46
2029.53,764.218
2030.99,768.885
2032.44,753.885
2033.9,766.07
2035.35,772.447
2036.8,776.374
2038.26,749.455
2039.71,742.811
2041.17,747.388
2042.62,733.636
2044.08,747.541
2045.53,750.381
2046.98,731.296
2048.44,732.73
2049.89,736.261
2051.35,733.914
2052.8,734.249
2054.25,731.71
2055.71,734.212
2057.16,723.338
2058.62,727.513
2060.07,739.003
2061.53,731.881
2062.98,715.731
2064.43,720.032
2065.89,727.814
2067.34,715.627
2068.8,710.84
2070.25,710.855
2071.71,689.243
2073.16,699.608
2074.61,710.768
2076.07,701.364
2077.52,683.904
2078.98,691.257
2080.43,705.921
2081.89,706.036
2083.34,698.556
2084.79,707.682
2086.25,710.563
2087.7,705.577
2089.16,697.29
2090.61,699.265
2092.06,710.998
2093.52,716.2
2094.97,703.282
2096.43,704.209
2097.88,698.743
2099.34,695.056
2100.79,705.573
2102.24,706.977
2103.7,708.563
2105.15,704.705
2106.61,699.865
2108.06,711.872
2109.52,715.606
2110.97,715.749
2112.42,718.498
2113.88,713.632
2115.33,704.451
2116.79,716.627
2118.24,720.364
2119.69,725.641
2121.15,717.739
2122.6,701.92
2124.06,705.192
2125.51,714.699
2126.97,719.417
2128.42,704.863
2129.87,709.352
2131.33,722.349
2132.78,702.981
2134.24,710.168
2135.69,707.976
2137.15,708.313
2138.6,712.921
2140.05,712.665
2141.51,723.349
2142.96,726.467
2144.42,723.262
2145.87,727.876
2147.32,725.591
2148.78,719.142
2150.23,723.972
2151.69,731.855
2153.14,722.608
2154.6,731.708
2156.05,730.425
2157.5,723.25
2158.96,732.089
2160.41,736.117
2161.87,735.627
2163.32,746.744
2164.78,732.835
2166.23,737.731
2167.68,730.145
2169.14,746.047
2170.59,741.37
2172.05,741.55
2173.5,756.11
2174.96,752.55
2176.41,748.429
2177.86,736.51
2179.32,749.489
2180.77,758.077
2182.23,756.016
2183.68,748.893
2185.13,771.548
2186.59,760.285
2188.04,755.112
2189.5,766.711
2190.95,750.346
2192.41,759.017
2193.86,757.684
2195.31,760.542
2196.77,768.35
2198.22,749.053
2199.68,751.87
2201.13,777.113
2202.59,765.877
2204.04,762.7
2205.49,764.82
2206.95,748.815
2208.4,746.15
2209.86,757.731
2211.31,765.884
2212.76,786.373
2214.22,761.99
2215.67,768.372
2217.13,764.279
2218.58,771.345
2220.04,753.162
2221.49,754.266
2222.94,767.498
2224.4,764.12
2225.85,754.391
2227.31,765.181
2228.76,773.881
2230.22,760.093
2231.67,762.346
2233.12,772.265
2234.58,772.671
2236.03,781.66
2237.49,790.3
2238.94,782.064
2240.4,792.781
2241.85,788.683
2243.3,776.716
2244.76,764.194
2246.21,768.246
2247.67,773.74
2249.12,779.008
2250.57,784.39
2252.03,792.151
2253.48,781.885
2254.94,781.325
2256.39,783.34
2257.85,786.84
2259.3,780.081
2260.75,798.949
2262.21,796.67
2263.66,785.572
2265.12,792.501
2266.57,790.503
2268.03,789.126
2269.48,797.844
2270.93,783.005
2272.39,787.578
2273.84,793.271
2275.3,797.246
2276.75,804.323
2278.2,821.931
2279.66,816.697
2281.11,805.21
2282.57,813.415
2284.02,792.004
2285.48,832.547
2286.93,819.753
2288.38,819.123
2289.84,821.472
2291.29,832.018
2292.75,825.586
2294.2,832.982
2295.66,833.013
2297.11,848.918
2298.56,864.014
2300.02,847.868
2301.47,838.325
2302.93,837.377
2304.38,853.289
2305.83,849.455
2307.29,870.368
2308.74,869.054
2310.2,847.091
2311.65,853.95
2313.11,859.425
2314.56,857.131
2316.01,882.742
2317.47,882.081
2318.92,868.657
2320.38,869.691
2321.83,852.068
2323.29,880.72
2324.74,889.959
2326.19,889.251
2327.65,901.174
2329.1,905.537
2330.56,902.239
2332.01,905.615
2333.47,893.731
2334.92,908.36
2336.37,901.656
2337.83,912.793
2339.28,905.016
2340.74,913.727
2342.19,925.011
2343.64,914.403
2345.1,933.854
2346.55,951.003
2348.01,942.192
2349.46,942.199
2350.92,971.582
2352.37,949.37
2353.82,938.948
2355.28,955.468
2356.73,961.386
2358.19,959.745
2359.64,988.039
2361.1,983.917
2362.55,992.775
2364,1003.6
2365.46,1017.04
2366.91,1019.5
2368.37,1026.49
2369.82,1041.87
2371.27,1040.5
2372.73,1048.65
2374.18,1069.97
2375.64,1072.33
2377.09,1077.19
2378.55,1068.48
2380,1096.43
2381.45,1091.31
2382.91,1123.67
2384.36,1152.44
2385.82,1173.9
2387.27,1151.58
2388.73,1197.73
2390.18,1184.81
2391.63,1212.83
2393.09,1257.95
2394.54,1286.77
2396,1261.19
2397.45,1306.11
2398.9,1351.9
2400.36,1358.3
2401.81,1352.81
2403.27,1384.81
2404.72,1412.08
2406.18,1433.66
2407.63,1435.04
2409.08,1463.23
2410.54,1504.41
2411.99,1533.55
2413.45,1538.45
2414.9,1508.19
2416.36,1529.17
2417.81,1580.78
2419.26,1570.54
2420.72,1534.61
2422.17,1593.71
2423.63,1596.33
2425.08,1608.47
2426.53,1644.3
2427.99,1654.17
2429.44,1613.06
2430.9,1649.12
2432.35,1621.13
2433.81,1628.87
2435.26,1640.12
2436.71,1640.34
2438.17,1619.35
2439.62,1592.03
2441.08,1588.02
2442.53,1586.51
2443.99,1592.94
2445.44,1560.82
2446.89,1530.36
2448.35,1514.84
2449.8,1529.7
2451.26,1505.72
2452.71,1495.6
2454.17,1505.02
2455.62,1536.25
2457.07,1519.92
2458.53,1483.59
2459.98,1468.91
2461.44,1488.32
2462.89,1465.19
2464.34,1455.49
2465.8,1445.91
2467.25,1445.36
2468.71,1446.68
2470.16,1435.35
2471.62,1428.72
2473.07,1427.43
2474.52,1420.46
2475.98,1404.6
2477.43,1381.72
2478.89,1383.41
2480.34,1404.5
2481.8,1400.71
2483.25,1359.58
2484.7,1376.67
2486.16,1368.38
2487.61,1383.98
2489.07,1395.34
2490.52,1368.06
2491.97,1409.63
2493.43,1392.04
2494.88,1379.13
2496.34,1377.88
2497.79,1367.93
2499.25,1365.73
2500.7,1399.64
2502.15,1404.06
2503.61,1405.97
2505.06,1400.14
2506.52,1407.95
2507.97,1421.13
2509.43,1407.95
2510.88,1422.49
2512.33,1435.92
2513.79,1421.48
2515.24,1453.11
2516.7,1459.15
2518.15,1420.17
2519.6,1433.42
2521.06,1452.31
2522.51,1459.85
2523.97,1480.3
2525.42,1483.86
2526.88,1469.64
2528.33,1481.77
2529.78,1522.38
2531.24,1550.3
2532.69,1536.16
2534.15,1545.19
2535.6,1578.82
2537.06,1585.07
2538.51,1610.75
2539.96,1605.14
2541.42,1658.19
2542.87,1628.55
2544.33,1654.63
2545.78,1687.69
2547.24,1706.17
2548.69,1700.75
2550.14,1710.28
2551.6,1759.65
2553.05,1786.79
2554.51,1780.08
2555.96,1833.52
2557.41,1870.81
2558.87,1869.26
2560.32,1897.94
2561.78,1947.01
2563.23,1989.45
2564.69,1996.13
2566.14,2025.56
2567.59,2060.13
2569.05,2115.63
2570.5,2150.42
2571.96,2186.14
2573.41,2272.12
2574.87,2298.79
2576.32,2357.33
2577.77,2389.29
2579.23,2425.23
2580.68,2495.13
2582.14,2541.83
2583.59,2615.6
2585.04,2683.04
2586.5,2730.99
2587.95,2808.16
2589.41,2856.53
2590.86,2996.61
2592.32,3044.75
2593.77,3135.87
2595.22,3252.4
2596.68,3362.39
2598.13,3454.95
2599.59,3568.34
2601.04,3695.59
2602.5,3818.54
2603.95,3986.27
2605.4,4105.5
2606.86,4229.47
2608.31,4346.3
2609.77,4516.88
2611.22,4695.5
2612.68,4867.23
2614.13,5030.63
2615.58,5269.98
2617.04,5469.22
2618.49,5734.24
2619.95,5898.77
2621.4,6142.2
2622.85,6379.92
2624.31,6577.87
2625.76,6883.58
2627.22,7137.45
2628.67,7431.62
2630.13,7734.49
2631.58,8029.31
2633.03,8289.38
2634.49,8628.71
2635.94,8882.48
2637.4,9200.73
2638.85,9488.88
2640.31,9779.21
2641.76,10051.4
2643.21,10350.6
2644.67,10665.4
2646.12,10922.8
2647.58,11163.4
2649.03,11393.5
2650.48,11581.3
2651.94,11726.4
2653.39,11865.1
2654.85,12073
2656.3,12085.3
2657.76,12218.7
2659.21,12272.2
2660.66,12381.9
2662.12,12342.5
2663.57,12371.2
2665.03,12216.9
2666.48,12103.4
2667.94,11976.5
2669.39,11798.1
2670.84,11673.4
2672.3,11445.8
2673.75,11181.5
2675.21,11048.9
2676.66,10671.3
2678.11,10495.2
2679.57,10112.4
2681.02,9796.86
2682.48,9557.79
2683.93,9223.36
2685.39,8891.04
2686.84,8565.4
2688.29,8280.59
2689.75,7982.72
2691.2,7685.45
2692.66,7327.43
2694.11,7027.33
2695.57,6771.67
2697.02,6512.47
2698.47,6251.11
2699.93,6063.89
2701.38,5781.56
2702.84,5487.89
2704.29,5278.1
2705.75,5074.1
2707.2,4884.23
2708.65,4653.85
2710.11,4463.84
2711.56,4269.65
2713.02,4123.19
2714.47,3999.71
2715.92,3889.3
2717.38,3737.03
2718.83,3570.15
2720.29,3427.17
2721.74,3306.23
2723.2,3188.04
2724.65,3119.14
2726.1,2998.8
2727.56,2871.22
2729.01,2783.01
2730.47,2663.9
2731.92,2623.8
2733.38,2528.61
2734.83,2476.68
2736.28,2403.24
2737.74,2365.48
2739.19,2274.38
2740.65,2243.35
2742.1,2195.55
2743.55,2131.52
2745.01,2091.07
2746.46,2032.95
2747.92,1978.29
2749.37,1961.18
2750.83,1951.2
2752.28,1879.23
2753.73,1869.82
2755.19,1814.36
2756.64,1787.87
2758.1,1743.5
2759.55,1716.93
2761.01,1675.91
2762.46,1667.4
2763.91,1648.41
2765.37,1617.36
2766.82,1607.65
2768.28,1589.83
2769.73,1546.01
2771.18,1537.94
2772.64,1535.48
2774.09,1510.39
2775.55,1451.44
2777,1446.07
2778.46,1445.17
2779.91,1448
2781.36,1408.37
2782.82,1382.14
2784.27,1378.26
2785.73,1386.21
2787.18,1377.47
2788.64,1358.83
2790.09,1356.47
2791.54,1331.18
2793,1327.38
2794.45,1305.93
2795.91,1293.91
2797.36,1302.36
2798.82,1287.57
2800.27,1275.2
2801.72,1247.79
2803.18,1237.62
2804.63,1240.1
2806.09,1211.15
2807.54,1225.4
2808.99,1249.24
2810.45,1224.94
2811.9,1216.79
2813.36,1198.77
2814.81,1189.65
2816.27,1209.65
2817.72,1192.72
2819.17,1165.91
2820.63,1162.84
2822.08,1169.3
2823.54,1163.29
2824.99,1153.8
2826.45,1154.42
2827.9,1152.68
2829.35,1128.61
2830.81,1139.15
2832.26,1117.41
2833.72,1112.2
2835.17,1116.78
2836.62,1115.09
2838.08,1126.57
2839.53,1122.65
2840.99,1122.66
2842.44,1125.24
2843.9,1118.57
2845.35,1098.76
2846.8,1108
2848.26,1105.86
2849.71,1111.29
2851.17,1125.99
2852.62,1119.7
2854.08,1119.97
2855.53,1098.33
2856.98,1084.8
2858.44,1127.94
2859.89,1112.97
2861.35,1096.77
2862.8,1085.29
2864.25,1101.13
2865.71,1094.04
2867.16,1081.16
2868.62,1093.79
2870.07,1093.78
2871.53,1089.49
2872.98,1091.11
2874.43,1098.19
2875.89,1127.84
2877.34,1096.09
2878.8,1100.48
2880.25,1086.21
2881.71,1104.58
2883.16,1102.42
2884.61,1098.92
2886.07,1117.59
2887.52,1117.99
2888.98,1115.86
2890.43,1121.65
2891.89,1106.89
2893.34,1108.07
2894.79,1137.71
2896.25,1132.63
2897.7,1135.33
2899.16,1118.53
2900.61,1133.34
2902.06,1117.04
2903.52,1145.76
2904.97,1127.57
2906.43,1115.97
2907.88,1116.11
2909.34,1109.91
2910.79,1105.13
2912.24,1127.09
2913.7,1097.01
2915.15,1100.55
2916.61,1096.77
2918.06,1095.29
2919.52,1089.02
2920.97,1055.46
2922.42,1062.32
2923.88,1071.82
2925.33,1057.75
2926.79,1034.22
2928.24,1034.63
2929.69,1027.96
2931.15,1035.89
2932.6,1014.18
2934.06,1021.28
2935.51,1015.46
2936.97,995.186
2938.42,979.842
2939.87,973.806
2941.33,955.289
2942.78,982.789
2944.24,977.205
2945.69,956.976
2947.15,954.223
2948.6,926.1
2950.05,933.434
2951.51,919.77
2952.96,915.01
2954.42,895.792
2955.87,891.413
2957.32,888.201
2958.78,877.181
2960.23,878.713
2961.69,865.616
2963.14,872.561
2964.6,858.904
2966.05,837.882
2967.5,834.375
2968.96,828.612
2970.41,830.517
2971.87,820.391
2973.32,821.309
2974.78,821.27
2976.23,815.53
2977.68,808.266
2979.14,806.656
2980.59,788.333
2982.05,827.219
2983.5,785.626
2984.96,772.139
2986.41,793.372
2987.86,784.289
2989.32,783.659
2990.77,768.177
2992.23,799.408
2993.68,767.252
2995.13,764.21
2996.59,784.654
2998.04,772.206
2999.5,773.524
3000.95,775.032
3002.41,739.92
3003.86,743.63
3005.31,743.909
3006.77,766.815
3008.22,773.029
3009.68,767.07
3011.13,767.287
3012.59,747.318
3014.04,743.036
3015.49,735.229
3016.95,747.02
3018.4,763.006
3019.86,732.08
3021.31,743.489
3022.76,731.833
3024.22,746.386
3025.67,719.397
3027.13,728.216
3028.58,723.079
3030.04,725.473
3031.49,715.672
3032.94,730.526
3034.4,738.005
3035.85,732.378
3037.31,715.643
3038.76,730.168
3040.22,706.438
3041.67,721.047
3043.12,744.259
3044.58,731.208
3046.03,724.171
3047.49,716.078
3048.94,718.711
3050.4,733.08
3051.85,723.202
3053.3,728.711
3054.76,747.838
3056.21,742.253
3057.67,745.999
3059.12,734.633
3060.57,742.086
3062.03,709.042
3063.48,727.763
3064.94,726.707
3066.39,748.238
3067.85,725.043
3069.3,743.599
3070.75,755.586
3072.21,749.279
3073.66,737.176
3075.12,755.054
3076.57,749.505
3078.03,752.85
3079.48,762.868
3080.93,772.123
3082.39,792.33
3083.84,773.774
3085.3,763.628
3086.75,780.26
3088.2,761.918
3089.66,778.378
3091.11,786.731
3092.57,784.444
3094.02,789.274
3095.48,803.467
3096.93,777.109
3098.38,845.154
3099.84,831.948
3101.29,830.548
3102.75,839.966
3104.2,831.824
3105.66,863.781
3107.11,826.745
3108.56,879.444
3110.02,889.5
3111.47,877.998
3112.93,893.537
3114.38,905.918
3115.83,908.765
3117.29,919.295
3118.74,941.647
3120.2,974.538
3121.65,969.809
3123.11,968.02
3124.56,943.646
3126.01,990.201
3127.47,990.364
3128.92,993.646
3130.38,1018.68
3131.83,1031.02
3133.29,1033.63
3134.74,1046.11
3136.19,1043.79
3137.65,1040.13
3139.1,1018.65
3140.56,1060.57
3142.01,1035.08
3143.47,1072.01
3144.92,1080.53
3146.37,1072.03
3147.83,1059.33
3149.28,1050.84
3150.74,1060.34
3152.19,1082.28
3153.64,1072.94
3155.1,1063.83
3156.55,1075.55
3158.01,1075.32
3159.46,1074.32
3160.92,1110.95
3162.37,1104.25
3163.82,1096.02
3165.28,1097.99
3166.73,1120.53
3168.19,1085.78
3169.64,1114.88
3171.1,1114.24
3172.55,1125.82
3174,1130.72
3175.46,1150.11
3176.91,1156.15
3178.37,1139.39
3179.82,1166.53
3181.27,1181.13
3182.73,1210.48
3184.18,1199.53
3185.64,1209.72
3187.09,1227.59
3188.55,1247.47
3190,1251.52
3191.45,1256.72
3192.91,1268.59
3194.36,1276.52
3195.82,1290.44
3197.27,1295.92
3198.73,1259.5
3200.18,1318.01
3201.63,1299.49
3203.09,1304.36
3204.54,1302.34
3206,1283.48
3207.45,1307.34
3208.9,1249.45
3210.36,1281.42
3211.81,1247.75
3213.27,1239.08
3214.72,1217.38
3216.18,1201.78
3217.63,1198.39
3219.08,1153.15
3220.54,1144.67
3221.99,1131.51
3223.45,1099.74
3224.9,1081.52
3226.36,1068.53
3227.81,1060.15
3229.26,1003.1
3230.72,984.524
3232.17,972.749
3233.63,942.814
3235.08,919.132
3236.53,880.805
3237.99,877.99
3239.44,836.288
3240.9,838.675
3242.35,823.097
3243.81,798.583
3245.26,768.984
3246.71,770.331
3248.17,763.724
3249.62,758.062
3251.08,743.038
3252.53,745.194
3253.99,726.629
3255.44,694.937
3256.89,701.277
3258.35,680.496
3259.8,688.354
3261.26,686.511
3262.71,668.793
3264.17,681.258
3265.62,662.411
3267.07,648.121
3268.53,656.125
3269.98,650.638
3271.44,643.088
3272.89,637.498
3274.34,658.912
3275.8,625.666
3277.25,641.404
3278.71,630.742
3280.16,625.988
3281.62,633.361
3283.07,637.674
3284.52,618.533
3285.98,623.732
3287.43,606.047
3288.89,601.216
3290.34,587.49
3291.8,604.665
3293.25,600.731
3294.7,600.059
3296.16,603.17
3297.61,605.964
3299.07,614.731
3300.52,603.023
3301.97,600.713
3303.43,577.832
3304.88,588.404
3306.34,594.778
3307.79,596.787
3309.25,595.536
3310.7,606.423
3312.15,601.549
3313.61,585.818
3315.06,592.732
3316.52,598.934
3317.97,592.287
3319.43,582.205
3320.88,593.39
3322.33,587.548
3323.79,592.067
3325.24,571.246
3326.7,591.227
3328.15,575.553
3329.6,584.357
3331.06,586.189
3332.51,569.105
3333.97,566.147
3335.42,581.396
3336.88,573.534
3338.33,583.081
3339.78,589.353
3341.24,590.283
3342.69,576.472
3344.15,584.562
3345.6,591.621
3347.06,582.616
3348.51,580.549
3349.96,582.729
3351.42,583.222
3352.87,561.831
3354.33,580.513
3355.78,577.32
3357.24,575.922
3358.69,594.071
3360.14,568.868
3361.6,595.287
3363.05,591.323
3364.51,592.346
3365.96,563.584
3367.41,579.474
3368.87,579.705
3370.32,590.806
3371.78,576.468
3373.23,571.859
3374.69,578.505
3376.14,567.758
3377.59,566.99
3379.05,578.687
3380.5,573.903
3381.96,581.279
3383.41,571.279
3384.87,567.556
3386.32,576.377
3387.77,568.62
3389.23,566.426
3390.68,568.289
3392.14,565.781
3393.59,559.627
3395.04,594.257
3396.5,589.961
3397.95,566.524
3399.41,567.717
3400.86,579.049
3402.32,571.548
3403.77,590.377
3405.22,581.225
3406.68,563.822
3408.13,579.052
3409.59,582.156
3411.04,573.753
3412.5,556.452
3413.95,564.165
3415.4,572.372
3416.86,553.476
3418.31,549.537
3419.77,572.715
3421.22,556.1
3422.68,565.901
3424.13,569.536
3425.58,566.858
3427.04,569.159
3428.49,567.889
3429.95,560.783
3431.4,563.57
3432.85,568.364
3434.31,566.464
3435.76,554.047
3437.22,549.451
3438.67,562.556
3440.13,571.468
3441.58,548.654
3443.03,557.36
3444.49,555.656
3445.94,553.29
3447.4,550.218
3448.85,557.899
3450.31,573.882
3451.76,566.44
3453.21,558.207
3454.67,571.867
3456.12,569.615
3457.58,555.127
3459.03,565.975
3460.48,566.17
3461.94,563.472
3463.39,558.139
3464.85,568.544
3466.3,567.248
3467.76,577.83
3469.21,560.176
3470.66,546.722
3472.12,550.757
3473.57,551.249
3475.03,554.452
3476.48,571.173
3477.94,554.045
3479.39,559.235
3480.84,557.683
3482.3,553.057
3483.75,553.791
3485.21,552.776
3486.66,562.248
3488.11,568.863
3489.57,567.115
3491.02,563.7
3492.48,537.782
3493.93,573.774
3495.39,562.412
3496.84,563.326
3498.29,566.146
3499.75,574.838
3501.2,569.18
3502.66,563.927
3504.11,558.546
3505.57,554.533
3507.02,569.559
3508.47,557.615
3509.93,557.871
3511.38,556.548
3512.84,551.46
3514.29,547.93
3515.75,529.344
3517.2,553.245
3518.65,565.308
3520.11,561.48
3521.56,569.3
3523.02,573.69
3524.47,568.446
3525.92,559.857
3527.38,560.911
3528.83,562.377
3530.29,543.174
3531.74,553.413
3533.2,555.974
3534.65,557.57
3536.1,553.816
3537.56,535.916
3539.01,553.09
3540.47,549.732
3541.92,551.665
3543.38,546.41
3544.83,550.381
3546.28,547.868
3547.74,555.448
3549.19,555.035
3550.65,565.138
3552.1,559.499
3553.55,570.659
3555.01,563.406
3556.46,559.618
3557.92,542.149
3559.37,544.794
3560.83,548.409
3562.28,546.339
3563.73,524.511
3565.19,535.004
3566.64,556.94
3568.1,539.479
3569.55,550.235
3571.01,554.075
3572.46,538.728
3573.91,540.797
3575.37,547.13
3576.82,545.48
3578.28,530.888
3579.73,564.386
3581.18,549.678
3582.64,543.86
3584.09,545.235
3585.55,546.042
3587,541.026
3588.46,550.186
3589.91,565.474
3591.36,558.423
3592.82,547.764
3594.27,548.571
3595.73,550.064
3597.18,546.659
3598.64,555.32
3600.09,543.166
3601.54,535.89
3603,556.801
3604.45,546.985
3605.91,558.159
3607.36,534.144
3608.82,558.413
3610.27,556.927
3611.72,548.552
3613.18,548.709
3614.63,543.554
3616.09,544.113
3617.54,550.151
3618.99,531.128
3620.45,540.032
3621.9,564.321
3623.36,532.667
3624.81,536.259
3626.27,544.563
3627.72,544.497
3629.17,540.085
3630.63,537.961
3632.08,547.13
3633.54,554.78
3634.99,528.516
3636.45,544.651
3637.9,535.397
3639.35,541.856
3640.81,548.348
3642.26,523.117
3643.72,538.98
3645.17,537.083
3646.62,552.266
3648.08,529.245
3649.53,541.575
3650.99,532.124
3652.44,537.062
3653.9,546.377
3655.35,561.998
3656.8,554.415
3658.26,545.12
3659.71,534.099
3661.17,572.37
3662.62,531.242
3664.08,544.838
3665.53,537.282
3666.98,538.036
3668.44,540.998
3669.89,542.726
3671.35,553.984
3672.8,531.758
3674.25,556.748
3675.71,547.443
3677.16,549.705
3678.62,549.417
3680.07,536.24
3681.53,557.258
3682.98,544.853
3684.43,529.125
3685.89,547.997
3687.34,554.503
3688.8,554.34
3690.25,547.331
3691.71,535.714
3693.16,548.44
3694.61,539.442
3696.07,541.415
3697.52,542.064
3698.98,540.809
3700.43,537.009
3701.89,550.548
3703.34,552.989
3704.79,554.644
3706.25,574.871
3707.7,557.64
3709.16,555.056
3710.61,546.609
3712.06,551.006
3713.52,555.12
3714.97,563.609
3716.43,564.773
3717.88,540.28
3719.34,556.578
3720.79,553.354
3722.24,549.676
3723.7,526.922
3725.15,553.468
3726.61,536.859
3728.06,567.094
3729.52,545.338
3730.97,537.422
3732.42,548.857
3733.88,560.437
3735.33,546.363
3736.79,539.301
3738.24,550.816
3739.69,541.133
3741.15,541.111
3742.6,527.854
3744.06,560.813
3745.51,540.987
3746.97,557.803
3748.42,546.045
3749.87,559.382
3751.33,557.064
3752.78,558.598
3754.24,536.141
3755.69,535.21
3757.15,554.383
3758.6,568.14
3760.05,556.301
3761.51,552.58
3762.96,541.761
3764.42,552.323
3765.87,574.059
3767.32,566.796
3768.78,558.381
3770.23,560.954
3771.69,543.348
3773.14,531.666
3774.6,554.844
3776.05,553.318
3777.5,565.733
3778.96,564.837
3780.41,554.638
3781.87,560.016
3783.32,559.246
3784.78,525.424
3786.23,552.447
3787.68,545.824
3789.14,542.487
3790.59,560.446
3792.05,557.867
3793.5,578.156
3794.96,561.319
3796.41,570.105
3797.86,576.748
3799.32,564.109
3800.77,554.102
3802.23,572.655
3803.68,572.329
3805.13,574.176
3806.59,564.24
3808.04,546.337
3809.5,571.975
3810.95,565.855
3812.41,570.509
3813.86,566.338
3815.31,567.976
3816.77,564.677
3818.22,554.873
3819.68,550.966
3821.13,556.39
3822.59,554.235
3824.04,576.888
3825.49,578.286
3826.95,559.248
3828.4,545.04
3829.86,557.223
3831.31,583.685
3832.76,570.7
3834.22,579.426
3835.67,573.875
3837.13,569.543
3838.58,552.154
3840.04,573.616
3841.49,566.533
3842.94,562.162
3844.4,562.514
3845.85,581.278
3847.31,574.242
3848.76,562.997
3850.22,574.547
3851.67,554.421
3853.12,574.933
3854.58,581.377
3856.03,578.155
3857.49,573.196
3858.94,564.363
3860.4,566.574
3861.85,564.823
3863.3,582.07
3864.76,583.526
3866.21,572.799
3867.67,563.013
3869.12,575.091
3870.57,579.948
3872.03,578.741
3873.48,579.548
3874.94,586.199
3876.39,590.829
3877.85,588.176
3879.3,586.255
3880.75,592.539
3882.21,576.358
3883.66,599.374
3885.12,567.115
3886.57,578.805
3888.03,579.862
3889.48,595.381
3890.93,572.117
3892.39,584.626
3893.84,581.329
3895.3,589.066
3896.75,596.153
3898.2,594.349
3899.66,585.931
3901.11,594.656
3902.57,603.296
3904.02,585.46
3905.48,595.365
3906.93,604.465
3908.38,583.328
3909.84,570.362
3911.29,595.206
3912.75,593.488
3914.2,590.065
3915.66,595.512
3917.11,598.101
3918.56,584.982
3920.02,598.81
3921.47,601.93
3922.93,601.026
3924.38,602.645
3925.83,590.137
3927.29,607.863
3928.74,606.217
3930.2,612.495
3931.65,615.585
3933.11,624.362
3934.56,629.58
3936.01,603.223
3937.47,624.501
3938.92,620.796
3940.38,620.554
3941.83,616.633
3943.29,637.698
3944.74,618.507
3946.19,622.596
3947.65,624.79
3949.1,614.393
3950.56,634.808
3952.01,641.323
3953.47,650.585
3954.92,626.197
3956.37,623.148
3957.83,624.057
3959.28,642.822
3960.74,644.909
3962.19,650.422
3963.64,641.771
3965.1,640.935
3966.55,645.061
3968.01,665.707
3969.46,644.049
3970.92,636.326
3972.37,650.169
3973.82,657.521
3975.28,650.038
3976.73,653.852
3978.19,657.756
3979.64,641.167
3981.1,677.001
3982.55,663.82
3984,641.791
3985.46,680.997
3986.91,663.6
3988.37,667.592
3989.82,651.306
3991.27,669.211
3992.73,689.158
3994.18,682.375
3995.64,681.574
3997.09,682.299
3998.55,660.971
4000,676.528
