-50,-8.79745
-48.5458,-6.39225
-47.0916,-1.36676
-45.6373,-2.65812
-44.1831,-7.94131
-42.7289,-6.32109
-41.2747,1.00621
-39.8205,-0.623768
-38.3662,-5.68832
-36.912,-5.68422
-35.4578,-2.03822
-34.0036,0.0752424
-32.5494,3.08782
-31.0952,6.26466
-29.6409,10.7545
-28.1867,13.361
-26.7325,8.41683
-25.2783,14.7682
-23.8241,24.2557
-22.3698,30.689
-20.9156,32.3829
-19.4614,36.4294
-18.0072,38.4842
-16.553,40.1967
-15.0987,49.3759
-13.6445,66.5213
-12.1903,106.356
-10.7361,171.507
-9.28187,54.7989
-7.82765,54.7989
-6.37343,54.7989
-4.91921,54.7989
-3.46499,54.7989
-2.01077,54.7989
-0.556553,54.7989
0.897666,54.7989
2.35189,54.7989
3.8061,417.315
5.26032,227.979
6.71454,177.005
8.16876,138.224
9.62298,116.632
11.0772,98.5685
12.5314,77.8161
13.9856,68.6321
15.4399,56.1244
16.8941,51.2754
18.3483,47.3644
19.8025,41.5844
21.2567,42.6906
22.711,39.2699
24.1652,39.833
25.6194,41.5776
27.0736,43.6197
28.5278,40.7694
29.982,35.7699
31.4363,30.5985
32.8905,30.5234
34.3447,25.4798
35.7989,18.5929
37.2531,10.971
38.7074,13.4169
40.1616,20.65
41.6158,17.3485
43.07,34.8525
44.5242,52.2341
45.9785,93.3825
47.4327,171.53
48.8869,302.13
50.3411,516.646
51.7953,749.973
53.2495,995.253
54.7038,1243.14
56.158,1488.53
57.6122,1678.55
59.0664,1810.91
60.5206,1931.78
61.9749,1974.45
63.4291,2035.96
64.8833,2096.46
66.3375,2111.58
67.7917,2092.04
69.246,2151.32
70.7002,2166.08
72.1544,2203.68
73.6086,2243.22
75.0628,2268.6
76.5171,2311.46
77.9713,2376.77
79.4255,2428.23
80.8797,2431.61
82.3339,2422.79
83.7882,2355.83
85.2424,2243.36
86.6966,2149.73
88.1508,2073.75
89.605,1940.91
91.0592,1898.58
92.5135,1837.76
93.9677,1784.76
95.4219,1776.98
96.8761,1719.74
98.3303,1680.12
99.7846,1668.14
101.239,1673.08
102.693,1679.33
104.147,1681.1
105.601,1677.66
107.056,1688
108.51,1675.96
109.964,1634.33
111.418,1578
112.873,1560.12
114.327,1539.78
115.781,1487.81
117.235,1428.05
118.689,1390.69
120.144,1369.01
121.598,1334.04
123.052,1300.34
124.506,1288.75
125.961,1298.47
127.415,1282.02
128.869,1276.5
130.323,1276.22
131.777,1286.46
133.232,1307.11
134.686,1261.41
136.14,1206.25
137.594,1177.01
139.048,1104.74
140.503,1100.24
141.957,1078.43
143.411,1051.03
144.865,1031.7
146.32,1019.3
147.774,1042.78
149.228,1056.38
150.682,1057.63
152.136,1056.62
153.591,1021.61
155.045,1002.89
156.499,975.149
157.953,964.047
159.408,973.338
160.862,961.886
162.316,953.774
163.77,941.368
165.224,943.436
166.679,959.623
168.133,966.73
169.587,965.661
171.041,963.677
172.496,1009.83
173.95,1117.36
175.404,1291.71
176.858,1415.61
178.312,1452.56
179.767,1388.74
181.221,1234.01
182.675,1142.16
184.129,1055.12
185.583,993.443
187.038,938.964
188.492,900.886
189.946,892.975
191.4,866.484
192.855,838.506
194.309,832.578
195.763,821.094
197.217,795.402
198.671,797.129
200.126,791.887
201.58,787.782
203.034,808.012
204.488,795.961
205.943,795.181
207.397,799.367
208.851,802.883
210.305,792.323
211.759,764.233
213.214,786.813
214.668,779.67
216.122,767.008
217.576,776.945
219.031,766.566
220.485,765.242
221.939,775.075
223.393,783.025
224.847,775.438
226.302,782.208
227.756,803.128
229.21,793.899
230.664,766.857
232.118,750.346
233.573,788.683
235.027,787.707
236.481,759.204
237.935,759.728
239.39,784.666
240.844,751.581
242.298,755.691
243.752,753.585
245.206,749.898
246.661,750.457
248.115,767.188
249.569,746.473
251.023,741.296
252.478,739.233
253.932,745.72
255.386,760.983
256.84,751.233
258.294,729.225
259.749,721.227
261.203,719.215
262.657,710.899
264.111,701.786
265.566,697.756
267.02,710.719
268.474,713.813
269.928,700.194
271.382,710.193
272.837,702.48
274.291,684.014
275.745,682.253
277.199,694.359
278.654,676.475
280.108,660.236
281.562,660.728
283.016,660.601
284.47,660.499
285.925,648.768
287.379,654.804
288.833,647.373
290.287,643.189
291.741,643.341
293.196,642.973
294.65,630.513
296.104,636.605
297.558,639.766
299.013,637.851
300.467,629.074
301.921,628.553
303.375,609.562
304.829,611.057
306.284,606.453
307.738,594.864
309.192,589.906
310.646,578.194
312.101,569.906
313.555,581.843
315.009,586.935
316.463,569.117
317.917,568.989
319.372,571.015
320.826,570.056
322.28,579.21
323.734,594.936
325.189,587.276
326.643,578.087
328.097,561.841
329.551,556.853
331.005,559.642
332.46,544.208
333.914,563.518
335.368,559.537
336.822,561.65
338.276,557.764
339.731,538.63
341.185,572.596
342.639,586.451
344.093,570.516
345.548,552.372
347.002,559.364
348.456,574.608
349.91,545.626
351.364,560.386
352.819,571.864
354.273,564.453
355.727,553.535
357.181,561.075
358.636,558.181
360.09,549.204
361.544,558.771
362.998,578.893
364.452,553.812
365.907,529.33
367.361,538.442
368.815,547.404
370.269,545.511
371.724,536.692
373.178,548.559
374.632,535.19
376.086,508.119
377.54,512.152
378.995,555.632
380.449,520.055
381.903,521.421
383.357,525.798
384.811,534
386.266,530.824
387.72,500.384
389.174,542.507
390.628,562.316
392.083,565.24
393.537,555.134
394.991,553.438
396.445,550.641
397.899,541.799
399.354,521.818
400.808,521.914
402.262,537.311
403.716,526.851
405.171,541.101
406.625,540.085
408.079,532.673
409.533,519.073
410.987,507.175
412.442,516.637
413.896,509.573
415.35,522.627
416.804,522.059
418.259,512.844
419.713,523.144
421.167,525.328
422.621,531.235
424.075,545.774
425.53,543.527
426.984,516.364
428.438,495.596
429.892,514.167
431.346,499.653
432.801,506.093
434.255,513.975
435.709,497.707
437.163,506.205
438.618,527.375
440.072,509.3
441.526,499.793
442.98,512.295
444.434,515.696
445.889,534.52
447.343,513.622
448.797,495.586
450.251,494.724
451.706,513.991
453.16,506.95
454.614,516.329
456.068,510.448
457.522,498.456
458.977,505.231
460.431,525.755
461.885,514.022
463.339,527.104
464.794,529.085
466.248,535.655
467.702,539.274
469.156,519.268
470.61,501.573
472.065,509.26
473.519,505.628
474.973,518.141
476.427,540.115
477.882,515.923
479.336,513.223
480.79,506.633
482.244,517.885
483.698,533.613
485.153,532.385
486.607,521.797
488.061,525.18
489.515,515.088
490.969,502.014
492.424,496.285
493.878,502.003
495.332,511.881
496.786,507.67
498.241,498.654
499.695,490.592
501.149,489.803
502.603,491.529
504.057,503.386
505.512,516.005
506.966,502.065
508.42,489.976
509.874,494.776
511.329,508.008
512.783,493.946
514.237,500.058
515.691,490.449
517.145,496.355
518.6,507.29
520.054,486.591
521.508,505.829
522.962,485.68
524.417,482.729
525.871,477.698
527.325,471.219
528.779,484.402
530.233,507.915
531.688,481.839
533.142,488.793
534.596,495.897
536.05,489.031
537.505,491.409
538.959,489.812
540.413,486.79
541.867,492.87
543.321,491.439
544.776,489.01
546.23,486.289
547.684,492.903
549.138,498.962
550.592,501.943
552.047,498.72
553.501,491.776
554.955,478.502
556.409,484.352
557.864,495.357
559.318,490.88
560.772,481.941
562.226,500.959
563.68,495.464
565.135,506.213
566.589,493.156
568.043,481.791
569.497,493.534
570.952,511.258
572.406,492.91
573.86,496.38
575.314,501.137
576.768,500.583
578.223,485.506
579.677,483.027
581.131,509.667
582.585,513.375
584.039,501.681
585.494,480.655
586.948,476.294
588.402,473.55
589.856,481.202
591.311,503.312
592.765,483.352
594.219,481.1
595.673,485.269
597.127,490.41
598.582,498.679
600.036,492.31
601.49,487.736
602.944,486.054
604.399,488.983
605.853,496.934
607.307,497.63
608.761,500.771
610.215,495.551
611.67,507.856
613.124,498.572
614.578,494.415
616.032,493.638
617.487,511.872
618.941,488.923
620.395,506.69
621.849,512.787
623.303,507.073
624.758,517.108
626.212,526.318
627.666,518.793
629.12,504.706
630.575,517.555
632.029,534.023
633.483,530.859
634.937,493.382
636.391,502.735
637.846,508.696
639.3,512.435
640.754,509.655
642.208,511.826
643.662,531.027
645.117,527.732
646.571,521.133
648.025,516.545
649.479,519.015
650.934,518.016
652.388,533.282
653.842,550.39
655.296,545.926
656.75,538.227
658.205,539.37
659.659,547.126
661.113,547.941
662.567,521.98
664.022,502.775
665.476,545.013
666.93,534.221
668.384,515.799
669.838,519.43
671.293,551.275
672.747,543.092
674.201,539.312
675.655,538.961
677.109,520.335
678.564,524.346
680.018,548.814
681.472,547.458
682.926,534.505
684.381,529.741
685.835,531.88
687.289,543.45
688.743,552.632
690.198,579.117
691.652,557.022
693.106,531.23
694.56,544.68
696.014,549.758
697.469,551.087
698.923,543.285
700.377,552.755
701.831,545.363
703.285,549.059
704.74,562.66
706.194,551.011
707.648,538.106
709.102,550.255
710.557,534.03
712.011,565.663
713.465,551.944
714.919,537.761
716.373,543.191
717.828,562.362
719.282,552.239
720.736,530.199
722.19,551.933
723.645,554.974
725.099,534.819
726.553,526.018
728.007,538.285
729.461,543.528
730.916,562.85
732.37,564.763
733.824,570.321
735.278,563.751
736.732,543.351
738.187,557.458
739.641,588.998
741.095,570.828
742.549,573.042
744.004,569.286
745.458,569.179
746.912,566.051
748.366,568.588
749.82,561.462
751.275,577.778
752.729,565.22
754.183,570.427
755.637,586.191
757.092,588.224
758.546,585.951
760,592.628
761.454,585.483
762.908,572.221
764.363,572.417
765.817,598.43
767.271,612.774
768.725,568.149
770.18,557.953
771.634,565.213
773.088,569.894
774.542,575.918
775.996,576.385
777.451,571.24
778.905,586.942
780.359,586.195
781.813,566.955
783.268,561.2
784.722,567.877
786.176,570.905
787.63,561.261
789.084,553.365
790.539,559.166
791.993,565.659
793.447,564.235
794.901,570.493
796.355,589.374
797.81,587.063
799.264,572.802
800.718,582.807
802.172,587.424
803.627,564.668
805.081,566.921
806.535,571.225
807.989,556.677
809.443,583.945
810.898,585.466
812.352,579.717
813.806,591.798
815.26,587.624
816.715,579.101
818.169,582.49
819.623,568.34
821.077,571.403
822.531,596.188
823.986,600.78
825.44,610.031
826.894,612.966
828.348,615.092
829.802,601.972
831.257,621.293
832.711,635.553
834.165,619.583
835.619,620.411
837.074,617.838
838.528,612.214
839.982,636.889
841.436,637.977
842.891,629.539
844.345,636.744
845.799,649.293
847.253,643.454
848.707,633.255
850.162,623.674
851.616,634.035
853.07,622.72
854.524,633.041
855.978,630.109
857.433,634.657
858.887,639.059
860.341,624.259
861.795,628.448
863.25,620.87
864.704,619.253
866.158,604.777
867.612,600.214
869.066,602.112
870.521,617.05
871.975,619.07
873.429,640.693
874.883,628.653
876.338,625.221
877.792,634.005
879.246,635.167
880.7,637.129
882.154,635.197
883.609,649.263
885.063,663.819
886.517,643.77
887.971,643.313
889.425,633.403
890.88,637.769
892.334,649.508
893.788,636.84
895.242,641.985
896.697,631.177
898.151,650.231
899.605,655.258
901.059,655.199
902.513,663.665
903.968,649.183
905.422,668.274
906.876,676.26
908.33,665.673
909.785,670.975
911.239,685.627
912.693,690.612
914.147,681.046
915.601,682.283
917.056,673.749
918.51,701.087
919.964,699.933
921.418,693.821
922.873,705.357
924.327,707.28
925.781,698.829
927.235,703.345
928.689,689.202
930.144,687.666
931.598,705.595
933.052,730.455
934.506,734.42
935.961,722.586
937.415,758.347
938.869,754.117
940.323,757.637
941.777,748.545
943.232,718.237
944.686,706.682
946.14,716
947.594,732.104
949.048,716.507
950.503,741.656
951.957,722.584
953.411,718.998
954.865,714.108
956.32,711.265
957.774,718.296
959.228,708.623
960.682,675.888
962.136,686.349
963.591,680.885
965.045,679.079
966.499,688.927
967.953,685.425
969.408,676.667
970.862,689.766
972.316,687.937
973.77,668.8
975.224,684.813
976.679,678.638
978.133,699.732
979.587,709.315
981.041,714.248
982.495,704.012
983.95,676.889
985.404,703.974
986.858,684.584
988.312,686.92
989.767,685.158
991.221,698.821
992.675,716.778
994.129,705.467
995.583,667.86
997.038,680.772
998.492,727.648
999.946,703.318
1001.4,698.673
1002.85,706.156
1004.31,737.969
1005.76,740.829
1007.22,721.54
1008.67,731.26
1010.13,727.966
1011.58,713.728
1013.03,720.428
1014.49,733.715
1015.94,741.296
1017.4,730.886
1018.85,736.56
1020.31,751.061
1021.76,766.424
1023.21,791.214
1024.67,785.807
1026.12,764.871
1027.58,782.781
1029.03,822.519
1030.48,796.963
1031.94,776.636
1033.39,807.979
1034.85,823.336
1036.3,827.259
1037.76,825.606
1039.21,815.465
1040.66,826.592
1042.12,839.53
1043.57,860.368
1045.03,836.907
1046.48,843.356
1047.94,834.723
1049.39,876.015
1050.84,883.311
1052.3,877.042
1053.75,889.767
1055.21,895.781
1056.66,938.158
1058.11,926.366
1059.57,954.718
1061.02,955.663
1062.48,929.55
1063.93,936.297
1065.39,950.585
1066.84,977.044
1068.29,977.824
1069.75,970.209
1071.2,978.635
1072.66,1002.64
1074.11,1014.73
1075.57,1025.5
1077.02,1020.81
1078.47,997.701
1079.93,1003.56
1081.38,1032.65
1082.84,1044.45
1084.29,1021.24
1085.75,1024.07
1087.2,1028.38
1088.65,1029.31
1090.11,1035.75
1091.56,1035.42
1093.02,1025.95
1094.47,1029.46
1095.92,1014
1097.38,997.345
1098.83,994.122
1100.29,1018.55
1101.74,1026.69
1103.2,992.161
1104.65,976.792
1106.1,976.302
1107.56,977.705
1109.01,1007.3
1110.47,1006.4
1111.92,985.863
1113.38,966.869
1114.83,960.11
1116.28,967.569
1117.74,964.292
1119.19,960.952
1120.65,970.739
1122.1,959.11
1123.55,956.718
1125.01,934.876
1126.46,936.497
1127.92,941.174
1129.37,946.802
1130.83,950.248
1132.28,948.283
1133.73,942.732
1135.19,926.019
1136.64,923.184
1138.1,913.166
1139.55,913.941
1141.01,914.199
1142.46,916.355
1143.91,919.46
1145.37,918.213
1146.82,928.613
1148.28,924.31
1149.73,909.373
1151.18,890.832
1152.64,904.799
1154.09,928.073
1155.55,919.272
1157,900.926
1158.46,905.51
1159.91,909.094
1161.36,910.171
1162.82,893.812
1164.27,908.337
1165.73,890.841
1167.18,896.399
1168.64,895.427
1170.09,880.381
1171.54,905.166
1173,944.747
1174.45,929.98
1175.91,880.785
1177.36,911.68
1178.82,935.549
1180.27,926.86
1181.72,928.584
1183.18,932.532
1184.63,929.377
1186.09,927.224
1187.54,944.817
1188.99,919.743
1190.45,955.206
1191.9,947.563
1193.36,942.814
1194.81,932.885
1196.27,936.287
1197.72,948.369
1199.17,958.572
1200.63,943.357
1202.08,940.001
1203.54,951.491
1204.99,935.142
1206.45,939.008
1207.9,943.917
1209.35,959.352
1210.81,968.071
1212.26,957.742
1213.72,950.496
1215.17,942.831
1216.62,962.628
1218.08,992.961
1219.53,973.27
1220.99,985.274
1222.44,1014.48
1223.9,998.956
1225.35,993.344
1226.8,993.118
1228.26,971.559
1229.71,1008.22
1231.17,1007.43
1232.62,988.061
1234.08,1017.24
1235.53,1024.58
1236.98,1021.02
1238.44,1020.15
1239.89,1021.84
1241.35,1019.16
1242.8,1027.4
1244.25,1038.31
1245.71,1058.15
1247.16,1032.24
1248.62,1082.17
1250.07,1083.8
1251.53,1098.33
1252.98,1095.87
1254.43,1085.46
1255.89,1101.74
1257.34,1124.31
1258.8,1090.24
1260.25,1128.84
1261.71,1145.25
1263.16,1157.39
1264.61,1159.65
1266.07,1164.76
1267.52,1201.87
1268.98,1210.89
1270.43,1213.54
1271.89,1239.17
1273.34,1265.48
1274.79,1263.65
1276.25,1260.7
1277.7,1289.34
1279.16,1370.55
1280.61,1368.82
1282.06,1396.95
1283.52,1412.8
1284.97,1423.49
1286.43,1456.29
1287.88,1518.76
1289.34,1572.85
1290.79,1569.63
1292.24,1610.57
1293.7,1649.99
1295.15,1700.13
1296.61,1736.76
1298.06,1782.19
1299.52,1877.77
1300.97,1938.98
1302.42,1989.11
1303.88,2088.67
1305.33,2177.25
1306.79,2216.85
1308.24,2395.9
1309.69,2403.04
1311.15,2502.32
1312.6,2607.62
1314.06,2743.26
1315.51,2823.9
1316.97,2894.83
1318.42,3026.81
1319.87,3167
1321.33,3271.68
1322.78,3387.1
1324.24,3454.24
1325.69,3556.41
1327.15,3566.75
1328.6,3591.91
1330.05,3605.51
1331.51,3659.85
1332.96,3699.93
1334.42,3685.61
1335.87,3625.06
1337.32,3550.3
1338.78,3513.02
1340.23,3398.01
1341.69,3317.58
1343.14,3197.87
1344.6,3109.11
1346.05,2981.57
1347.5,2904.85
1348.96,2800.25
1350.41,2657.52
1351.87,2544.02
1353.32,2479.41
1354.78,2374.13
1356.23,2271.04
1357.68,2179.94
1359.14,2133.22
1360.59,2020.46
1362.05,2002.09
1363.5,1918.32
1364.96,1839.98
1366.41,1795.87
1367.86,1765.96
1369.32,1729.37
1370.77,1698.23
1372.23,1680.02
1373.68,1652.9
1375.13,1620.59
1376.59,1595.7
1378.04,1554.41
1379.5,1537.2
1380.95,1529.19
1382.41,1518.68
1383.86,1487.08
1385.31,1455.06
1386.77,1463.9
1388.22,1475.42
1389.68,1459.09
1391.13,1417.39
1392.59,1434.85
1394.04,1414.15
1395.49,1388.53
1396.95,1394.4
1398.4,1372.87
1399.86,1363.96
1401.31,1369
1402.76,1356.65
1404.22,1356.94
1405.67,1345.47
1407.13,1335.9
1408.58,1349.58
1410.04,1348.93
1411.49,1392.1
1412.94,1360.04
1414.4,1394.7
1415.85,1348.06
1417.31,1352.98
1418.76,1384.43
1420.22,1364.28
1421.67,1334.17
1423.12,1368.89
1424.58,1396.73
1426.03,1363.76
1427.49,1383.75
1428.94,1416.78
1430.4,1430.65
1431.85,1443.51
1433.3,1428.09
1434.76,1411.71
1436.21,1458.35
1437.67,1469.37
1439.12,1446.13
1440.57,1452.39
1442.03,1492.48
1443.48,1509.53
1444.94,1494.5
1446.39,1493.45
1447.85,1502.64
1449.3,1507.94
1450.75,1503.7
1452.21,1518.6
1453.66,1544.48
1455.12,1542.85
1456.57,1588.51
1458.03,1623.21
1459.48,1623.92
1460.93,1642.88
1462.39,1618.96
1463.84,1648.66
1465.3,1644.09
1466.75,1713.19
1468.2,1685.49
1469.66,1763
1471.11,1760.14
1472.57,1790.46
1474.02,1828.46
1475.48,1865.29
1476.93,1884.57
1478.38,1886.64
1479.84,1913.76
1481.29,1962.46
1482.75,2027.34
1484.2,2036.12
1485.66,2058.96
1487.11,2002.15
1488.56,2116.22
1490.02,2147.64
1491.47,2237.8
1492.93,2249.81
1494.38,2329.86
1495.83,2379.39
1497.29,2439.19
1498.74,2488.5
1500.2,2534.53
1501.65,2620.17
1503.11,2720.72
1504.56,2845.9
1506.01,2923.16
1507.47,3070.34
1508.92,3204.41
1510.38,3255.52
1511.83,3420.07
1513.29,3550.71
1514.74,3752.18
1516.19,3981.81
1517.65,4179.18
1519.1,4423.33
1520.56,4663.26
1522.01,4952.44
1523.46,5337.57
1524.92,5675.04
1526.37,6080.4
1527.83,6574.44
1529.28,7122.03
1530.74,7654.1
1532.19,8360.44
1533.64,8975.26
1535.1,9753.62
1536.55,10619.3
1538.01,11462.5
1539.46,12395.1
1540.92,13442.2
1542.37,14529.5
1543.82,15607.6
1545.28,16790.4
1546.73,17988.1
1548.19,19291.4
1549.64,20704.6
1551.1,22071.4
1552.55,23501.9
1554,25155
1555.46,26663.5
1556.91,27953
1558.37,29156.1
1559.82,30177.7
1561.27,30703.1
1562.73,30694.9
1564.18,30289.3
1565.64,29621.9
1567.09,28530.2
1568.55,27268.7
1570,25878.8
1571.45,24333.4
1572.91,22732.2
1574.36,21255.1
1575.82,19435.8
1577.27,18049.4
1578.73,16520.9
1580.18,15011
1581.63,13815.8
1583.09,12626
1584.54,11613.4
1586,10674.5
1587.45,9830.39
1588.9,9165.65
1590.36,8535.75
1591.81,7941.75
1593.27,7559.1
1594.72,6996.08
1596.18,6631.43
1597.63,6351.87
1599.08,5946.04
1600.54,5645.03
1601.99,5396.26
1603.45,5105.08
1604.9,4842.11
1606.36,4658.6
1607.81,4470.55
1609.26,4180.57
1610.72,3982.68
1612.17,3850.1
1613.63,3671.42
1615.08,3439.33
1616.54,3289.67
1617.99,3115.35
1619.44,3023.66
1620.9,2869.99
1622.35,2770.92
1623.81,2720.38
1625.26,2637.67
1626.71,2525.17
1628.17,2483.89
1629.62,2385.49
1631.08,2318.95
1632.53,2264.51
1633.99,2202.26
1635.44,2166.14
1636.89,2120.95
1638.35,2062.76
1639.8,2023.82
1641.26,1985.29
1642.71,1938.19
1644.17,1895.16
1645.62,1902.34
1647.07,1834.01
1648.53,1838.84
1649.98,1777.44
1651.44,1758.44
1652.89,1742.7
1654.34,1719.14
1655.8,1650.9
1657.25,1655.73
1658.71,1662.33
1660.16,1663.5
1661.62,1614.16
1663.07,1596.67
1664.52,1582.76
1665.98,1534.22
1667.43,1496.65
1668.89,1485.66
1670.34,1488.58
1671.8,1475.61
1673.25,1490.34
1674.7,1431.92
1676.16,1394.14
1677.61,1424.02
1679.07,1413.93
1680.52,1378.38
1681.97,1400.62
1683.43,1389.97
1684.88,1383.42
1686.34,1405.27
1687.79,1374.66
1689.25,1384.3
1690.7,1403.75
1692.15,1407.3
1693.61,1389.63
1695.06,1408.84
1696.52,1401.96
1697.97,1405.32
1699.43,1420.67
1700.88,1433.59
1702.33,1419.75
1703.79,1457.58
1705.24,1375.96
1706.7,1417.83
1708.15,1397.12
1709.6,1359.95
1711.06,1347.72
1712.51,1348.2
1713.97,1325.59
1715.42,1329.57
1716.88,1321.97
1718.33,1315.86
1719.78,1311.22
1721.24,1297.57
1722.69,1297.33
1724.15,1294.75
1725.6,1271
1727.06,1251.61
1728.51,1253.31
1729.96,1243.75
1731.42,1215.43
1732.87,1244.48
1734.33,1281.43
1735.78,1253.95
1737.24,1231.91
1738.69,1280.33
1740.14,1277.12
1741.6,1260.88
1743.05,1214.05
1744.51,1222.13
1745.96,1236.83
1747.41,1223.91
1748.87,1195.29
1750.32,1187.26
1751.78,1201.71
1753.23,1177.22
1754.69,1146.65
1756.14,1139.56
1757.59,1148.3
1759.05,1140.23
1760.5,1142.24
1761.96,1142.25
1763.41,1133.77
1764.87,1108.48
1766.32,1115.41
1767.77,1121.27
1769.23,1109.98
1770.68,1073.16
1772.14,1066.61
1773.59,1101.56
1775.04,1037.09
1776.5,1054.93
1777.95,1036.25
1779.41,1066.22
1780.86,1001.36
1782.32,1032.37
1783.77,1048.65
1785.22,1064.61
1786.68,1021.98
1788.13,1005.41
1789.59,1030.86
1791.04,1053.16
1792.5,1048.94
1793.95,1010.2
1795.4,981.18
1796.86,985.204
1798.31,988.129
1799.77,974.7
1801.22,996.814
1802.68,1005.72
1804.13,993.62
1805.58,993.583
1807.04,1016
1808.49,1005.19
1809.95,963.31
1811.4,997.546
1812.85,1001.36
1814.31,1020.52
1815.76,995.517
1817.22,996.388
1818.67,967.656
1820.13,989.635
1821.58,1019.98
1823.03,1008.74
1824.49,995.051
1825.94,1001.73
1827.4,973.847
1828.85,979.632
1830.31,981.798
1831.76,1033.84
1833.21,1018.97
1834.67,1005.91
1836.12,1003.77
1837.58,1013.93
1839.03,1032.35
1840.48,1041.14
1841.94,1035.15
1843.39,1018.24
1844.85,1036.68
1846.3,1051.27
1847.76,1080.49
1849.21,1050.61
1850.66,1048.46
1852.12,1042.32
1853.57,1051.03
1855.03,1092.69
1856.48,1068.94
1857.94,1039.99
1859.39,1039.48
1860.84,1062.71
1862.3,1042.69
1863.75,1071.27
1865.21,1050.16
1866.66,1074.18
1868.11,1058.92
1869.57,1044.65
1871.02,1053.97
1872.48,1060.88
1873.93,1047.83
1875.39,1045.72
1876.84,1038.51
1878.29,1026.19
1879.75,1024.84
1881.2,1006.82
1882.66,1026.47
1884.11,1033.99
1885.57,1032.59
1887.02,1030.66
1888.47,1024.26
1889.93,1006.39
1891.38,992.949
1892.84,991.728
1894.29,997.774
1895.75,983.36
1897.2,984.561
1898.65,981.728
1900.11,969.041
1901.56,968.685
1903.02,937.655
1904.47,959.037
1905.92,934.447
1907.38,941.318
1908.83,915.762
1910.29,960.736
1911.74,945.717
1913.2,943.658
1914.65,937.946
1916.1,930.978
1917.56,916.11
1919.01,945.507
1920.47,940.308
1921.92,936.927
1923.38,944.862
1924.83,932.612
1926.28,944.188
1927.74,938.266
1929.19,943.804
1930.65,938.325
1932.1,934.907
1933.55,930.788
1935.01,939.268
1936.46,919.208
1937.92,933.774
1939.37,940.106
1940.83,948.461
1942.28,959.712
1943.73,972.419
1945.19,962.801
1946.64,926.028
1948.1,912.419
1949.55,934.304
1951.01,944.787
1952.46,932.467
1953.91,921.758
1955.37,937.039
1956.82,949.456
1958.28,953.173
1959.73,945.633
1961.18,954.606
1962.64,972.512
1964.09,986.885
1965.55,963.62
1967,960.856
1968.46,972.871
1969.91,963.623
1971.36,969.309
1972.82,990.964
1974.27,979.935
1975.73,982.623
1977.18,966.438
1978.64,963.901
1980.09,972.083
1981.54,982.649
1983,979.183
1984.45,990.667
1985.91,994.012
1987.36,1030.08
1988.82,1010.12
1990.27,1002.44
1991.72,978.163
1993.18,964.232
1994.63,981.053
1996.09,958.163
1997.54,974.548
1998.99,1001.3
2000.45,970.099
2001.9,957.751
2003.36,980.12
2004.81,970.026
2006.27,979.054
2007.72,988.73
2009.17,987.456
2010.63,967.262
2012.08,967.933
2013.54,944.929
2014.99,952.094
2016.45,949.609
2017.9,971.452
2019.35,944.081
2020.81,947.848
2022.26,946.55
2023.72,972.612
2025.17,945.748
2026.62,940.251
2028.08,937.504
2029.53,945.306
2030.99,949.3
2032.44,933.772
2033.9,925.331
2035.35,907.206
2036.8,926.216
2038.26,912.743
2039.71,907.389
2041.17,905.856
2042.62,893.524
2044.08,888.151
2045.53,875.848
2046.98,892.252
2048.44,839.899
2049.89,832.898
2051.35,834.927
2052.8,853.547
2054.25,845.86
2055.71,848.356
2057.16,863.807
2058.62,876.998
2060.07,870.648
2061.53,834.974
2062.98,847.336
2064.43,836.513
2065.89,843.596
2067.34,824.607
2068.8,822.677
2070.25,818.79
2071.71,837.277
2073.16,844.657
2074.61,832.098
2076.07,841.508
2077.52,840.761
2078.98,821.04
2080.43,829.971
2081.89,843.646
2083.34,842.092
2084.79,841.058
2086.25,850.288
2087.7,845.617
2089.16,846.897
2090.61,841.472
2092.06,841.929
2093.52,850.198
2094.97,847.599
2096.43,831.59
2097.88,832.593
2099.34,840.789
2100.79,844.273
2102.24,851.318
2103.7,862.997
2105.15,849.75
2106.61,824.773
2108.06,807.727
2109.52,820.384
2110.97,823.514
2112.42,797.055
2113.88,813.314
2115.33,845.055
2116.79,849.868
2118.24,850.357
2119.69,862.674
2121.15,847.398
2122.6,838.214
2124.06,820.421
2125.51,829.933
2126.97,844.535
2128.42,837.124
2129.87,833.359
2131.33,827.418
2132.78,838.927
2134.24,848.037
2135.69,839.977
2137.15,866.29
2138.6,862.582
2140.05,873.62
2141.51,868.807
2142.96,871.794
2144.42,872.569
2145.87,869.579
2147.32,870.122
2148.78,881.518
2150.23,873.925
2151.69,871.981
2153.14,887.618
2154.6,881.229
2156.05,874.899
2157.5,872.351
2158.96,894.619
2160.41,885.887
2161.87,881.001
2163.32,869.591
2164.78,871.106
2166.23,883.368
2167.68,869.399
2169.14,882.352
2170.59,883.732
2172.05,892.294
2173.5,899.615
2174.96,914.416
2176.41,910.148
2177.86,909.146
2179.32,893.807
2180.77,911.726
2182.23,909.215
2183.68,923.727
2185.13,911.026
2186.59,888.008
2188.04,912.893
2189.5,920.807
2190.95,913.955
2192.41,931.764
2193.86,924.681
2195.31,946.448
2196.77,939.399
2198.22,930.527
2199.68,963.396
2201.13,955.258
2202.59,920.859
2204.04,964.069
2205.49,928.262
2206.95,914.199
2208.4,968.842
2209.86,969.978
2211.31,949.667
2212.76,986.293
2214.22,949.22
2215.67,936.234
2217.13,894.249
2218.58,940.229
2220.04,942.39
2221.49,922.065
2222.94,923.527
2224.4,932.012
2225.85,927.701
2227.31,952.753
2228.76,958.163
2230.22,903.302
2231.67,928.994
2233.12,957.641
2234.58,974.912
2236.03,997.97
2237.49,968.794
2238.94,984.416
2240.4,975.353
2241.85,976.54
2243.3,974.743
2244.76,987.81
2246.21,979.307
2247.67,983.635
2249.12,974.767
2250.57,980.264
2252.03,1002.65
2253.48,988.555
2254.94,970.058
2256.39,989.132
2257.85,1005.46
2259.3,1017.16
2260.75,1000.14
2262.21,997.506
2263.66,994.061
2265.12,1000.31
2266.57,1019.87
2268.03,984.593
2269.48,979.565
2270.93,989.97
2272.39,1005.6
2273.84,1036.81
2275.3,1040.64
2276.75,1024.42
2278.2,1036.41
2279.66,1021.11
2281.11,1024.9
2282.57,1016.39
2284.02,1007.22
2285.48,1033.56
2286.93,1086.16
2288.38,1041.27
2289.84,1063.19
2291.29,1074.87
2292.75,1066.6
2294.2,1080.92
2295.66,1092.5
2297.11,1109.27
2298.56,1083.98
2300.02,1085.54
2301.47,1103.44
2302.93,1082.45
2304.38,1079.34
2305.83,1096.29
2307.29,1111.71
2308.74,1124.83
2310.2,1109.1
2311.65,1139.8
2313.11,1129.79
2314.56,1109.66
2316.01,1111.73
2317.47,1125.08
2318.92,1147.1
2320.38,1143.93
2321.83,1145.48
2323.29,1146.15
2324.74,1197.19
2326.19,1179.24
2327.65,1211.51
2329.1,1204.69
2330.56,1205.98
2332.01,1181.71
2333.47,1208.8
2334.92,1223.42
2336.37,1202.77
2337.83,1236.92
2339.28,1218.45
2340.74,1245.37
2342.19,1230.55
2343.64,1205.27
2345.1,1235.23
2346.55,1259.73
2348.01,1238.1
2349.46,1309.34
2350.92,1274.86
2352.37,1298.76
2353.82,1298.08
2355.28,1291.93
2356.73,1316.06
2358.19,1356.82
2359.64,1340.71
2361.1,1347.96
2362.55,1376.9
2364,1399.61
2365.46,1408.34
2366.91,1440.22
2368.37,1439.9
2369.82,1467.42
2371.27,1510.39
2372.73,1527.13
2374.18,1558.07
2375.64,1560.1
2377.09,1575.2
2378.55,1581.38
2380,1640.99
2381.45,1642.68
2382.91,1679.94
2384.36,1731.36
2385.82,1764.3
2387.27,1775.38
2388.73,1794.34
2390.18,1785.05
2391.63,1848.39
2393.09,1870.7
2394.54,1902.09
2396,1941.85
2397.45,2007.34
2398.9,1992.33
2400.36,2021.5
2401.81,2077.29
2403.27,2153.87
2404.72,2180.49
2406.18,2203.13
2407.63,2247.55
2409.08,2286.81
2410.54,2281.56
2411.99,2312.52
2413.45,2276.51
2414.9,2299.46
2416.36,2330.42
2417.81,2400.88
2419.26,2361.36
2420.72,2392.54
2422.17,2393.36
2423.63,2463.4
2425.08,2429.7
2426.53,2396.37
2427.99,2400.32
2429.44,2434.27
2430.9,2408.3
2432.35,2412.07
2433.81,2377.66
2435.26,2384.8
2436.71,2391.75
2438.17,2369.6
2439.62,2351.83
2441.08,2321
2442.53,2310.01
2443.99,2325.36
2445.44,2327.35
2446.89,2333.05
2448.35,2313.81
2449.8,2288.07
2451.26,2271.06
2452.71,2244.81
2454.17,2220.98
2455.62,2252.21
2457.07,2170.05
2458.53,2154.31
2459.98,2184.08
2461.44,2189.47
2462.89,2181.52
2464.34,2160.56
2465.8,2135.77
2467.25,2109.01
2468.71,2137.17
2470.16,2136.82
2471.62,2098.81
2473.07,2113.98
2474.52,2094.59
2475.98,2068.68
2477.43,2078.15
2478.89,2116.29
2480.34,2072.06
2481.8,2109.55
2483.25,2097.26
2484.7,2058.41
2486.16,2077
2487.61,2093.13
2489.07,2089.31
2490.52,2082.53
2491.97,2049.6
2493.43,2080.7
2494.88,2090.23
2496.34,2120.48
2497.79,2146.86
2499.25,2139.1
2500.7,2121.77
2502.15,2103.11
2503.61,2164.36
2505.06,2162.24
2506.52,2163.39
2507.97,2203.48
2509.43,2185.7
2510.88,2156.15
2512.33,2212.55
2513.79,2254
2515.24,2269.91
2516.7,2260.82
2518.15,2266.1
2519.6,2273.23
2521.06,2299.41
2522.51,2361.3
2523.97,2346.05
2525.42,2375.41
2526.88,2354.21
2528.33,2375.65
2529.78,2398.59
2531.24,2412.08
2532.69,2420.87
2534.15,2481.53
2535.6,2525.97
2537.06,2533.1
2538.51,2562.34
2539.96,2584.47
2541.42,2620.53
2542.87,2639.02
2544.33,2720.9
2545.78,2725.31
2547.24,2754.66
2548.69,2832.32
2550.14,2875.43
2551.6,2911.94
2553.05,2994.92
2554.51,3008.75
2555.96,3061.21
2557.41,3149.61
2558.87,3200.23
2560.32,3218.88
2561.78,3284.67
2563.23,3358.52
2564.69,3416.62
2566.14,3537.48
2567.59,3569.44
2569.05,3694.4
2570.5,3739.36
2571.96,3809.38
2573.41,3906.23
2574.87,3986.88
2576.32,4101.19
2577.77,4225.28
2579.23,4294.67
2580.68,4427.19
2582.14,4550.66
2583.59,4685.57
2585.04,4829.36
2586.5,4968.29
2587.95,5092.28
2589.41,5328.2
2590.86,5433.4
2592.32,5660
2593.77,5849.56
2595.22,6032.78
2596.68,6169.98
2598.13,6426.41
2599.59,6689.76
2601.04,6917.09
2602.5,7169.71
2603.95,7421.01
2605.4,7710.53
2606.86,8088.13
2608.31,8390.83
2609.77,8619.59
2611.22,8999.36
2612.68,9427.63
2614.13,9736.3
2615.58,10138.7
2617.04,11181.6
2618.49,11092.8
2619.95,11408.6
2621.4,11915.4
2622.85,12382
2624.31,12838.2
2625.76,13248.4
2627.22,13787.5
2628.67,14226.7
2630.13,14794
2631.58,15346.3
2633.03,15877.2
2634.49,16345.7
2635.94,16925.2
2637.4,17487.7
2638.85,17835.7
2640.31,18261.7
2641.76,18642.9
2643.21,19122.6
2644.67,19631.3
2646.12,19961.6
2647.58,20217.2
2649.03,20403
2650.48,20670.8
2651.94,20787.6
2653.39,21079.3
2654.85,21138.3
2656.3,21113.5
2657.76,21141.8
2659.21,21130.7
2660.66,21064
2662.12,20785.7
2663.57,20662.8
2665.03,20394
2666.48,20057.9
2667.94,19692.2
2669.39,19455.8
2670.84,18989.7
2672.3,18421.1
2673.75,18053.5
2675.21,17577.4
2676.66,17089.7
2678.11,16573
2679.57,16093.4
2681.02,15525
2682.48,15087.3
2683.93,14523.9
2685.39,14060.6
2686.84,13508.8
2688.29,13070.2
2689.75,12526.3
2691.2,12065.2
2692.66,11595.9
2694.11,11104.1
2695.57,10714.2
2697.02,10152.2
2698.47,9826.33
2699.93,9344.01
2701.38,8950.91
2702.84,8541.69
2704.29,8222.88
2705.75,7949.79
2707.2,7608
2708.65,7222.79
2710.11,6996.38
2711.56,6750.65
2713.02,6351.55
2714.47,6136.41
2715.92,5887.97
2717.38,5796.45
2718.83,5537.37
2720.29,5330.55
2721.74,5123.91
2723.2,4998.99
2724.65,4844.56
2726.1,4652.7
2727.56,4500.73
2729.01,4365.82
2730.47,4231.08
2731.92,4097.12
2733.38,4036.26
2734.83,3927.33
2736.28,3785.38
2737.74,3668.41
2739.19,3537.21
2740.65,3488
2742.1,3437.72
2743.55,3354.2
2745.01,3247.28
2746.46,3200
2747.92,3111.4
2749.37,3047.88
2750.83,2997.12
2752.28,2890.71
2753.73,2844.61
2755.19,2845
2756.64,2761.86
2758.1,2696.84
2759.55,2628.99
2761.01,2642.77
2762.46,2599.88
2763.91,2528.95
2765.37,2516.99
2766.82,2458.49
2768.28,2405.55
2769.73,2417.89
2771.18,2314.84
2772.64,2306.5
2774.09,2297.77
2775.55,2263.49
2777,2197.59
2778.46,2220.97
2779.91,2206.49
2781.36,2150.65
2782.82,2089.29
2784.27,2092.71
2785.73,2101.68
2787.18,2078.49
2788.64,2076.03
2790.09,2017.53
2791.54,1997.93
2793,2010.15
2794.45,1975.77
2795.91,1961.64
2797.36,1922.87
2798.82,1950.69
2800.27,1901.75
2801.72,1889.98
2803.18,1859.51
2804.63,1897.24
2806.09,1873.84
2807.54,1867.41
2808.99,1845.82
2810.45,1802.01
2811.9,1795.65
2813.36,1763.64
2814.81,1753.4
2816.27,1770.87
2817.72,1746.08
2819.17,1737.79
2820.63,1729.42
2822.08,1715.63
2823.54,1709.92
2824.99,1704.89
2826.45,1717.69
2827.9,1727.1
2829.35,1718.98
2830.81,1630.23
2832.26,1631.13
2833.72,1657.72
2835.17,1668.96
2836.62,1639.65
2838.08,1677.05
2839.53,1648.13
2840.99,1594.62
2842.44,1642
2843.9,1651.96
2845.35,1627.41
2846.8,1615.76
2848.26,1575.54
2849.71,1636.74
2851.17,1608.51
2852.62,1606.95
2854.08,1605.21
2855.53,1607.22
2856.98,1599.22
2858.44,1555.9
2859.89,1567.94
2861.35,1622.76
2862.8,1585.16
2864.25,1563.97
2865.71,1565.35
2867.16,1621.53
2868.62,1586.97
2870.07,1558.8
2871.53,1580
2872.98,1539.05
2874.43,1603.46
2875.89,1606.69
2877.34,1606.57
2878.8,1601.06
2880.25,1653.85
2881.71,1620.82
2883.16,1596.46
2884.61,1626.97
2886.07,1607.5
2887.52,1577.57
2888.98,1575.79
2890.43,1609.11
2891.89,1563.62
2893.34,1586.94
2894.79,1624.28
2896.25,1623.56
2897.7,1621.68
2899.16,1629.07
2900.61,1585.23
2902.06,1580.77
2903.52,1575.02
2904.97,1579.97
2906.43,1587.02
2907.88,1595.67
2909.34,1556.44
2910.79,1581.68
2912.24,1536.62
2913.7,1557.98
2915.15,1526.81
2916.61,1488.65
2918.06,1478.36
2919.52,1520.14
2920.97,1514.14
2922.42,1508.54
2923.88,1468.99
2925.33,1445.74
2926.79,1471.38
2928.24,1439.28
2929.69,1447.17
2931.15,1447.26
2932.6,1405.5
2934.06,1375.21
2935.51,1396.17
2936.97,1416.59
2938.42,1358.09
2939.87,1371.51
2941.33,1345.85
2942.78,1384.16
2944.24,1278.74
2945.69,1337.27
2947.15,1301.1
2948.6,1314.04
2950.05,1283.7
2951.51,1260.2
2952.96,1248.65
2954.42,1220.62
2955.87,1218.44
2957.32,1218.48
2958.78,1211.27
2960.23,1203.52
2961.69,1187.25
2963.14,1191.85
2964.6,1164.84
2966.05,1178.96
2967.5,1127.56
2968.96,1129.15
2970.41,1151.51
2971.87,1127.26
2973.32,1136.51
2974.78,1133.11
2976.23,1105.16
2977.68,1106.82
2979.14,1091.73
2980.59,1056.97
2982.05,1088.83
2983.5,1104.56
2984.96,1079.97
2986.41,1067.43
2987.86,1080.28
2989.32,1040.92
2990.77,1041.37
2992.23,1025.86
2993.68,1057.94
2995.13,1046.3
2996.59,1059.44
2998.04,1046.21
2999.5,1059.39
3000.95,1045.91
3002.41,1053.2
3003.86,1046.15
3005.31,1059.97
3006.77,1020.62
3008.22,1034.3
3009.68,1032.56
3011.13,998.254
3012.59,990.24
3014.04,1009.09
3015.49,1017.89
3016.95,1030.02
3018.4,1019.36
3019.86,1024.33
3021.31,1003.22
3022.76,1014.84
3024.22,997.513
3025.67,1004.15
3027.13,1010.23
3028.58,987.311
3030.04,996.933
3031.49,1019.91
3032.94,1004.7
3034.4,987.163
3035.85,984.934
3037.31,962.759
3038.76,993.62
3040.22,986.849
3041.67,998.368
3043.12,983.744
3044.58,981.876
3046.03,986.532
3047.49,989.504
3048.94,969.735
3050.4,1010.88
3051.85,1010.14
3053.3,989.737
3054.76,1023.79
3056.21,1007.16
3057.67,1042.97
3059.12,1023.64
3060.57,1022.54
3062.03,1041.53
3063.48,1000.1
3064.94,1033.16
3066.39,1029.11
3067.85,1040.41
3069.3,1055.81
3070.75,1028.85
3072.21,1068.3
3073.66,1071.58
3075.12,1106.42
3076.57,1111.06
3078.03,1080.04
3079.48,1106.3
3080.93,1103.85
3082.39,1087.59
3083.84,1118.63
3085.3,1155.31
3086.75,1144.16
3088.2,1155.01
3089.66,1169.14
3091.11,1157.85
3092.57,1163.89
3094.02,1200.86
3095.48,1201.46
3096.93,1272.35
3098.38,1291.63
3099.84,1283.7
3101.29,1272.95
3102.75,1319.55
3104.2,1301.89
3105.66,1337.87
3107.11,1406.97
3108.56,1335.42
3110.02,1408.32
3111.47,1412.89
3112.93,1403.75
3114.38,1438.37
3115.83,1453.12
3117.29,1497.12
3118.74,1511.14
3120.2,1546.28
3121.65,1551.32
3123.11,1550.05
3124.56,1566.49
3126.01,1620.15
3127.47,1623.01
3128.92,1649.46
3130.38,1611.67
3131.83,1633.72
3133.29,1640.21
3134.74,1666.27
3136.19,1663.33
3137.65,1645.43
3139.1,1654.53
3140.56,1702.2
3142.01,1689.4
3143.47,1686.78
3144.92,1677.52
3146.37,1659.13
3147.83,1655.9
3149.28,1636.78
3150.74,1692.61
3152.19,1674.03
3153.64,1668.39
3155.1,1650.24
3156.55,1663.78
3158.01,1722.08
3159.46,1739.34
3160.92,1682.62
3162.37,1716.81
3163.82,1738.49
3165.28,1733.8
3166.73,1759.93
3168.19,1746.86
3169.64,1824.57
3171.1,1780.89
3172.55,1835.67
3174,1834.67
3175.46,1856.67
3176.91,1862.87
3178.37,1886.74
3179.82,1927.08
3181.27,1907.78
3182.73,1942.39
3184.18,1951.69
3185.64,1941.87
3187.09,1968.13
3188.55,1974.48
3190,2000.74
3191.45,2061.98
3192.91,2036.33
3194.36,2102.03
3195.82,2115.69
3197.27,2088.38
3198.73,2014.21
3200.18,2052.51
3201.63,2037.92
3203.09,2034.07
3204.54,2027.51
3206,1969.52
3207.45,1983.32
3208.9,1876.61
3210.36,1895.76
3211.81,1873.14
3213.27,1882.68
3214.72,1819.92
3216.18,1768.89
3217.63,1756.18
3219.08,1697.55
3220.54,1672.58
3221.99,1616.54
3223.45,1558.98
3224.9,1521.42
3226.36,1461.84
3227.81,1459.86
3229.26,1451.05
3230.72,1379.6
3232.17,1338.2
3233.63,1323.43
3235.08,1311.9
3236.53,1251.8
3237.99,1223.43
3239.44,1174.14
3240.9,1168.79
3242.35,1160.11
3243.81,1114.68
3245.26,1066.37
3246.71,1048.73
3248.17,1035.68
3249.62,1035.86
3251.08,1000.55
3252.53,992.744
3253.99,1024.58
3255.44,964.981
3256.89,969.771
3258.35,965.005
3259.8,956.072
3261.26,928.275
3262.71,937.008
3264.17,909.11
3265.62,928.231
3267.07,883.856
3268.53,909.372
3269.98,899.179
3271.44,859.483
3272.89,864.984
3274.34,895.831
3275.8,864.101
3277.25,870.267
3278.71,851.537
3280.16,852.711
3281.62,855.052
3283.07,853.419
3284.52,849.076
3285.98,849.006
3287.43,829.22
3288.89,825.511
3290.34,807.752
3291.8,837.259
3293.25,807.583
3294.7,833.873
3296.16,847.479
3297.61,812.066
3299.07,823.744
3300.52,798.986
3301.97,844.589
3303.43,836.573
3304.88,829.969
3306.34,808.557
3307.79,822.782
3309.25,783.168
3310.7,805.91
3312.15,825.927
3313.61,797.284
3315.06,763.819
3316.52,800.896
3317.97,831.444
3319.43,815.585
3320.88,824.337
3322.33,788.477
3323.79,804.512
3325.24,784.46
3326.7,809.713
3328.15,796.154
3329.6,809.711
3331.06,807.764
3332.51,797.413
3333.97,808.43
3335.42,799.946
3336.88,804.282
3338.33,785.32
3339.78,803.223
3341.24,776.469
3342.69,794.796
3344.15,802.057
3345.6,781.489
3347.06,787.06
3348.51,788.262
3349.96,786.598
3351.42,784.761
3352.87,790.809
3354.33,797.451
3355.78,787.922
3357.24,777.117
3358.69,774.109
3360.14,774.544
3361.6,791.712
3363.05,793.879
3364.51,821.772
3365.96,818.872
3367.41,784.656
3368.87,782.651
3370.32,761.902
3371.78,779.661
3373.23,773.446
3374.69,774.391
3376.14,802.348
3377.59,754.474
3379.05,782.534
3380.5,761.065
3381.96,773.137
3383.41,788.531
3384.87,785.419
3386.32,807.951
3387.77,773.05
3389.23,754.69
3390.68,761.153
3392.14,786.553
3393.59,797.644
3395.04,759.807
3396.5,779.472
3397.95,787.354
3399.41,797.115
3400.86,782.36
3402.32,804.632
3403.77,790.856
3405.22,771.746
3406.68,775.887
3408.13,756.296
3409.59,792.131
3411.04,787.459
3412.5,785.62
3413.95,780.767
3415.4,784.071
3416.86,760.723
3418.31,763.17
3419.77,777.281
3421.22,796.708
3422.68,783.571
3424.13,767.253
3425.58,792.609
3427.04,775.525
3428.49,764.768
3429.95,748.068
3431.4,759.043
3432.85,751.111
3434.31,779.622
3435.76,763.759
3437.22,778.944
3438.67,777.484
3440.13,756.464
3441.58,790.944
3443.03,766.727
3444.49,758.424
3445.94,780.126
3447.4,751.478
3448.85,765.725
3450.31,775.436
3451.76,757.524
3453.21,765.433
3454.67,808.995
3456.12,753.354
3457.58,780.663
3459.03,771.451
3460.48,792.977
3461.94,777.302
3463.39,790.742
3464.85,782.412
3466.3,784.333
3467.76,777.033
3469.21,767.289
3470.66,756.714
3472.12,760.964
3473.57,779.079
3475.03,774.63
3476.48,776.48
3477.94,812.736
3479.39,801.873
3480.84,792.121
3482.3,757.159
3483.75,755.74
3485.21,774.919
3486.66,779.592
3488.11,765.095
3489.57,788.381
3491.02,792.062
3492.48,785.781
3493.93,767.627
3495.39,810.181
3496.84,780.695
3498.29,776.219
3499.75,763.117
3501.2,811.326
3502.66,787.732
3504.11,753.191
3505.57,759.238
3507.02,752.009
3508.47,832.954
3509.93,787.397
3511.38,804.737
3512.84,803.777
3514.29,770.217
3515.75,833.029
3517.2,826.411
3518.65,791.474
3520.11,789.654
3521.56,779.225
3523.02,788.029
3524.47,760.318
3525.92,777.565
3527.38,795.42
3528.83,775.724
3530.29,791.909
3531.74,778.235
3533.2,805.377
3534.65,778.037
3536.1,776.183
3537.56,791.903
3539.01,794.198
3540.47,791.625
3541.92,816.717
3543.38,806.067
3544.83,841.973
3546.28,784.948
3547.74,782.935
3549.19,811.093
3550.65,790.173
3552.1,792.985
3553.55,812.144
3555.01,809.161
3556.46,825.117
3557.92,814.897
3559.37,803.759
3560.83,791.229
3562.28,803.706
3563.73,799.271
3565.19,821.466
3566.64,790.542
3568.1,790.381
3569.55,790.489
3571.01,799.616
3572.46,784.133
3573.91,794.807
3575.37,783.815
3576.82,796.403
3578.28,819.089
3579.73,783.866
3581.18,796.594
3582.64,804.669
3584.09,761.316
3585.55,789.897
3587,801.086
3588.46,796.311
3589.91,816.967
3591.36,807.137
3592.82,775.859
3594.27,815.347
3595.73,781.112
3597.18,805.672
3598.64,817.952
3600.09,811.813
3601.54,790.811
3603,819.104
3604.45,796.246
3605.91,808.921
3607.36,804.516
3608.82,820.882
3610.27,804.21
3611.72,821.073
3613.18,811.479
3614.63,817.492
3616.09,824.477
3617.54,783.372
3618.99,782.65
3620.45,802.628
3621.9,777.042
3623.36,780.595
3624.81,799.151
3626.27,777.449
3627.72,791.974
3629.17,790.795
3630.63,809.171
3632.08,841.234
3633.54,812.904
3634.99,821.323
3636.45,814.597
3637.9,795.565
3639.35,824.067
3640.81,826.232
3642.26,805.982
3643.72,815.293
3645.17,797.001
3646.62,794.617
3648.08,799.276
3649.53,806.859
3650.99,812.679
3652.44,782.137
3653.9,834.851
3655.35,819.367
3656.8,810.896
3658.26,807.729
3659.71,794.483
3661.17,844.795
3662.62,816.262
3664.08,834.452
3665.53,813.738
3666.98,794.867
3668.44,814.768
3669.89,822.262
3671.35,853.223
3672.8,801.343
3674.25,824.857
3675.71,818.112
3677.16,816.145
3678.62,833.672
3680.07,820.571
3681.53,810.217
3682.98,827.976
3684.43,852.574
3685.89,832.841
3687.34,835.924
3688.8,821.287
3690.25,825.846
3691.71,840.542
3693.16,850.838
3694.61,836.339
3696.07,850.703
3697.52,855.244
3698.98,834.003
3700.43,860.726
3701.89,833.356
3703.34,840.711
3704.79,829.533
3706.25,817.289
3707.7,825.41
3709.16,841.329
3710.61,817.537
3712.06,868.224
3713.52,847.745
3714.97,845.682
3716.43,835.403
3717.88,826.156
3719.34,844.797
3720.79,853.429
3722.24,833.63
3723.7,859.589
3725.15,860.771
3726.61,839.175
3728.06,838.695
3729.52,825.26
3730.97,862.842
3732.42,823.072
3733.88,848.98
3735.33,845.705
3736.79,833.866
3738.24,842.363
3739.69,876.556
3741.15,846.339
3742.6,877.944
3744.06,836.24
3745.51,840.279
3746.97,827.729
3748.42,842.728
3749.87,869.174
3751.33,846.704
3752.78,854.333
3754.24,826.646
3755.69,854.609
3757.15,853.547
3758.6,879.284
3760.05,872.89
3761.51,907.931
3762.96,876.454
3764.42,868.431
3765.87,852.809
3767.32,910.871
3768.78,870.782
3770.23,871.973
3771.69,889.313
3773.14,869.592
3774.6,889.24
3776.05,869.046
3777.5,888.692
3778.96,861.056
3780.41,874.749
3781.87,867.583
3783.32,875.56
3784.78,868.549
3786.23,881.013
3787.68,899.376
3789.14,906.733
3790.59,896.712
3792.05,908.152
3793.5,896.329
3794.96,882.308
3796.41,862.402
3797.86,884.523
3799.32,888.618
3800.77,888.643
3802.23,918.435
3803.68,879.398
3805.13,898.433
3806.59,916.586
3808.04,936.545
3809.5,883.463
3810.95,901.355
3812.41,904.953
3813.86,903.873
3815.31,891.194
3816.77,903.288
3818.22,911.184
3819.68,907.629
3821.13,889.613
3822.59,904.625
3824.04,910.637
3825.49,895.096
3826.95,902.57
3828.4,901.22
3829.86,904.203
3831.31,922.86
3832.76,890.865
3834.22,923.875
3835.67,946.723
3837.13,919.015
3838.58,929.743
3840.04,943.868
3841.49,938.508
3842.94,901.204
3844.4,911.515
3845.85,934.055
3847.31,928.479
3848.76,914.148
3850.22,943.048
3851.67,928.208
3853.12,912.546
3854.58,940.673
3856.03,975.05
3857.49,965.618
3858.94,961.786
3860.4,952.262
3861.85,952.221
3863.3,966.348
3864.76,971.878
3866.21,951.739
3867.67,965.678
3869.12,932.235
3870.57,970.323
3872.03,996.891
3873.48,947.623
3874.94,953.007
3876.39,982.612
3877.85,960.597
3879.3,949.981
3880.75,982.246
3882.21,987.632
3883.66,973.955
3885.12,970.101
3886.57,972.527
3888.03,979.186
3889.48,967.009
3890.93,992.206
3892.39,993.444
3893.84,986.03
3895.3,1026.98
3896.75,987.958
3898.2,1011.25
3899.66,966.273
3901.11,990.109
3902.57,1005.14
3904.02,985.454
3905.48,986.406
3906.93,1020.77
3908.38,1132.15
3909.84,1074.25
3911.29,1060.2
3912.75,1026.65
3914.2,1014.37
3915.66,1045.85
3917.11,989.871
3918.56,1022.97
3920.02,1047.65
3921.47,1032.83
3922.93,1049.63
3924.38,1036.42
3925.83,1046.61
3927.29,1049.17
3928.74,1069
3930.2,1106.71
3931.65,1082.13
3933.11,1078.86
3934.56,1077.01
3936.01,1063.66
3937.47,1069.06
3938.92,1069.29
3940.38,1072.84
3941.83,1092.75
3943.29,1117.85
3944.74,1106.82
3946.19,1099.09
3947.65,1102.26
3949.1,1115.27
3950.56,1137.73
3952.01,1115.84
3953.47,1095.24
3954.92,1084.94
3956.37,1120.27
3957.83,1134.34
3959.28,1144.54
3960.74,1158.05
3962.19,1110.66
3963.64,1126.45
3965.1,1172.93
3966.55,1156.19
3968.01,1132.47
3969.46,1179.22
3970.92,1186.75
3972.37,1152.61
3973.82,1153.34
3975.28,1149.45
3976.73,1173.49
3978.19,1180.06
3979.64,1192.91
3981.1,1211.28
3982.55,1179.67
3984,1163.47
3985.46,1198.42
3986.91,1185.51
3988.37,1176.3
3989.82,1184.64
3991.27,1176.93
3992.73,1218.06
3994.18,1226.21
3995.64,1203.91
3997.09,1181.29
3998.55,1236.65
4000,1204.41
