-0.1,28.1311
1.45033,28.1311
2.90065,28.1311
4.35098,28.1311
5.80131,28.1311
7.25163,23.2081
8.70196,52.3666
10.1523,36.0628
11.6026,28.2306
13.0529,24.4978
14.5033,21.6079
15.9536,18.9115
17.4039,17.2099
18.8542,15.9664
20.3046,16.5029
21.7549,16.4579
23.2052,14.4863
24.6555,12.5942
26.1059,12.8929
27.5562,12.5112
29.0065,11.2604
30.4569,9.74843
31.9072,8.32827
33.3575,8.68545
34.8078,9.13837
36.2582,8.96858
37.7085,8.49492
39.1588,8.72049
40.6091,7.40975
42.0595,5.9357
43.5098,5.85493
44.9601,7.65635
46.4104,8.75548
47.8608,11.1096
49.3111,14.567
50.7614,17.8966
52.2117,28.7134
53.6621,52.6992
55.1124,89.4992
56.5627,140.132
58.0131,210.388
59.4634,274.538
60.9137,334.757
62.364,387.875
63.8144,431.531
65.2647,471.912
66.715,494.009
68.1653,507.277
69.6157,517.17
71.066,528.524
72.5163,529.186
73.9666,529.225
75.417,527.755
76.8673,524.821
78.3176,521.97
79.7679,533.623
81.2183,548.78
82.6686,565.552
84.1189,582.062
85.5693,591.584
87.0196,597.963
88.4699,594.295
89.9202,587.031
91.3706,586.19
92.8209,564.367
94.2712,553.913
95.7215,543.864
97.1719,529.21
98.6222,508.901
100.073,499.157
101.523,494.29
102.973,485.517
104.423,468.522
105.874,447.815
107.324,449.848
108.774,442.863
110.225,432.036
111.675,425.963
113.125,424.053
114.576,419.156
116.026,411.992
117.476,404.428
118.927,398.09
120.377,380.483
121.827,376.377
123.278,377.353
124.728,374.94
126.178,359.16
127.629,348.051
129.079,340.744
130.529,334.177
131.98,328.14
133.43,326.801
134.88,322.107
136.331,319.977
137.781,316.845
139.231,312.076
140.682,314.854
142.132,302.96
143.582,293.067
145.033,289.092
146.483,290.473
147.933,284.338
149.384,278.696
150.834,267.969
152.284,258.548
153.735,259.029
155.185,266.128
156.635,250.787
158.086,250.428
159.536,255.136
160.986,236.761
162.437,237.914
163.887,239.294
165.337,243.075
166.788,244.552
168.238,234.457
169.688,237.632
171.139,237.091
172.589,234.303
174.039,231.463
175.489,231.752
176.94,225.581
178.39,222.214
179.84,223.975
181.291,226.905
182.741,218.053
184.191,210.863
185.642,207.909
187.092,204.292
188.542,199.998
189.993,204.336
191.443,205.206
192.893,204.413
194.344,203.221
195.794,202.782
197.244,204.227
198.695,206.303
200.145,202.797
201.595,199.868
203.046,200.595
204.496,197.895
205.946,206.218
207.397,206.374
208.847,204.206
210.297,203.79
211.748,196.938
213.198,197.766
214.648,195.527
216.099,191.852
217.549,188.666
218.999,184.512
220.45,180.971
221.9,176.339
223.35,176.267
224.801,183.317
226.251,189.31
227.701,187.173
229.152,186.073
230.602,184.507
232.052,180.535
233.503,174.142
234.953,184.326
236.403,182.601
237.854,179.386
239.304,181.188
240.754,174.694
242.204,172.526
243.655,175.719
245.105,173.289
246.555,165.547
248.006,178.919
249.456,174.643
250.906,174.792
252.357,174.548
253.807,171.361
255.257,169.711
256.708,175.252
258.158,175.297
259.608,175.082
261.059,176.457
262.509,175.582
263.959,166.11
265.41,165.475
266.86,170.945
268.31,176.104
269.761,171.59
271.211,172.563
272.661,167.494
274.112,166.303
275.562,170.565
277.012,175.001
278.463,166.728
279.913,167.464
281.363,165.008
282.814,160.498
284.264,160.848
285.714,159.484
287.165,158.526
288.615,158.92
290.065,158.161
291.516,153.953
292.966,151.907
294.416,156.489
295.867,155.879
297.317,153.489
298.767,152.87
300.218,146.731
301.668,151.293
303.118,152.632
304.569,154.387
306.019,156.335
307.469,146.572
308.919,150.531
310.37,149.289
311.82,147.726
313.27,146.043
314.721,138.185
316.171,134.569
317.621,132.091
319.072,136.491
320.522,140.48
321.972,131.72
323.423,135.437
324.873,136.79
326.323,136.5
327.774,135.035
329.224,134.001
330.674,140.657
332.125,138.054
333.575,135.88
335.025,135.962
336.476,137.237
337.926,135.179
339.376,136.309
340.827,135.243
342.277,132.418
343.727,132.782
345.178,144.31
346.628,131.171
348.078,128.677
349.529,129.576
350.979,129.886
352.429,128.754
353.88,134.445
355.33,129.945
356.78,129.4
358.231,131.734
359.681,132.346
361.131,126.945
362.582,128.297
364.032,130.765
365.482,132.759
366.933,132.153
368.383,126.415
369.833,127.497
371.284,122.25
372.734,123.156
374.184,126.858
375.635,124.791
377.085,126.758
378.535,128.207
379.986,129.264
381.436,129.857
382.886,130.054
384.336,130.251
385.787,128.632
387.237,128.935
388.687,127.63
390.138,124.868
391.588,123.922
393.038,125.005
394.489,125.925
395.939,126.39
397.389,128.382
398.84,131.316
400.29,124.412
401.74,124.528
403.191,124.137
404.641,128.973
406.091,133.807
407.542,122.702
408.992,127.243
410.442,126.794
411.893,124.628
413.343,124.612
414.793,128.511
416.244,129.795
417.694,123.876
419.144,122.681
420.595,120.125
422.045,118.087
423.495,128.791
424.946,131.856
426.396,122.781
427.846,118.225
429.297,119.966
430.747,123.766
432.197,127.234
433.648,120.944
435.098,118.197
436.548,122.436
437.999,127.529
439.449,120.739
440.899,126.187
442.35,122.177
443.8,122.289
445.25,122.833
446.701,119.792
448.151,124.953
449.601,123.192
451.051,119.864
452.502,120.684
453.952,124.515
455.402,125.382
456.853,124.885
458.303,118.533
459.753,121.814
461.204,125.537
462.654,122.544
464.104,119.874
465.555,124.543
467.005,122.888
468.455,121.776
469.906,120.893
471.356,118.363
472.806,122.344
474.257,120.898
475.707,121.125
477.157,121.037
478.608,122.985
480.058,132.024
481.508,124.163
482.959,124.281
484.409,121.124
485.859,120.572
487.31,124.983
488.76,121.802
490.21,124.193
491.661,118.801
493.111,119.142
494.561,123.479
496.012,124.166
497.462,121.475
498.912,120.658
500.363,116.171
501.813,116.396
503.263,121.483
504.714,124.077
506.164,120.186
507.614,116.202
509.065,114.911
510.515,115.752
511.965,117.498
513.416,118.913
514.866,116.713
516.316,116.193
517.766,121.035
519.217,121.623
520.667,114.52
522.117,115.531
523.568,118.633
525.018,120.539
526.468,121.194
527.919,119.856
529.369,116.439
530.819,113.435
532.27,115.473
533.72,115.465
535.17,117.822
536.621,121.862
538.071,122.729
539.521,113.217
540.972,118.345
542.422,121.894
543.872,121.384
545.323,118.785
546.773,117.963
548.223,119.267
549.674,118.467
551.124,120.235
552.574,122.032
554.025,122.886
555.475,123.568
556.925,119.35
558.376,121.321
559.826,120.427
561.276,118.454
562.727,118.05
564.177,120.06
565.627,120.965
567.078,119.658
568.528,115.185
569.978,117.886
571.429,123.583
572.879,113.483
574.329,115.394
575.78,115.724
577.23,115.825
578.68,117.207
580.131,118.851
581.581,117.665
583.031,120.687
584.482,116.681
585.932,118.285
587.382,119.973
588.832,119.017
590.283,120.32
591.733,121.529
593.183,126.013
594.634,122.598
596.084,119.554
597.534,120.168
598.985,118.476
600.435,119.182
601.885,123.207
603.336,122.833
604.786,119.21
606.236,116.991
607.687,119.785
609.137,114.229
610.587,117.727
612.038,115.937
613.488,117.457
614.938,121.607
616.389,119.62
617.839,118.609
619.289,111.874
620.74,118.854
622.19,123.694
623.64,120.92
625.091,117.135
626.541,122.303
627.991,120.198
629.442,118.928
630.892,120.153
632.342,122.53
633.793,123.275
635.243,120.134
636.693,123.019
638.144,120.293
639.594,124.441
641.044,125.085
642.495,117.058
643.945,122.295
645.395,126.453
646.846,123.874
648.296,125.229
649.746,126.777
651.197,125.993
652.647,127.179
654.097,127.991
655.547,127.36
656.998,124.133
658.448,121.937
659.898,120.496
661.349,118.151
662.799,127.194
664.249,128.103
665.7,126.669
667.15,128.259
668.6,129.677
670.051,126.219
671.501,122.782
672.951,129.7
674.402,130.484
675.852,127.382
677.302,129.309
678.753,134.343
680.203,125.31
681.653,130.815
683.104,133.8
684.554,132.694
686.004,129.89
687.455,128.887
688.905,131.471
690.355,132.389
691.806,133.989
693.256,130.6
694.706,130.236
696.157,131.213
697.607,130.038
699.057,131.285
700.508,133.226
701.958,138.804
703.408,137.696
704.859,134.275
706.309,133.404
707.759,134.202
709.21,128.687
710.66,127.083
712.11,131.056
713.561,130.024
715.011,129.245
716.461,134.465
717.912,130.332
719.362,128.489
720.812,130.448
722.263,130.937
723.713,134.475
725.163,138.682
726.613,134.439
728.064,132.085
729.514,134.556
730.964,133.883
732.415,132.918
733.865,132.757
735.315,132.475
736.766,131.011
738.216,139.423
739.666,136.877
741.117,132.318
742.567,132.798
744.017,133.337
745.468,126.718
746.918,134.214
748.368,133.36
749.819,129.78
751.269,132.38
752.719,133.566
754.17,129.756
755.62,131.144
757.07,137.825
758.521,136.177
759.971,129.831
761.421,130.495
762.872,134.322
764.322,133.047
765.772,131.165
767.223,135.281
768.673,139.126
770.123,133.558
771.574,130.915
773.024,134.544
774.474,136.139
775.925,129.655
777.375,133.57
778.825,135.779
780.276,135.138
781.726,134.57
783.176,133.967
784.627,131.165
786.077,136.011
787.527,135.879
788.978,133.441
790.428,138.341
791.878,140.739
793.328,137.53
794.779,141.587
796.229,135.805
797.68,138.745
799.13,137.896
800.58,137.023
802.03,137.863
803.481,140.948
804.931,146.045
806.381,138.81
807.832,142.227
809.282,138.878
810.732,136.72
812.183,137.579
813.633,138.822
815.083,139.769
816.534,140.907
817.984,141.105
819.434,143.128
820.885,141.597
822.335,141.03
823.785,144.147
825.236,140.238
826.686,137.959
828.136,143.673
829.587,140.673
831.037,142.107
832.487,148.919
833.938,151.089
835.388,141.687
836.838,147.183
838.289,151.069
839.739,145.478
841.189,145.435
842.64,149.814
844.09,151.547
845.54,152.089
846.991,147.729
848.441,147.704
849.891,148.81
851.342,149.098
852.792,151.642
854.242,154.347
855.693,147.172
857.143,137.505
858.593,148.891
860.044,152.836
861.494,152.804
862.944,150.505
864.394,149.163
865.845,152.717
867.295,152.613
868.745,151.691
870.196,153.659
871.646,149.385
873.096,146.42
874.547,146.238
875.997,143.481
877.447,147.005
878.898,144.713
880.348,152.21
881.798,153.807
883.249,152.187
884.699,151.642
886.149,152.328
887.6,150.632
889.05,142.799
890.5,149.224
891.951,150.768
893.401,149.936
894.851,150.764
896.302,152.537
897.752,150.695
899.202,149.86
900.653,155.998
902.103,153.897
903.553,155.91
905.004,156.238
906.454,156.769
907.904,165.609
909.355,167.789
910.805,166.323
912.255,163.206
913.706,154.795
915.156,154.238
916.606,157.64
918.057,158.35
919.507,163.496
920.957,150.919
922.408,155.897
923.858,164.445
925.308,164.739
926.759,161.418
928.209,163.372
929.659,170.552
931.109,167.111
932.56,167.111
934.01,168.406
935.46,170.642
936.911,164.228
938.361,161.368
939.811,168.002
941.262,165.627
942.712,173.079
944.162,169.282
945.613,169.512
947.063,161.965
948.513,159.932
949.964,165.741
951.414,167.485
952.864,161.846
954.315,165.734
955.765,170.016
957.215,169.506
958.666,168.273
960.116,167.028
961.566,165.902
963.017,164.996
964.467,160.421
965.917,166.11
967.368,166.093
968.818,166.838
970.268,163.665
971.719,160.788
973.169,162.59
974.619,165.629
976.07,168.536
977.52,165.165
978.97,172.682
980.421,170.951
981.871,170.722
983.321,170.021
984.772,166.785
986.222,172.207
987.672,164.288
989.123,170.583
990.573,168.1
992.023,168.721
993.474,169.125
994.924,168.057
996.374,168.477
997.825,170.885
999.275,167.29
1000.73,172.739
1002.18,171.592
1003.63,175.431
1005.08,178.759
1006.53,180.112
1007.98,180.873
1009.43,177.738
1010.88,174.879
1012.33,176.726
1013.78,186.971
1015.23,184.451
1016.68,182.08
1018.13,184.006
1019.58,184.814
1021.03,183.905
1022.48,181.402
1023.93,191.686
1025.38,190.708
1026.83,196.708
1028.28,194.567
1029.73,190.748
1031.18,192.687
1032.63,190.09
1034.08,190.97
1035.53,192.881
1036.98,205.201
1038.43,207.676
1039.88,204.938
1041.33,205.944
1042.78,207.398
1044.23,203.081
1045.69,211.03
1047.14,208.265
1048.59,206.49
1050.04,209.685
1051.49,208.906
1052.94,210.834
1054.39,216.682
1055.84,219.234
1057.29,217.831
1058.74,222.834
1060.19,225.021
1061.64,222.473
1063.09,228.367
1064.54,232.665
1065.99,233.736
1067.44,236.317
1068.89,240.874
1070.34,248.416
1071.79,245.005
1073.24,241.883
1074.69,237.22
1076.14,238.732
1077.59,243.85
1079.04,247.341
1080.49,248.042
1081.94,246.987
1083.39,238.341
1084.84,254.152
1086.29,252.752
1087.74,245.938
1089.2,248.256
1090.65,251.054
1092.1,246.547
1093.55,243.836
1095,243.037
1096.45,239.937
1097.9,238.932
1099.35,240.396
1100.8,239.62
1102.25,242.602
1103.7,237.483
1105.15,228.068
1106.6,247.558
1108.05,245.595
1109.5,234.984
1110.95,234.316
1112.4,233.256
1113.85,234.933
1115.3,236.921
1116.75,235.477
1118.2,231.941
1119.65,230.94
1121.1,225.075
1122.55,234.939
1124,227.112
1125.45,224.627
1126.9,228.612
1128.35,228.296
1129.8,226.541
1131.25,228.831
1132.7,220.519
1134.16,228.139
1135.61,231.468
1137.06,222.35
1138.51,222.181
1139.96,219.902
1141.41,219.198
1142.86,219.395
1144.31,216.66
1145.76,222.483
1147.21,219.99
1148.66,215.36
1150.11,222.189
1151.56,218.877
1153.01,212.68
1154.46,213.352
1155.91,216.35
1157.36,216.521
1158.81,222.665
1160.26,221.331
1161.71,208.825
1163.16,220.269
1164.61,217.9
1166.06,217.272
1167.51,220.118
1168.96,220.077
1170.41,216.881
1171.86,216.187
1173.31,214.323
1174.76,212.058
1176.21,216.647
1177.66,215.08
1179.12,214.848
1180.57,216.095
1182.02,217.863
1183.47,218.157
1184.92,217.731
1186.37,223.82
1187.82,217.981
1189.27,221.762
1190.72,220.494
1192.17,218.628
1193.62,217.981
1195.07,214.195
1196.52,214.393
1197.97,222.876
1199.42,225.266
1200.87,223.053
1202.32,224.895
1203.77,213.271
1205.22,220.415
1206.67,221.285
1208.12,215.989
1209.57,216.612
1211.02,220.555
1212.47,219.85
1213.92,225.083
1215.37,218.54
1216.82,225.266
1218.27,223.451
1219.72,228.68
1221.17,227.997
1222.63,223.578
1224.08,223.979
1225.53,225.926
1226.98,220.132
1228.43,217.25
1229.88,230.554
1231.33,220.99
1232.78,232.25
1234.23,228.293
1235.68,231.938
1237.13,234.939
1238.58,235.536
1240.03,236.399
1241.48,235.12
1242.93,243.236
1244.38,235.301
1245.83,228.225
1247.28,232.923
1248.73,244.686
1250.18,243.493
1251.63,237.412
1253.08,238.732
1254.53,243.077
1255.98,242.731
1257.43,249.616
1258.88,253.561
1260.33,247.02
1261.78,252.317
1263.23,254.923
1264.68,251.75
1266.13,253.936
1267.59,261.139
1269.04,267.507
1270.49,269.284
1271.94,265.825
1273.39,277.704
1274.84,274.314
1276.29,274.272
1277.74,281.816
1279.19,281.716
1280.64,288.322
1282.09,293.576
1283.54,298.566
1284.99,307.155
1286.44,308.443
1287.89,312.591
1289.34,303.363
1290.79,323.277
1292.24,330.807
1293.69,332.748
1295.14,341.803
1296.59,353.423
1298.04,358.83
1299.49,364.665
1300.94,379.1
1302.39,388.716
1303.84,389.876
1305.29,396.781
1306.74,410.333
1308.19,417.419
1309.64,432.057
1311.09,451.084
1312.55,467.736
1314,480.088
1315.45,495.068
1316.9,513.463
1318.35,522.376
1319.8,544.493
1321.25,551.96
1322.7,557.518
1324.15,584.764
1325.6,584.324
1327.05,581.67
1328.5,581.419
1329.95,585.184
1331.4,594.3
1332.85,599.244
1334.3,595.034
1335.75,595.73
1337.2,575.711
1338.65,571.076
1340.1,553.401
1341.55,551.511
1343,539.297
1344.45,520.008
1345.9,511.399
1347.35,507.011
1348.8,488.867
1350.25,464.78
1351.7,448.13
1353.15,444.458
1354.6,447.985
1356.06,434.358
1357.51,406.307
1358.96,391.387
1360.41,389.919
1361.86,386.532
1363.31,380.421
1364.76,377.122
1366.21,368.353
1367.66,349.596
1369.11,345.814
1370.56,351.451
1372.01,342.612
1373.46,341.955
1374.91,335.059
1376.36,337.942
1377.81,334.219
1379.26,325.347
1380.71,320.723
1382.16,321.023
1383.61,324.186
1385.06,316.111
1386.51,305.012
1387.96,316.076
1389.41,317.108
1390.86,323.214
1392.31,321.971
1393.76,311.967
1395.21,315.331
1396.66,314.107
1398.11,310.755
1399.56,322.688
1401.02,324.773
1402.47,322.997
1403.92,320.934
1405.37,325.485
1406.82,328.211
1408.27,328.056
1409.72,321.03
1411.17,330.354
1412.62,333.332
1414.07,323.151
1415.52,321.584
1416.97,330.886
1418.42,332.88
1419.87,340.504
1421.32,340.737
1422.77,343.4
1424.22,333.833
1425.67,338.81
1427.12,355.011
1428.57,346.517
1430.02,345.999
1431.47,351.653
1432.92,352.894
1434.37,355.026
1435.82,360.643
1437.27,366.733
1438.72,380.697
1440.17,371.557
1441.62,367.544
1443.07,374.743
1444.53,368.183
1445.98,378.779
1447.43,389.305
1448.88,393.608
1450.33,389.097
1451.78,388.053
1453.23,399.6
1454.68,410.828
1456.13,410.912
1457.58,414.237
1459.03,419.582
1460.48,427.847
1461.93,418.211
1463.38,438.589
1464.83,446.057
1466.28,445.922
1467.73,451.345
1469.18,458.723
1470.63,470.704
1472.08,486
1473.53,494.812
1474.98,498.142
1476.43,503.492
1477.88,515.034
1479.33,508.625
1480.78,531.158
1482.23,541.878
1483.68,550.496
1485.13,571.864
1486.58,579.109
1488.03,583.865
1489.49,604.01
1490.94,621.004
1492.39,626.741
1493.84,637.915
1495.29,653.43
1496.74,682.812
1498.19,695.339
1499.64,721.947
1501.09,718.916
1502.54,766.06
1503.99,798.037
1505.44,821.797
1506.89,856.394
1508.34,890.957
1509.79,924.915
1511.24,964.084
1512.69,1010.25
1514.14,1063.34
1515.59,1119.87
1517.04,1176.56
1518.49,1237.86
1519.94,1306.03
1521.39,1403.11
1522.84,1508.93
1524.29,1597.83
1525.74,1695.9
1527.19,1848.01
1528.64,1989.31
1530.09,2124.75
1531.54,2288.44
1532.99,2475.61
1534.45,2683.98
1535.9,2909.71
1537.35,3122.29
1538.8,3372.4
1540.25,3594.9
1541.7,3884.4
1543.15,4177.27
1544.6,4521.28
1546.05,4766.63
1547.5,5033.18
1548.95,5318.44
1550.4,5634.34
1551.85,5893.51
1553.3,5902.88
1554.75,5912.55
1556.2,5929.46
1557.65,5943.96
1559.1,5954.6
1560.55,5992.3
1562,5973.93
1563.45,5969.24
1564.9,5966.54
1566.35,5955.37
1567.8,5909.26
1569.25,5616.8
1570.7,5290.31
1572.15,4959.38
1573.6,4634.63
1575.05,4317.72
1576.5,3992.51
1577.96,3673.22
1579.41,3390.9
1580.86,3138.32
1582.31,2887.58
1583.76,2642.83
1585.21,2467.02
1586.66,2278.67
1588.11,2133.8
1589.56,1982.38
1591.01,1853.85
1592.46,1724.93
1593.91,1631.33
1595.36,1525.35
1596.81,1444.61
1598.26,1372.68
1599.71,1294.67
1601.16,1229.71
1602.61,1169.54
1604.06,1107.85
1605.51,1054.18
1606.96,1006.54
1608.41,955.442
1609.86,927.762
1611.31,885.703
1612.76,841.44
1614.21,822.319
1615.66,788.781
1617.11,756.277
1618.56,729.545
1620.01,709.148
1621.46,692.41
1622.92,668.283
1624.37,643.556
1625.82,620.95
1627.27,610.83
1628.72,600.641
1630.17,576.069
1631.62,562.908
1633.07,563.869
1634.52,546.218
1635.97,546.349
1637.42,537.059
1638.87,514.734
1640.32,509.031
1641.77,505.817
1643.22,498.031
1644.67,487.683
1646.12,478.402
1647.57,475.059
1649.02,466.945
1650.47,458.366
1651.92,454.102
1653.37,454.213
1654.82,449.9
1656.27,452.963
1657.72,440.727
1659.17,438.39
1660.62,425.412
1662.07,419.703
1663.52,412.154
1664.97,416.326
1666.42,404.673
1667.88,405.169
1669.33,394.928
1670.78,388.464
1672.23,396.781
1673.68,397.115
1675.13,393.602
1676.58,387.909
1678.03,387.641
1679.48,390.721
1680.93,383.754
1682.38,373.972
1683.83,379.75
1685.28,369.301
1686.73,363.413
1688.18,356.778
1689.63,359.925
1691.08,368.805
1692.53,366.925
1693.98,356.865
1695.43,358.461
1696.88,363.471
1698.33,361.497
1699.78,358.968
1701.23,357.419
1702.68,359.97
1704.13,353.993
1705.58,358.525
1707.03,353.092
1708.48,359.701
1709.93,341.831
1711.39,345.33
1712.84,358.669
1714.29,349.097
1715.74,343.994
1717.19,348.306
1718.64,353.604
1720.09,349.093
1721.54,352.425
1722.99,352.72
1724.44,345.329
1725.89,348.611
1727.34,350.344
1728.79,342.424
1730.24,346.039
1731.69,345.335
1733.14,343.742
1734.59,336.969
1736.04,350.784
1737.49,340.414
1738.94,331.47
1740.39,328.481
1741.84,325.038
1743.29,324.564
1744.74,330.884
1746.19,331.101
1747.64,332.609
1749.09,324.084
1750.54,329.547
1751.99,324.782
1753.44,313.273
1754.89,316.784
1756.35,320.723
1757.8,314.453
1759.25,316.64
1760.7,319.649
1762.15,308.384
1763.6,312.878
1765.05,311.199
1766.5,313.394
1767.95,306.929
1769.4,305.028
1770.85,302.583
1772.3,310.797
1773.75,298.718
1775.2,307.287
1776.65,297.831
1778.1,296.771
1779.55,299.741
1781,296.188
1782.45,299.83
1783.9,301.352
1785.35,300.517
1786.8,300.17
1788.25,304.718
1789.7,300.606
1791.15,295.847
1792.6,298.501
1794.05,291.35
1795.5,292.249
1796.95,295.798
1798.4,302.986
1799.85,304.716
1801.31,296.167
1802.76,288.247
1804.21,290.452
1805.66,296.132
1807.11,295.785
1808.56,285.448
1810.01,288.696
1811.46,281.738
1812.91,280.254
1814.36,291.271
1815.81,291.986
1817.26,291.527
1818.71,284.391
1820.16,283.309
1821.61,287.145
1823.06,286.487
1824.51,289.293
1825.96,291.628
1827.41,291.528
1828.86,292.858
1830.31,291.735
1831.76,295.652
1833.21,296.667
1834.66,289.142
1836.11,296.757
1837.56,290.853
1839.01,291.42
1840.46,296.461
1841.91,295.198
1843.36,304.817
1844.82,299.362
1846.27,295.865
1847.72,294.07
1849.17,302.509
1850.62,297.483
1852.07,307.258
1853.52,297.17
1854.97,298.953
1856.42,302.148
1857.87,304.825
1859.32,306.009
1860.77,303.244
1862.22,295.886
1863.67,297.528
1865.12,300.342
1866.57,303.19
1868.02,302.841
1869.47,296.648
1870.92,298.347
1872.37,302.491
1873.82,303.45
1875.27,306.168
1876.72,298.387
1878.17,293.482
1879.62,294.457
1881.07,297.382
1882.52,299.429
1883.97,293.802
1885.42,296.664
1886.87,288.701
1888.32,294.541
1889.78,299.588
1891.23,280.816
1892.68,284.683
1894.13,284.679
1895.58,287.033
1897.03,285.65
1898.48,288.513
1899.93,282.306
1901.38,278.981
1902.83,279.676
1904.28,280.942
1905.73,278.005
1907.18,283.736
1908.63,282.139
1910.08,287.507
1911.53,283.285
1912.98,275.755
1914.43,279.93
1915.88,281.006
1917.33,278.646
1918.78,278.972
1920.23,279.356
1921.68,278.786
1923.13,275.372
1924.58,276.755
1926.03,278.649
1927.48,276.814
1928.93,281.34
1930.38,275.95
1931.83,283.588
1933.29,272.26
1934.74,276.891
1936.19,276.483
1937.64,272.344
1939.09,274.671
1940.54,273.625
1941.99,281.121
1943.44,274.596
1944.89,277.059
1946.34,278.122
1947.79,279.419
1949.24,271.145
1950.69,280.882
1952.14,283.062
1953.59,287.655
1955.04,290.659
1956.49,279.896
1957.94,282.161
1959.39,280.155
1960.84,273.395
1962.29,285.626
1963.74,281.107
1965.19,286.197
1966.64,287.743
1968.09,279.747
1969.54,278.937
1970.99,277.932
1972.44,279.672
1973.89,283.181
1975.34,287.679
1976.79,293.325
1978.25,293.983
1979.7,290.478
1981.15,289.481
1982.6,292.059
1984.05,292.918
1985.5,287.172
1986.95,285.76
1988.4,290.187
1989.85,287.059
1991.3,289.947
1992.75,290.479
1994.2,284.605
1995.65,291.844
1997.1,282.202
1998.55,284.64
2000,282.697
2001.45,288.888
2002.9,290.125
2004.35,296.865
2005.8,292.079
2007.25,285.778
2008.7,288.13
2010.15,285.507
2011.6,281.14
2013.05,278.197
2014.5,279.357
2015.95,284.831
2017.4,281.714
2018.85,279.167
2020.3,286.606
2021.75,290.871
2023.21,291.8
2024.66,288.047
2026.11,274.218
2027.56,294.392
2029.01,277.31
2030.46,281.127
2031.91,273.909
2033.36,284.349
2034.81,270.99
2036.26,292.077
2037.71,276.461
2039.16,281.222
2040.61,279.656
2042.06,270.282
2043.51,280.706
2044.96,280.45
2046.41,268.807
2047.86,268.96
2049.31,281.994
2050.76,267.091
2052.21,268.702
2053.66,264.245
2055.11,268.417
2056.56,274.133
2058.01,274.068
2059.46,272.301
2060.91,265.291
2062.36,263.92
2063.81,265.821
2065.26,265.98
2066.72,269.589
2068.17,268.41
2069.62,265.076
2071.07,269.934
2072.52,263.534
2073.97,264.083
2075.42,265.771
2076.87,266.404
2078.32,272.735
2079.77,270.296
2081.22,266.332
2082.67,261.139
2084.12,262.993
2085.57,263.886
2087.02,259.735
2088.47,263.601
2089.92,264.037
2091.37,264.342
2092.82,262.688
2094.27,265.356
2095.72,266.793
2097.17,264.25
2098.62,265.563
2100.07,260.122
2101.52,266.67
2102.97,267.582
2104.42,263.969
2105.87,267.167
2107.32,268.835
2108.77,269.583
2110.22,271.938
2111.68,273.664
2113.13,272.802
2114.58,268.066
2116.03,265.776
2117.48,265.869
2118.93,268.938
2120.38,272.355
2121.83,270.624
2123.28,272.203
2124.73,274.994
2126.18,275.642
2127.63,274.13
2129.08,273.048
2130.53,275.867
2131.98,276.995
2133.43,269.259
2134.88,270.607
2136.33,276.853
2137.78,273.041
2139.23,272.006
2140.68,273.393
2142.13,274.503
2143.58,281.764
2145.03,278.93
2146.48,277.427
2147.93,277.456
2149.38,277.229
2150.83,282.374
2152.28,280.512
2153.73,280.931
2155.18,283.694
2156.64,283.625
2158.09,280.471
2159.54,286.944
2160.99,286.149
2162.44,284.52
2163.89,290.877
2165.34,288.424
2166.79,286.983
2168.24,285.585
2169.69,286.537
2171.14,288.848
2172.59,285.787
2174.04,288.116
2175.49,295.815
2176.94,292.232
2178.39,294.803
2179.84,296.257
2181.29,293.402
2182.74,290.293
2184.19,293.539
2185.64,289.704
2187.09,289.742
2188.54,289.118
2189.99,290.591
2191.44,290.653
2192.89,291.588
2194.34,294.92
2195.79,300.306
2197.24,293.976
2198.69,296.703
2200.15,294.507
2201.6,295.229
2203.05,289.864
2204.5,291.049
2205.95,296.377
2207.4,298.456
2208.85,295.167
2210.3,296.991
2211.75,302.284
2213.2,309.14
2214.65,297.463
2216.1,304.825
2217.55,303.783
2219,297.211
2220.45,304.148
2221.9,303.115
2223.35,305.01
2224.8,309.351
2226.25,315.124
2227.7,303.627
2229.15,308.741
2230.6,314.026
2232.05,305.281
2233.5,302.044
2234.95,298.067
2236.4,312.23
2237.85,316.277
2239.3,307.643
2240.75,310.305
2242.2,312.879
2243.65,304.218
2245.11,313.373
2246.56,318.239
2248.01,314.734
2249.46,310.548
2250.91,318.447
2252.36,318.534
2253.81,327.742
2255.26,319.179
2256.71,313.5
2258.16,318.936
2259.61,326.626
2261.06,321.232
2262.51,312.893
2263.96,319.689
2265.41,327.976
2266.86,322.93
2268.31,328.986
2269.76,325.745
2271.21,321.196
2272.66,329.571
2274.11,328.061
2275.56,322.814
2277.01,326.157
2278.46,326.945
2279.91,326.945
2281.36,325.286
2282.81,332.853
2284.26,335.617
2285.71,332.123
2287.16,327.629
2288.61,335.052
2290.07,338.853
2291.52,344.568
2292.97,341.889
2294.42,343.326
2295.87,342.949
2297.32,337.124
2298.77,338.666
2300.22,340.104
2301.67,332.824
2303.12,346.845
2304.57,348.279
2306.02,347.663
2307.47,338.84
2308.92,342.849
2310.37,354.926
2311.82,352.598
2313.27,348.262
2314.72,342.541
2316.17,349.106
2317.62,349.745
2319.07,369.642
2320.52,361.95
2321.97,357.911
2323.42,369.777
2324.87,361.966
2326.32,365.798
2327.77,369.512
2329.22,366.954
2330.67,366.737
2332.12,375.028
2333.57,375.432
2335.03,381.15
2336.48,366.326
2337.93,373.306
2339.38,380.424
2340.83,379.882
2342.28,385.871
2343.73,387.005
2345.18,384.896
2346.63,392.26
2348.08,386.344
2349.53,386.579
2350.98,400.887
2352.43,401.646
2353.88,407.41
2355.33,406.221
2356.78,408.045
2358.23,417.218
2359.68,416.506
2361.13,411.81
2362.58,413.299
2364.03,426.936
2365.48,428.436
2366.93,449.168
2368.38,426.877
2369.83,437.112
2371.28,435.514
2372.73,451.466
2374.18,454.117
2375.63,459.774
2377.08,467.481
2378.54,469.741
2379.99,475.726
2381.44,483.224
2382.89,486.982
2384.34,490.041
2385.79,490.476
2387.24,500.148
2388.69,504.454
2390.14,514.531
2391.59,527.194
2393.04,525.919
2394.49,518.239
2395.94,524.71
2397.39,543.396
2398.84,562.25
2400.29,551.893
2401.74,564.826
2403.19,565.754
2404.64,582.637
2406.09,590.23
2407.54,578.954
2408.99,583.739
2410.44,589.264
2411.89,583.077
2413.34,600.216
2414.79,609.443
2416.24,600.549
2417.69,594.759
2419.14,601.917
2420.59,600.22
2422.04,584.116
2423.5,595.266
2424.95,601.274
2426.4,591.608
2427.85,585.179
2429.3,588.654
2430.75,594.184
2432.2,593.676
2433.65,586.513
2435.1,573.676
2436.55,586.441
2438,576.596
2439.45,576.639
2440.9,581.772
2442.35,573.729
2443.8,574.88
2445.25,565.991
2446.7,575.029
2448.15,567.407
2449.6,562.888
2451.05,555.165
2452.5,558.703
2453.95,547.581
2455.4,560.675
2456.85,549.181
2458.3,549.471
2459.75,554.701
2461.2,557.064
2462.65,551.303
2464.1,551.163
2465.55,546.813
2467.01,546.189
2468.46,549.109
2469.91,549.196
2471.36,546.368
2472.81,548.828
2474.26,551.544
2475.71,545.764
2477.16,555.542
2478.61,558.369
2480.06,565.629
2481.51,562.874
2482.96,563.357
2484.41,552.018
2485.86,565.571
2487.31,572.12
2488.76,569.665
2490.21,566.938
2491.66,565.3
2493.11,564.551
2494.56,570.298
2496.01,560.752
2497.46,559.698
2498.91,565.571
2500.36,567.069
2501.81,563.647
2503.26,579.911
2504.71,581.738
2506.16,588.249
2507.61,600.008
2509.06,578.21
2510.51,606.359
2511.97,595.933
2513.42,602.217
2514.87,610.709
2516.32,618.785
2517.77,618.07
2519.22,622.188
2520.67,633.507
2522.12,638.92
2523.57,648.688
2525.02,647.094
2526.47,654.261
2527.92,657.64
2529.37,647.224
2530.82,663.159
2532.27,676.978
2533.72,673.169
2535.17,678.234
2536.62,689.67
2538.07,707.539
2539.52,697.592
2540.97,718.099
2542.42,720.482
2543.87,752.565
2545.32,758.046
2546.77,754.813
2548.22,771.875
2549.67,781.884
2551.12,789.458
2552.57,790.797
2554.02,808.772
2555.48,825.872
2556.93,847.104
2558.38,857.366
2559.83,866.897
2561.28,880.86
2562.73,913.286
2564.18,923.195
2565.63,940.551
2567.08,963.654
2568.53,976.128
2569.98,1003.92
2571.43,1040.99
2572.88,1060.69
2574.33,1059.99
2575.78,1093.29
2577.23,1122.11
2578.68,1144.99
2580.13,1177.4
2581.58,1203.77
2583.03,1225.43
2584.48,1260.85
2585.93,1291.35
2587.38,1317.21
2588.83,1369.31
2590.28,1421.08
2591.73,1474.61
2593.18,1492.64
2594.63,1532.11
2596.08,1587.07
2597.53,1629.37
2598.98,1701.03
2600.44,1749.42
2601.89,1813.42
2603.34,1878.36
2604.79,1933.04
2606.24,2006.48
2607.69,2056.95
2609.14,2141.65
2610.59,2184.97
2612.04,2275.34
2613.49,2335.84
2614.94,2429.06
2616.39,2502.88
2617.84,2559.16
2619.29,2639.04
2620.74,2714.16
2622.19,2790.06
2623.64,2886.47
2625.09,2933.51
2626.54,3007.71
2627.99,3082.8
2629.44,3171.76
2630.89,3254.48
2632.34,3331.25
2633.79,3388.19
2635.24,3488.93
2636.69,3511.33
2638.14,3566.15
2639.59,3638.47
2641.04,3660.16
2642.49,3706.35
2643.94,3733.14
2645.4,3743.93
2646.85,3759.73
2648.3,3767.85
2649.75,3742.06
2651.2,3747.34
2652.65,3700.93
2654.1,3718.92
2655.55,3665.65
2657,3633.43
2658.45,3571.53
2659.9,3509.12
2661.35,3444.33
2662.8,3387.76
2664.25,3309.05
2665.7,3261.76
2667.15,3204.2
2668.6,3104.3
2670.05,3040.62
2671.5,2969.85
2672.95,2844.09
2674.4,2793.89
2675.85,2707.88
2677.3,2609.66
2678.75,2538.25
2680.2,2482.59
2681.65,2366.95
2683.1,2301.51
2684.55,2224.03
2686,2166
2687.45,2086.37
2688.91,2001.27
2690.36,1930.02
2691.81,1871.59
2693.26,1809.98
2694.71,1717.92
2696.16,1665.36
2697.61,1643.48
2699.06,1559.8
2700.51,1519.98
2701.96,1494.23
2703.41,1439.33
2704.86,1373.09
2706.31,1335.33
2707.76,1279.52
2709.21,1261.5
2710.66,1221.34
2712.11,1176.78
2713.56,1147.03
2715.01,1127.54
2716.46,1091.66
2717.91,1065.77
2719.36,1032.33
2720.81,1016.46
2722.26,996.607
2723.71,962.987
2725.16,932.861
2726.61,914.876
2728.06,902.552
2729.51,889.536
2730.96,866.573
2732.41,836.761
2733.87,837.172
2735.32,808.655
2736.77,800.236
2738.22,785.62
2739.67,775.601
2741.12,765.045
2742.57,740.656
2744.02,733.967
2745.47,733.029
2746.92,710.661
2748.37,711.018
2749.82,692.473
2751.27,694.397
2752.72,675.267
2754.17,677.601
2755.62,660.569
2757.07,643.522
2758.52,639.022
2759.97,636.33
2761.42,620.689
2762.87,616.112
2764.32,618.751
2765.77,608.771
2767.22,586.944
2768.67,609.399
2770.12,594.353
2771.57,590.346
2773.02,581.965
2774.47,583.116
2775.92,580.013
2777.38,570.414
2778.83,569.892
2780.28,562.207
2781.73,557.577
2783.18,549.331
2784.63,550.066
2786.08,545.232
2787.53,527.881
2788.98,536.673
2790.43,542.434
2791.88,534.618
2793.33,527.301
2794.78,519.06
2796.23,517.634
2797.68,522.811
2799.13,515.798
2800.58,516.363
2802.03,509.684
2803.48,505.822
2804.93,510.931
2806.38,502.743
2807.83,492.801
2809.28,496.561
2810.73,490.761
2812.18,495.15
2813.63,495.488
2815.08,499.509
2816.53,486.266
2817.98,490.143
2819.43,495.484
2820.88,486.498
2822.33,479.056
2823.79,483.312
2825.24,477.439
2826.69,473.168
2828.14,469.995
2829.59,471.011
2831.04,477.965
2832.49,481.443
2833.94,459.659
2835.39,458.438
2836.84,459.853
2838.29,455.828
2839.74,455.831
2841.19,458.653
2842.64,466.733
2844.09,465.017
2845.54,459.741
2846.99,457.085
2848.44,455.825
2849.89,449.017
2851.34,456.437
2852.79,451.486
2854.24,446.471
2855.69,452.839
2857.14,463.865
2858.59,451.696
2860.04,445.596
2861.49,451.976
2862.94,443.029
2864.39,444.126
2865.84,453.836
2867.3,451.533
2868.75,450.643
2870.2,450.542
2871.65,442.456
2873.1,445.538
2874.55,454.736
2876,450.212
2877.45,451.602
2878.9,452.652
2880.35,450.028
2881.8,439.937
2883.25,443.644
2884.7,444.412
2886.15,444.329
2887.6,443.11
2889.05,438.966
2890.5,446.177
2891.95,450.386
2893.4,446.265
2894.85,448.963
2896.3,448.756
2897.75,442.373
2899.2,441.386
2900.65,440.746
2902.1,437.94
2903.55,436.087
2905,436.582
2906.45,437.892
2907.9,439.126
2909.35,435.333
2910.8,427.558
2912.26,427.213
2913.71,431.513
2915.16,416.657
2916.61,433.962
2918.06,427.761
2919.51,418.107
2920.96,427.48
2922.41,425.496
2923.86,424.431
2925.31,420.698
2926.76,414.16
2928.21,411.219
2929.66,410.206
2931.11,407.876
2932.56,403.379
2934.01,412.464
2935.46,404.017
2936.91,404.014
2938.36,402.354
2939.81,397.634
2941.26,393.263
2942.71,396.971
2944.16,398.76
2945.61,397.362
2947.06,396.727
2948.51,398.172
2949.96,389.437
2951.41,388.322
2952.86,394.642
2954.31,387.9
2955.77,385.308
2957.22,390.262
2958.67,385.82
2960.12,379.536
2961.57,397.317
2963.02,384.884
2964.47,383.108
2965.92,381.621
2967.37,383.92
2968.82,382.872
2970.27,386.37
2971.72,376.934
2973.17,378.004
2974.62,377.568
2976.07,373.287
2977.52,373.643
2978.97,376.756
2980.42,373.01
2981.87,379.039
2983.32,382.284
2984.77,377.904
2986.22,371.692
2987.67,375.915
2989.12,379.009
2990.57,380.948
2992.02,377.138
2993.47,370.937
2994.92,374.263
2996.37,380.714
2997.82,379.006
2999.27,382.59
3000.73,369.197
3002.18,377.496
3003.63,370.272
3005.08,375.144
3006.53,373.273
3007.98,364.262
3009.43,362.458
3010.88,367.361
3012.33,373.723
3013.78,381.678
3015.23,364.911
3016.68,371.453
3018.13,366.043
3019.58,371.201
3021.03,372.003
3022.48,365.559
3023.93,373.386
3025.38,380.571
3026.83,369.457
3028.28,374.436
3029.73,384.189
3031.18,385.182
3032.63,378.72
3034.08,385.557
3035.53,387.592
3036.98,364.789
3038.43,381.048
3039.88,383.112
3041.33,380.222
3042.78,379.511
3044.23,374.059
3045.69,373.967
3047.14,371.603
3048.59,379.543
3050.04,384.711
3051.49,373.932
3052.94,372.871
3054.39,380.578
3055.84,387.042
3057.29,384.99
3058.74,378.987
3060.19,388.446
3061.64,393.157
3063.09,396.103
3064.54,398.428
3065.99,396.65
3067.44,386.63
3068.89,394.989
3070.34,402.395
3071.79,414.058
3073.24,396.431
3074.69,405.476
3076.14,404.769
3077.59,407.457
3079.04,419.593
3080.49,418.955
3081.94,427.69
3083.39,424.295
3084.84,434.675
3086.29,428.242
3087.74,432.355
3089.2,434.51
3090.65,441.824
3092.1,444.488
3093.55,446.443
3095,444.905
3096.45,447.938
3097.9,454.988
3099.35,465.653
3100.8,470.118
3102.25,465.423
3103.7,479.678
3105.15,482.599
3106.6,477.303
3108.05,489.364
3109.5,479.885
3110.95,489.229
3112.4,491.767
3113.85,506.329
3115.3,504.077
3116.75,509.775
3118.2,505.947
3119.65,514.082
3121.1,517.745
3122.55,518.954
3124,521.704
3125.45,519.611
3126.9,524.991
3128.35,533.188
3129.8,525.87
3131.25,526.784
3132.7,534.918
3134.16,530.916
3135.61,530.742
3137.06,540.143
3138.51,526.755
3139.96,535.319
3141.41,538.538
3142.86,532.298
3144.31,542.265
3145.76,542.434
3147.21,544.198
3148.66,536.286
3150.11,535.605
3151.56,527.552
3153.01,532.772
3154.46,542.279
3155.91,545.706
3157.36,551.39
3158.81,557.552
3160.26,540.955
3161.71,551.264
3163.16,557.059
3164.61,555.667
3166.06,550.095
3167.51,566.388
3168.96,562.018
3170.41,561.574
3171.86,570.138
3173.31,574.72
3174.76,577.828
3176.21,567.968
3177.67,577.219
3179.12,573.444
3180.57,581.68
3182.02,595.324
3183.47,587.533
3184.92,575.218
3186.37,583.947
3187.82,581.371
3189.27,571.849
3190.72,584.72
3192.17,573.995
3193.62,570.216
3195.07,567.369
3196.52,566.325
3197.97,552.883
3199.42,530.404
3200.87,541.366
3202.32,536.938
3203.77,528.698
3205.22,528.055
3206.67,520.172
3208.12,514.299
3209.57,503.463
3211.02,491.1
3212.47,502.173
3213.92,485.15
3215.37,471.6
3216.82,472.27
3218.27,462.686
3219.72,453.729
3221.17,454.748
3222.63,451.302
3224.08,450.307
3225.53,442.537
3226.98,439.211
3228.43,418.247
3229.88,431.49
3231.33,420.864
3232.78,409.916
3234.23,401.193
3235.68,404.827
3237.13,402.84
3238.58,401.465
3240.03,389.441
3241.48,384.086
3242.93,386.948
3244.38,391.844
3245.83,389.433
3247.28,390.407
3248.73,380.913
3250.18,384.585
3251.63,382.994
3253.08,382.568
3254.53,377.469
3255.98,363.664
3257.43,371.501
3258.88,371.323
3260.33,367.6
3261.78,367.262
3263.23,365.612
3264.68,374.13
3266.13,368.848
3267.59,360.266
3269.04,365.354
3270.49,371.836
3271.94,368.884
3273.39,358.792
3274.84,365.381
3276.29,361.793
3277.74,359.278
3279.19,368.374
3280.64,358.066
3282.09,362.912
3283.54,359.051
3284.99,363.98
3286.44,361.554
3287.89,358.223
3289.34,366.503
3290.79,366.554
3292.24,354.068
3293.69,369.272
3295.14,368.75
3296.59,362.574
3298.04,359.548
3299.49,358.645
3300.94,355.64
3302.39,360.847
3303.84,352.551
3305.29,357.899
3306.74,367.057
3308.19,360.216
3309.64,353.703
3311.09,356.817
3312.55,363.822
3314,361.443
3315.45,349.337
3316.9,355.057
3318.35,363.948
3319.8,350.845
3321.25,362.888
3322.7,355.861
3324.15,358.303
3325.6,362.849
3327.05,363.99
3328.5,354.425
3329.95,362.153
3331.4,366.225
3332.85,354.486
3334.3,351.398
3335.75,355.309
3337.2,357.938
3338.65,356.437
3340.1,357.645
3341.55,361.332
3343,360.845
3344.45,355.892
3345.9,359.933
3347.35,354.296
3348.8,348.631
3350.25,360.95
3351.7,356.964
3353.15,355.771
3354.6,360.756
3356.06,355.458
3357.51,358.608
3358.96,358.514
3360.41,355.633
3361.86,356.577
3363.31,353.823
3364.76,354.276
3366.21,357.568
3367.66,359.413
3369.11,359.836
3370.56,367.796
3372.01,364.974
3373.46,376.724
3374.91,361.102
3376.36,360.002
3377.81,357.021
3379.26,361.039
3380.71,352.635
3382.16,362.054
3383.61,359.056
3385.06,367.757
3386.51,361.755
3387.96,356.088
3389.41,347.761
3390.86,358.552
3392.31,361.475
3393.76,355.719
3395.21,361.021
3396.66,360.885
3398.11,370.101
3399.56,365.693
3401.02,366.353
3402.47,363.554
3403.92,356.44
3405.37,350.05
3406.82,365.162
3408.27,353.85
3409.72,356.495
3411.17,361.452
3412.62,362.876
3414.07,361.64
3415.52,364.073
3416.97,356.066
3418.42,364.667
3419.87,356.784
3421.32,358.898
3422.77,362.154
3424.22,367.026
3425.67,369.632
3427.12,371.478
3428.57,369.14
3430.02,361.482
3431.47,366.087
3432.92,369.621
3434.37,357.844
3435.82,364.232
3437.27,365.385
3438.72,364.378
3440.17,366.128
3441.62,359.526
3443.07,360.553
3444.52,364.637
3445.98,347.425
3447.43,367.869
3448.88,366.965
3450.33,364.185
3451.78,362.911
3453.23,366.224
3454.68,366.369
3456.13,364.697
3457.58,364.84
3459.03,361.315
3460.48,358.817
3461.93,373.647
3463.38,367.251
3464.83,370.836
3466.28,374.771
3467.73,375.048
3469.18,370.081
3470.63,364.419
3472.08,369.826
3473.53,376.091
3474.98,372.512
3476.43,358.431
3477.88,375.557
3479.33,373.519
3480.78,373.721
3482.23,368.597
3483.68,378.415
3485.13,355.147
3486.58,370.396
3488.03,377.255
3489.49,373.949
3490.94,363.362
3492.39,364.584
3493.84,369.401
3495.29,376.559
3496.74,376.417
3498.19,366.294
3499.64,372.674
3501.09,372.012
3502.54,377.752
3503.99,370.255
3505.44,372.103
3506.89,376.03
3508.34,379.016
3509.79,372.603
3511.24,374.911
3512.69,374.824
3514.14,372.477
3515.59,388.477
3517.04,377.339
3518.49,379.742
3519.94,378.994
3521.39,374.856
3522.84,380.746
3524.29,379.39
3525.74,378.118
3527.19,384.426
3528.64,371.941
3530.09,377.878
3531.54,381.205
3532.99,386.602
3534.45,383.995
3535.9,367.87
3537.35,380.384
3538.8,379.394
3540.25,377.264
3541.7,377.735
3543.15,375.026
3544.6,385.532
3546.05,375.996
3547.5,376.264
3548.95,380.352
3550.4,384.844
3551.85,381.683
3553.3,377.989
3554.75,372.745
3556.2,371.708
3557.65,381.598
3559.1,373.886
3560.55,378.758
3562,379.193
3563.45,379.638
3564.9,374.472
3566.35,381.374
3567.8,388.755
3569.25,383.702
3570.7,387.022
3572.15,384.531
3573.6,378.852
3575.05,376.772
3576.5,379.37
3577.96,382.379
3579.41,389.701
3580.86,380.323
3582.31,386.152
3583.76,387.48
3585.21,382.705
3586.66,377.916
3588.11,384.169
3589.56,385.79
3591.01,382.646
3592.46,397.261
3593.91,372.156
3595.36,373.469
3596.81,379.855
3598.26,387.77
3599.71,385.574
3601.16,383.79
3602.61,384.074
3604.06,388.035
3605.51,385.214
3606.96,392.43
3608.41,386.563
3609.86,395.878
3611.31,391.475
3612.76,386.783
3614.21,389.923
3615.66,390.436
3617.11,395.369
3618.56,384.221
3620.01,392.913
3621.46,401.906
3622.92,400.6
3624.37,392.954
3625.82,384.739
3627.27,392.316
3628.72,394.121
3630.17,389.276
3631.62,391.61
3633.07,386.345
3634.52,397.929
3635.97,385.686
3637.42,394.879
3638.87,396.184
3640.32,408.606
3641.77,393.907
3643.22,387.337
3644.67,401.777
3646.12,391.571
3647.57,400.805
3649.02,398.463
3650.47,395.412
3651.92,404.81
3653.37,400.069
3654.82,396.732
3656.27,395.911
3657.72,394.879
3659.17,394.494
3660.62,400.966
3662.07,400.682
3663.52,400.86
3664.97,395.632
3666.43,399.741
3667.88,411.799
3669.33,403.338
3670.78,402.636
3672.23,402.357
3673.68,406.139
3675.13,402.744
3676.58,400.045
3678.03,396.925
3679.48,397.939
3680.93,406.858
3682.38,403.925
3683.83,404.274
3685.28,396.725
3686.73,411.354
3688.18,404.471
3689.63,406.616
3691.08,401.63
3692.53,403.427
3693.98,405.387
3695.43,394.691
3696.88,408.803
3698.33,421.199
3699.78,409.411
3701.23,407.292
3702.68,406.221
3704.13,401.281
3705.58,400.794
3707.03,406.807
3708.48,401.801
3709.93,405.875
3711.39,408.569
3712.84,406.799
3714.29,417.085
3715.74,412.167
3717.19,410.98
3718.64,406.196
3720.09,410.297
3721.54,410.221
3722.99,412.948
3724.44,419.018
3725.89,415.568
3727.34,424.504
3728.79,422.23
3730.24,413.102
3731.69,408.694
3733.14,410.178
3734.59,408.117
3736.04,414.382
3737.49,408.554
3738.94,410.724
3740.39,411.138
3741.84,423.406
3743.29,424.52
3744.74,413.563
3746.19,417.191
3747.64,419.739
3749.09,416.691
3750.54,423.211
3751.99,421.728
3753.44,414.329
3754.89,419.485
3756.35,417.067
3757.8,416.223
3759.25,418.142
3760.7,414.454
3762.15,433.553
3763.6,424.841
3765.05,426.488
3766.5,425.694
3767.95,416.301
3769.4,424.004
3770.85,415.019
3772.3,422.553
3773.75,422.499
3775.2,425.398
3776.65,428.229
3778.1,430.426
3779.55,420.159
3781,420.31
3782.45,435.61
3783.9,428.413
3785.35,428.039
3786.8,430.13
3788.25,429.552
3789.7,443.067
3791.15,435.215
3792.6,424.763
3794.05,424.136
3795.5,433.724
3796.95,435.964
3798.4,422.005
3799.85,433.322
3801.31,435.12
3802.76,429.173
3804.21,429.197
3805.66,433.891
3807.11,433.871
3808.56,427.205
3810.01,425.301
3811.46,437.584
3812.91,428.544
3814.36,431.107
3815.81,444.936
3817.26,436.531
3818.71,439.611
3820.16,444.239
3821.61,439.487
3823.06,439.261
3824.51,436.913
3825.96,436.56
3827.41,435.862
3828.86,443.262
3830.31,442.058
3831.76,442.854
3833.21,450.463
3834.66,434.577
3836.11,433.556
3837.56,431.139
3839.01,438.725
3840.46,439.88
3841.91,443.431
3843.36,447.61
3844.82,442.734
3846.27,450.151
3847.72,448.971
3849.17,448.973
3850.62,450.289
3852.07,446.835
3853.52,445.091
3854.97,449.343
3856.42,438.507
3857.87,458.91
3859.32,452.563
3860.77,458.206
3862.22,448.809
3863.67,450.006
3865.12,441.987
3866.57,456.454
3868.02,453.405
3869.47,453.122
3870.92,460.596
3872.37,445.801
3873.82,459.864
3875.27,457.428
3876.72,461.812
3878.17,460.69
3879.62,451.123
3881.07,454.177
3882.52,465.38
3883.97,458.11
3885.42,464.051
3886.87,460.795
3888.32,460.239
3889.78,464.9
3891.23,465.078
3892.68,455.775
3894.13,455.775
3895.58,456.241
3897.03,467.714
3898.48,469.727
3899.93,471.991
3901.38,466.112
3902.83,472.767
3904.28,476.737
3905.73,468.196
3907.18,474.349
3908.63,471.033
3910.08,462.738
3911.53,468.32
3912.98,481.017
3914.43,472.557
3915.88,478.918
3917.33,476.351
3918.78,479.026
3920.23,471.638
3921.68,484.908
3923.13,473.086
3924.58,476.352
3926.03,486.034
3927.48,487.31
3928.93,474.421
3930.38,482.16
3931.83,497.262
3933.28,480.075
3934.74,491.926
3936.19,497.17
3937.64,492.989
3939.09,486.89
3940.54,478.104
3941.99,490.278
3943.44,495.266
3944.89,484.807
3946.34,485.319
3947.79,489.219
3949.24,483.035
3950.69,504.671
3952.14,495.711
3953.59,485.575
3955.04,499.8
3956.49,506.32
3957.94,498.731
3959.39,503.202
3960.84,518.103
3962.29,494.12
3963.74,510.433
3965.19,491.288
3966.64,513.613
3968.09,514.778
3969.54,508.205
3970.99,505.783
3972.44,503.811
3973.89,507.557
3975.34,515.256
3976.79,492.859
3978.25,515.662
3979.7,520.641
3981.15,509.635
3982.6,521.134
3984.05,523.478
3985.5,505.459
3986.95,522.463
3988.4,535.484
3989.85,519.437
3991.3,519.398
3992.75,521.433
3994.2,514.328
3995.65,523.342
3997.1,513.898
3998.55,528.185
4000,519.355
