0.2,46.9821
1.45033,46.9821
2.90065,46.9821
4.35098,46.9821
5.80131,46.9821
7.25163,38.7601
8.70196,87.4582
10.1523,60.2289
11.6026,47.1483
13.0529,40.914
14.5033,36.0877
15.9536,31.5843
17.4039,28.7425
18.8542,26.6657
20.3046,27.5618
21.7549,27.4866
23.2052,24.1938
24.6555,21.0338
26.1059,21.5326
27.5562,20.8952
29.0065,18.8062
30.4569,16.281
31.9072,13.9091
33.3575,14.5057
34.8078,15.2621
36.2582,14.9785
37.7085,14.1875
39.1588,14.5642
40.6091,12.3751
42.0595,9.91329
43.5098,9.7784
44.9601,12.787
46.4104,14.6226
47.8608,18.5542
49.3111,24.3285
50.7614,29.8893
52.2117,47.9546
53.6621,88.0135
55.1124,149.474
56.5627,234.037
58.0131,351.371
59.4634,458.51
60.9137,559.082
62.364,647.795
63.8144,720.705
65.2647,788.147
66.715,825.051
68.1653,847.209
69.6157,863.733
71.066,882.694
72.5163,883.8
73.9666,883.865
75.417,881.411
76.8673,876.511
78.3176,871.748
79.7679,891.21
81.2183,916.524
82.6686,944.535
84.1189,972.109
85.5693,988.011
87.0196,998.666
88.4699,992.539
89.9202,980.407
91.3706,979.003
92.8209,942.557
94.2712,925.097
95.7215,908.315
97.1719,883.84
98.6222,849.921
100.073,833.648
101.523,825.519
102.973,810.869
104.423,782.485
105.874,747.901
107.324,751.297
108.774,739.631
110.225,721.548
111.675,711.407
113.125,708.217
114.576,700.038
116.026,688.074
117.476,675.441
118.927,664.855
120.377,635.45
121.827,628.593
123.278,630.222
124.728,626.192
126.178,599.838
127.629,581.284
129.079,569.08
130.529,558.113
131.98,548.031
133.43,545.794
134.88,537.954
136.331,534.398
137.781,529.168
139.231,521.203
140.682,525.842
142.132,505.978
143.582,489.454
145.033,482.817
146.483,485.123
147.933,474.876
149.384,465.454
150.834,447.538
152.284,431.804
153.735,432.607
155.185,444.464
156.635,418.842
158.086,418.242
159.536,426.106
160.986,395.418
162.437,397.343
163.887,399.647
165.337,405.963
166.788,408.429
168.238,391.57
169.688,396.872
171.139,395.968
172.589,391.312
174.039,386.57
175.489,387.052
176.94,376.746
178.39,371.122
179.84,374.064
181.291,378.958
182.741,364.174
184.191,352.165
185.642,347.231
187.092,341.191
188.542,334.019
189.993,341.265
191.443,342.718
192.893,341.393
194.344,339.402
195.794,338.668
197.244,341.083
198.695,344.549
200.145,338.694
201.595,333.801
203.046,335.017
204.496,330.507
205.946,344.407
207.397,344.667
208.847,341.047
210.297,340.353
211.748,328.908
213.198,330.292
214.648,326.552
216.099,320.415
217.549,315.093
218.999,308.156
220.45,302.243
221.9,294.506
223.35,294.385
224.801,306.159
226.251,316.17
227.701,312.601
229.152,310.763
230.602,308.147
232.052,301.514
233.503,290.838
234.953,307.845
236.403,304.965
237.854,299.595
239.304,302.605
240.754,291.759
242.204,288.138
243.655,293.47
245.105,289.413
246.555,276.483
248.006,298.815
249.456,291.674
250.906,291.922
252.357,291.516
253.807,286.193
255.257,283.436
256.708,292.69
258.158,292.766
259.608,292.406
261.059,294.703
262.509,293.242
263.959,277.423
265.41,276.362
266.86,285.498
268.31,294.114
269.761,286.575
271.211,288.2
272.661,279.734
274.112,277.745
275.562,284.863
277.012,292.272
278.463,278.455
279.913,279.684
281.363,275.582
282.814,268.049
284.264,268.634
285.714,266.357
287.165,264.757
288.615,265.414
290.065,264.146
291.516,257.12
292.966,253.701
294.416,261.354
295.867,260.336
297.317,256.345
298.767,255.311
300.218,245.057
301.668,252.677
303.118,254.913
304.569,257.843
306.019,261.097
307.469,244.792
308.919,251.403
310.37,249.329
311.82,246.719
313.27,243.909
314.721,230.784
316.171,224.745
317.621,220.607
319.072,227.956
320.522,234.618
321.972,219.988
323.423,226.195
324.873,228.455
326.323,227.971
327.774,225.523
329.224,223.797
330.674,234.912
332.125,230.566
333.575,226.935
335.025,227.072
336.476,229.201
337.926,225.765
339.376,227.651
340.827,225.872
342.277,221.153
343.727,221.76
345.178,241.014
346.628,219.071
348.078,214.906
349.529,216.407
350.979,216.924
352.429,215.033
353.88,224.538
355.33,217.023
356.78,216.113
358.231,220.01
359.681,221.032
361.131,212.012
362.582,214.271
364.032,218.392
365.482,221.722
366.933,220.711
368.383,211.127
369.833,212.934
371.284,204.17
372.734,205.684
374.184,211.866
375.635,208.415
377.085,211.701
378.535,214.119
379.986,215.885
381.436,216.876
382.886,217.205
384.336,217.533
385.787,214.83
387.237,215.336
388.687,213.156
390.138,208.543
391.588,206.963
393.038,208.773
394.489,210.309
395.939,211.086
397.389,214.412
398.84,219.312
400.29,207.783
401.74,207.976
403.191,207.323
404.641,215.399
406.091,223.473
407.542,204.926
408.992,212.51
410.442,211.76
411.893,208.144
413.343,208.115
414.793,214.628
416.244,216.773
417.694,206.888
419.144,204.891
420.595,200.623
422.045,197.218
423.495,215.095
424.946,220.215
426.396,205.058
427.846,197.449
429.297,200.356
430.747,206.704
432.197,212.495
433.648,201.99
435.098,197.402
436.548,204.481
437.999,212.988
439.449,201.648
440.899,210.747
442.35,204.049
443.8,204.237
445.25,205.145
446.701,200.066
448.151,208.685
449.601,205.745
451.051,200.186
452.502,201.555
453.952,207.954
455.402,209.402
456.853,208.572
458.303,197.964
459.753,203.443
461.204,209.66
462.654,204.663
464.104,200.204
465.555,208.001
467.005,205.238
468.455,203.38
469.906,201.905
471.356,197.68
472.806,204.328
474.257,201.914
475.707,202.293
477.157,202.146
478.608,205.398
480.058,220.495
481.508,207.367
482.959,207.564
484.409,202.291
485.859,201.369
487.31,208.736
488.76,203.424
490.21,207.416
491.661,198.412
493.111,198.98
494.561,206.224
496.012,207.372
497.462,202.877
498.912,201.512
500.363,194.018
501.813,194.395
503.263,202.891
504.714,207.222
506.164,200.724
507.614,194.07
509.065,191.915
510.515,193.318
511.965,196.235
513.416,198.597
514.866,194.925
516.316,194.056
517.766,202.142
519.217,203.124
520.667,191.261
522.117,192.949
523.568,198.131
525.018,201.313
526.468,202.408
527.919,200.172
529.369,194.466
530.819,189.449
532.27,192.853
533.72,192.84
535.17,196.776
536.621,203.524
538.071,204.971
539.521,189.085
540.972,197.649
542.422,203.576
543.872,202.726
545.323,198.384
546.773,197.011
548.223,199.19
549.674,197.852
551.124,200.806
552.574,203.807
554.025,205.233
555.475,206.373
556.925,199.327
558.376,202.62
559.826,201.127
561.276,197.832
562.727,197.157
564.177,200.514
565.627,202.025
567.078,199.842
568.528,192.371
569.978,196.883
571.429,206.398
572.879,189.529
574.329,192.722
575.78,193.272
577.23,193.44
578.68,195.749
580.131,198.495
581.581,196.514
583.031,201.561
584.482,194.871
585.932,197.55
587.382,200.369
588.832,198.771
590.283,200.947
591.733,202.968
593.183,210.456
594.634,204.753
596.084,199.669
597.534,200.694
598.985,197.868
600.435,199.048
601.885,205.77
603.336,205.145
604.786,199.095
606.236,195.388
607.687,200.055
609.137,190.776
610.587,196.617
612.038,193.628
613.488,196.167
614.938,203.097
616.389,199.779
617.839,198.091
619.289,186.843
620.74,198.499
622.19,206.583
623.64,201.951
625.091,195.629
626.541,204.26
627.991,200.744
629.442,198.623
630.892,200.669
632.342,204.639
633.793,205.883
635.243,200.638
636.693,205.456
638.144,200.902
639.594,207.831
641.044,208.906
642.495,195.5
643.945,204.246
645.395,211.191
646.846,206.884
648.296,209.147
649.746,211.732
651.197,210.423
652.647,212.403
654.097,213.76
655.547,212.706
656.998,207.315
658.448,203.648
659.898,201.243
661.349,197.325
662.799,212.429
664.249,213.946
665.7,211.552
667.15,214.207
668.6,216.576
670.051,210.8
671.501,205.059
672.951,216.613
674.402,217.924
675.852,212.742
677.302,215.961
678.753,224.368
680.203,209.281
681.653,218.475
683.104,223.461
684.554,221.614
686.004,216.931
687.455,215.256
688.905,219.572
690.355,221.104
691.806,223.776
693.256,218.117
694.706,217.508
696.157,219.14
697.607,217.178
699.057,219.261
700.508,222.502
701.958,231.819
703.408,229.968
704.859,224.254
706.309,222.8
707.759,224.133
709.21,214.922
710.66,212.243
712.11,218.879
713.561,217.154
715.011,215.853
716.461,224.571
717.912,217.669
719.362,214.592
720.812,217.863
722.263,218.679
723.713,224.589
725.163,231.615
726.613,224.528
728.064,220.596
729.514,224.723
730.964,223.599
732.415,221.987
733.865,221.718
735.315,221.249
736.766,218.804
738.216,232.852
739.666,228.601
741.117,220.985
742.567,221.788
744.017,222.688
745.468,211.633
746.918,224.152
748.368,222.726
749.819,216.747
751.269,221.09
752.719,223.07
754.17,216.707
755.62,219.025
757.07,230.184
758.521,227.431
759.971,216.832
761.421,217.941
762.872,224.333
764.322,222.203
765.772,219.06
767.223,225.935
768.673,232.356
770.123,223.058
771.574,218.642
773.024,224.704
774.474,227.368
775.925,216.538
777.375,223.076
778.825,226.767
780.276,225.696
781.726,224.747
783.176,223.741
784.627,219.06
786.077,227.154
787.527,226.933
788.978,222.862
790.428,231.045
791.878,235.05
793.328,229.691
794.779,236.466
796.229,226.81
797.68,231.721
799.13,230.302
800.58,228.845
802.03,230.247
803.481,235.399
804.931,243.911
806.381,231.828
807.832,237.535
809.282,231.943
810.732,228.338
812.183,229.772
813.633,231.849
815.083,233.43
816.534,235.331
817.984,235.661
819.434,239.04
820.885,236.482
822.335,235.536
823.785,240.742
825.236,234.213
826.686,230.407
828.136,239.95
829.587,234.941
831.037,237.334
832.487,248.712
833.938,252.336
835.388,236.633
836.838,245.813
838.289,252.303
839.739,242.965
841.189,242.892
842.64,250.207
844.09,253.101
845.54,254.006
846.991,246.723
848.441,246.682
849.891,248.529
851.342,249.011
852.792,253.259
854.242,257.777
855.693,245.794
857.143,229.649
858.593,248.666
860.044,255.254
861.494,255.2
862.944,251.36
864.394,249.119
865.845,255.054
867.295,254.88
868.745,253.342
870.196,256.627
871.646,249.49
873.096,244.538
874.547,244.234
875.997,239.63
877.447,245.515
878.898,241.686
880.348,254.207
881.798,256.876
883.249,254.169
884.699,253.259
886.149,254.405
887.6,251.572
889.05,238.491
890.5,249.221
891.951,251.8
893.401,250.41
894.851,251.793
896.302,254.754
897.752,251.677
899.202,250.282
900.653,260.534
902.103,257.026
903.553,260.388
905.004,260.934
906.454,261.822
907.904,276.585
909.355,280.226
910.805,277.779
912.255,272.573
913.706,258.526
915.156,257.594
916.606,263.277
918.057,264.462
919.507,273.056
920.957,252.051
922.408,260.366
923.858,274.642
925.308,275.133
926.759,269.587
928.209,272.85
929.659,284.842
931.109,279.094
932.56,279.094
934.01,281.258
935.46,284.992
936.911,274.278
938.361,269.503
939.811,280.582
941.262,276.616
942.712,289.061
944.162,282.719
945.613,283.104
947.063,270.499
948.513,267.104
949.964,276.807
951.414,279.718
952.864,270.3
954.315,276.794
955.765,283.946
957.215,283.095
958.666,281.036
960.116,278.956
961.566,277.076
963.017,275.561
964.467,267.921
965.917,277.422
967.368,277.394
968.818,278.638
970.268,273.339
971.719,268.534
973.169,271.544
974.619,276.619
976.07,281.474
977.52,275.844
978.97,288.398
980.421,285.507
981.871,285.125
983.321,283.955
984.772,278.55
986.222,287.605
987.672,274.379
989.123,284.893
990.573,280.747
992.023,281.782
993.474,282.457
994.924,280.675
996.374,281.375
997.825,285.397
999.275,279.393
1000.73,288.493
1002.18,286.579
1003.63,292.99
1005.08,298.548
1006.53,300.807
1007.98,302.078
1009.43,296.842
1010.88,292.068
1012.33,295.153
1013.78,312.262
1015.23,308.054
1016.68,304.094
1018.13,307.31
1019.58,308.66
1021.03,307.142
1022.48,302.961
1023.93,320.138
1025.38,318.504
1026.83,328.524
1028.28,324.95
1029.73,318.571
1031.18,321.809
1032.63,317.471
1034.08,318.941
1035.53,322.133
1036.98,342.709
1038.43,346.842
1039.88,342.27
1041.33,343.949
1042.78,346.379
1044.23,339.169
1045.69,352.443
1047.14,347.827
1048.59,344.862
1050.04,350.198
1051.49,348.896
1052.94,352.116
1054.39,361.884
1055.84,366.146
1057.29,363.802
1058.74,372.158
1060.19,375.81
1061.64,371.555
1063.09,381.399
1064.54,388.576
1065.99,390.366
1067.44,394.677
1068.89,402.287
1070.34,414.883
1071.79,409.186
1073.24,403.972
1074.69,396.184
1076.14,398.709
1077.59,407.257
1079.04,413.087
1080.49,414.258
1081.94,412.496
1083.39,398.056
1084.84,424.462
1086.29,422.125
1087.74,410.744
1089.2,414.616
1090.65,419.288
1092.1,411.762
1093.55,407.233
1095,405.9
1096.45,400.723
1097.9,399.044
1099.35,401.488
1100.8,400.192
1102.25,405.172
1103.7,396.624
1105.15,380.9
1106.6,413.449
1108.05,410.171
1109.5,392.449
1110.95,391.335
1112.4,389.564
1113.85,392.364
1115.3,395.686
1116.75,393.274
1118.2,387.368
1119.65,385.695
1121.1,375.901
1122.55,392.374
1124,379.303
1125.45,375.152
1126.9,381.808
1128.35,381.279
1129.8,378.348
1131.25,382.173
1132.7,368.292
1134.16,381.018
1135.61,386.578
1137.06,371.349
1138.51,371.068
1139.96,367.262
1141.41,366.085
1142.86,366.414
1144.31,361.847
1145.76,371.573
1147.21,367.407
1148.66,359.676
1150.11,371.08
1151.56,365.549
1153.01,355.199
1154.46,356.322
1155.91,361.328
1157.36,361.615
1158.81,371.876
1160.26,369.648
1161.71,348.762
1163.16,367.874
1164.61,363.917
1166.06,362.869
1167.51,367.621
1168.96,367.553
1170.41,362.216
1171.86,361.057
1173.31,357.944
1174.76,354.161
1176.21,361.825
1177.66,359.208
1179.12,358.82
1180.57,360.903
1182.02,363.856
1183.47,364.346
1184.92,363.635
1186.37,373.805
1187.82,364.053
1189.27,370.367
1190.72,368.249
1192.17,365.134
1193.62,364.053
1195.07,357.73
1196.52,358.061
1197.97,372.229
1199.42,376.219
1200.87,372.524
1202.32,375.6
1203.77,356.186
1205.22,368.118
1206.67,369.571
1208.12,360.725
1209.57,361.766
1211.02,368.352
1212.47,367.174
1213.92,375.914
1215.37,364.986
1216.82,376.22
1218.27,373.188
1219.72,381.922
1221.17,380.781
1222.63,373.401
1224.08,374.07
1225.53,377.322
1226.98,367.645
1228.43,362.831
1229.88,385.051
1231.33,369.078
1232.78,387.884
1234.23,381.274
1235.68,387.363
1237.13,392.375
1238.58,393.371
1240.03,394.813
1241.48,392.677
1242.93,406.231
1244.38,392.979
1245.83,381.162
1247.28,389.008
1248.73,408.653
1250.18,406.661
1251.63,396.505
1253.08,398.71
1254.53,405.966
1255.98,405.387
1257.43,416.887
1258.88,423.476
1260.33,412.551
1261.78,421.398
1263.23,425.75
1264.68,420.452
1266.13,424.103
1267.59,436.131
1269.04,446.767
1270.49,449.735
1271.94,443.958
1273.39,463.796
1274.84,458.135
1276.29,458.065
1277.74,470.665
1279.19,470.497
1280.64,481.531
1282.09,490.305
1283.54,498.639
1284.99,512.983
1286.44,515.134
1287.89,522.063
1289.34,506.65
1290.79,539.908
1292.24,552.485
1293.69,555.727
1295.14,570.849
1296.59,590.256
1298.04,599.287
1299.49,609.032
1300.94,633.14
1302.39,649.199
1303.84,651.137
1305.29,662.668
1306.74,685.302
1308.19,697.137
1309.64,721.584
1311.09,753.361
1312.55,781.172
1314,801.802
1315.45,826.819
1316.9,857.541
1318.35,872.426
1319.8,909.365
1321.25,921.836
1322.7,931.119
1324.15,976.621
1325.6,975.887
1327.05,971.455
1328.5,971.035
1329.95,977.324
1331.4,992.547
1332.85,1000.81
1334.3,993.775
1335.75,994.937
1337.2,961.502
1338.65,953.761
1340.1,924.241
1341.55,921.085
1343,900.687
1344.45,868.471
1345.9,854.095
1347.35,846.765
1348.8,816.462
1350.25,776.234
1351.7,748.428
1353.15,742.294
1354.6,748.185
1356.06,725.427
1357.51,678.579
1358.96,653.66
1360.41,651.208
1361.86,645.552
1363.31,635.347
1364.76,629.837
1366.21,615.191
1367.66,583.865
1369.11,577.548
1370.56,586.963
1372.01,572.201
1373.46,571.104
1374.91,559.586
1376.36,564.402
1377.81,558.183
1379.26,543.366
1380.71,535.644
1382.16,536.145
1383.61,541.427
1385.06,527.941
1386.51,509.404
1387.96,527.883
1389.41,529.607
1390.86,539.803
1392.31,537.728
1393.76,521.02
1395.21,526.639
1396.66,524.594
1398.11,518.995
1399.56,538.926
1401.02,542.407
1402.47,539.441
1403.92,535.997
1405.37,543.597
1406.82,548.15
1408.27,547.89
1409.72,536.156
1411.17,551.729
1412.62,556.702
1414.07,539.699
1415.52,537.081
1416.97,552.617
1418.42,555.947
1419.87,568.681
1421.32,569.069
1422.77,573.517
1424.22,557.54
1425.67,565.851
1427.12,592.909
1428.57,578.722
1430.02,577.857
1431.47,587.301
1432.92,589.373
1434.37,592.933
1435.82,602.314
1437.27,612.485
1438.72,635.808
1440.17,620.542
1441.62,613.84
1443.07,625.863
1444.53,614.907
1445.98,632.603
1447.43,650.184
1448.88,657.369
1450.33,649.836
1451.78,648.093
1453.23,667.378
1454.68,686.128
1456.13,686.269
1457.58,691.822
1459.03,700.749
1460.48,714.554
1461.93,698.46
1463.38,732.492
1464.83,744.965
1466.28,744.739
1467.73,753.797
1469.18,766.12
1470.63,786.128
1472.08,811.676
1473.53,826.391
1474.98,831.953
1476.43,840.889
1477.88,860.165
1479.33,849.461
1480.78,887.093
1482.23,904.997
1483.68,919.39
1485.13,955.077
1486.58,967.177
1488.03,975.12
1489.49,1008.76
1490.94,1037.15
1492.39,1046.73
1493.84,1065.39
1495.29,1091.3
1496.74,1140.37
1498.19,1161.3
1499.64,1205.73
1501.09,1200.67
1502.54,1279.41
1503.99,1332.81
1505.44,1372.49
1506.89,1430.27
1508.34,1488
1509.79,1544.71
1511.24,1610.13
1512.69,1687.23
1514.14,1775.9
1515.59,1870.31
1517.04,1964.98
1518.49,2067.37
1519.94,2181.22
1521.39,2343.35
1522.84,2520.08
1524.29,2668.56
1525.74,2832.34
1527.19,3086.39
1528.64,3322.37
1530.09,3548.57
1531.54,3821.95
1532.99,4134.55
1534.45,4482.55
1535.9,4859.55
1537.35,5214.58
1538.8,5632.29
1540.25,6003.9
1541.7,6487.38
1543.15,6976.51
1544.6,7551.05
1546.05,7960.8
1547.5,8405.98
1548.95,8882.39
1550.4,9409.99
1551.85,9842.82
1553.3,9858.48
1554.75,9874.62
1556.2,9902.87
1557.65,9927.09
1559.1,9944.85
1560.55,10007.8
1562,9977.14
1563.45,9969.31
1564.9,9964.79
1566.35,9946.14
1567.8,9869.13
1569.25,9380.69
1570.7,8835.42
1572.15,8282.72
1573.6,7740.35
1575.05,7211.07
1576.5,6667.95
1577.96,6134.69
1579.41,5663.19
1580.86,5241.35
1582.31,4822.59
1583.76,4413.82
1585.21,4120.19
1586.66,3805.63
1588.11,3563.69
1589.56,3310.8
1591.01,3096.14
1592.46,2880.83
1593.91,2724.51
1595.36,2547.5
1596.81,2412.67
1598.26,2292.54
1599.71,2162.24
1601.16,2053.76
1602.61,1953.27
1604.06,1850.24
1605.51,1760.59
1606.96,1681.04
1608.41,1595.7
1609.86,1549.47
1611.31,1479.22
1612.76,1405.3
1614.21,1373.37
1615.66,1317.35
1617.11,1263.07
1618.56,1218.42
1620.01,1184.36
1621.46,1156.4
1622.92,1116.11
1624.37,1074.81
1625.82,1037.06
1627.27,1020.15
1628.72,1003.14
1630.17,962.1
1631.62,940.119
1633.07,941.725
1634.52,912.246
1635.97,912.464
1637.42,896.95
1638.87,859.664
1640.32,850.139
1641.77,844.771
1643.22,831.767
1644.67,814.485
1646.12,798.985
1647.57,793.403
1649.02,779.851
1650.47,765.523
1651.92,758.401
1653.37,758.588
1654.82,751.383
1656.27,756.499
1657.72,736.064
1659.17,732.161
1660.62,710.487
1662.07,700.952
1663.52,688.343
1664.97,695.311
1666.42,675.85
1667.88,676.678
1669.33,659.574
1670.78,648.779
1672.23,662.669
1673.68,663.226
1675.13,657.359
1676.58,647.852
1678.03,647.404
1679.48,652.548
1680.93,640.912
1682.38,624.575
1683.83,634.225
1685.28,616.774
1686.73,606.94
1688.18,595.86
1689.63,601.116
1691.08,615.946
1692.53,612.807
1693.98,596.004
1695.43,598.671
1696.88,607.037
1698.33,603.741
1699.78,599.517
1701.23,596.931
1702.68,601.19
1704.13,591.208
1705.58,598.778
1707.03,589.704
1708.48,600.741
1709.93,570.896
1711.39,576.74
1712.84,599.017
1714.29,583.032
1715.74,574.509
1717.19,581.711
1718.64,590.559
1720.09,583.024
1721.54,588.589
1722.99,589.081
1724.44,576.738
1725.89,582.22
1727.34,585.115
1728.79,571.886
1730.24,577.924
1731.69,576.749
1733.14,574.088
1734.59,562.777
1736.04,585.849
1737.49,568.529
1738.94,553.592
1740.39,548.6
1741.84,542.851
1743.29,542.058
1744.74,552.614
1746.19,552.976
1747.64,555.494
1749.09,541.257
1750.54,550.38
1751.99,542.422
1753.44,523.201
1754.89,529.065
1756.35,535.643
1757.8,525.171
1759.25,528.824
1760.7,533.85
1762.15,515.037
1763.6,522.542
1765.05,519.738
1766.5,523.404
1767.95,512.606
1769.4,509.431
1770.85,505.348
1772.3,519.066
1773.75,498.892
1775.2,513.204
1776.65,497.411
1778.1,495.641
1779.55,500.601
1781,494.667
1782.45,500.751
1783.9,503.292
1785.35,501.897
1786.8,501.317
1788.25,508.914
1789.7,502.046
1791.15,494.098
1792.6,498.531
1794.05,486.588
1795.5,488.09
1796.95,494.016
1798.4,506.021
1799.85,508.911
1801.31,494.633
1802.76,481.404
1804.21,485.088
1805.66,494.575
1807.11,493.994
1808.56,476.73
1810.01,482.155
1811.46,470.534
1812.91,468.055
1814.36,486.455
1815.81,487.65
1817.26,486.883
1818.71,474.966
1820.16,473.158
1821.61,479.564
1823.06,478.465
1824.51,483.153
1825.96,487.051
1827.41,486.884
1828.86,489.106
1830.31,487.23
1831.76,493.771
1833.21,495.467
1834.66,482.9
1836.11,495.618
1837.56,485.757
1839.01,486.704
1840.46,495.123
1841.91,493.014
1843.36,509.079
1844.82,499.968
1846.27,494.128
1847.72,491.13
1849.17,505.224
1850.62,496.831
1852.07,513.156
1853.52,496.307
1854.97,499.285
1856.42,504.621
1857.87,509.091
1859.32,511.069
1860.77,506.452
1862.22,494.163
1863.67,496.906
1865.12,501.605
1866.57,506.361
1868.02,505.779
1869.47,495.436
1870.92,498.272
1872.37,505.194
1873.82,506.796
1875.27,511.335
1876.72,498.339
1878.17,490.148
1879.62,491.776
1881.07,496.662
1882.52,500.081
1883.97,490.682
1885.42,495.462
1886.87,482.164
1888.32,491.917
1889.78,500.346
1891.23,468.995
1892.68,475.453
1894.13,475.446
1895.58,479.378
1897.03,477.067
1898.48,481.849
1899.93,471.483
1901.38,465.929
1902.83,467.091
1904.28,469.205
1905.73,464.299
1907.18,473.87
1908.63,471.204
1910.08,480.169
1911.53,473.117
1912.98,460.542
1914.43,467.515
1915.88,469.312
1917.33,465.37
1918.78,465.915
1920.23,466.556
1921.68,465.605
1923.13,459.902
1924.58,462.213
1926.03,465.375
1927.48,462.31
1928.93,469.87
1930.38,460.867
1931.83,473.623
1933.29,454.706
1934.74,462.44
1936.19,461.758
1937.64,454.845
1939.09,458.732
1940.54,456.984
1941.99,469.504
1943.44,458.606
1944.89,462.72
1946.34,464.496
1947.79,466.66
1949.24,452.842
1950.69,469.105
1952.14,472.746
1953.59,480.417
1955.04,485.434
1956.49,467.457
1957.94,471.241
1959.39,467.891
1960.84,456.601
1962.29,477.027
1963.74,469.481
1965.19,477.981
1966.64,480.564
1968.09,467.209
1969.54,465.856
1970.99,464.177
1972.44,467.083
1973.89,472.944
1975.34,480.457
1976.79,489.886
1978.25,490.985
1979.7,485.131
1981.15,483.467
1982.6,487.771
1984.05,489.206
1985.5,479.61
1986.95,477.252
1988.4,484.644
1989.85,479.421
1991.3,484.245
1992.75,485.133
1994.2,475.322
1995.65,487.412
1997.1,471.309
1998.55,475.382
2000,472.136
2001.45,482.476
2002.9,484.542
2004.35,495.798
2005.8,487.805
2007.25,477.281
2008.7,481.21
2010.15,476.83
2011.6,469.536
2013.05,464.621
2014.5,466.557
2015.95,475.7
2017.4,470.494
2018.85,466.24
2020.3,478.664
2021.75,485.787
2023.21,487.339
2024.66,481.072
2026.11,457.976
2027.56,491.668
2029.01,463.139
2030.46,469.513
2031.91,457.459
2033.36,474.896
2034.81,452.584
2036.26,487.801
2037.71,461.721
2039.16,469.673
2040.61,467.057
2042.06,451.402
2043.51,468.811
2044.96,468.383
2046.41,448.937
2047.86,449.194
2049.31,470.962
2050.76,446.073
2052.21,448.762
2053.66,441.32
2055.11,448.286
2056.56,457.834
2058.01,457.725
2059.46,454.773
2060.91,443.066
2062.36,440.776
2063.81,443.95
2065.26,444.217
2066.72,450.244
2068.17,448.275
2069.62,442.707
2071.07,450.82
2072.52,440.131
2073.97,441.049
2075.42,443.867
2076.87,444.925
2078.32,455.497
2079.77,451.425
2081.22,444.805
2082.67,436.132
2084.12,439.227
2085.57,440.719
2087.02,433.787
2088.47,440.244
2089.92,440.971
2091.37,441.481
2092.82,438.719
2094.27,443.175
2095.72,445.574
2097.17,441.327
2098.62,443.521
2100.07,434.432
2101.52,445.369
2102.97,446.892
2104.42,440.858
2105.87,446.198
2107.32,448.984
2108.77,450.234
2110.22,454.166
2111.68,457.051
2113.13,455.611
2114.58,447.701
2116.03,443.875
2117.48,444.031
2118.93,449.157
2120.38,454.863
2121.83,451.972
2123.28,454.61
2124.73,459.27
2126.18,460.354
2127.63,457.828
2129.08,456.021
2130.53,460.729
2131.98,462.613
2133.43,449.692
2134.88,451.944
2136.33,462.376
2137.78,456.01
2139.23,454.28
2140.68,456.597
2142.13,458.451
2143.58,470.577
2145.03,465.845
2146.48,463.335
2147.93,463.382
2149.38,463.004
2150.83,471.596
2152.28,468.486
2153.73,469.187
2155.18,473.8
2156.64,473.686
2158.09,468.419
2159.54,479.229
2160.99,477.901
2162.44,475.181
2163.89,485.797
2165.34,481.701
2166.79,479.294
2168.24,476.96
2169.69,478.55
2171.14,482.408
2172.59,477.297
2174.04,481.186
2175.49,494.045
2176.94,488.06
2178.39,492.354
2179.84,494.782
2181.29,490.015
2182.74,484.822
2184.19,490.243
2185.64,483.838
2187.09,483.902
2188.54,482.86
2189.99,485.319
2191.44,485.423
2192.89,486.984
2194.34,492.55
2195.79,501.544
2197.24,490.973
2198.69,495.527
2200.15,491.86
2201.6,493.065
2203.05,484.106
2204.5,486.085
2205.95,494.983
2207.4,498.455
2208.85,492.962
2210.3,496.009
2211.75,504.848
2213.2,516.299
2214.65,496.797
2216.1,509.091
2217.55,507.352
2219,496.376
2220.45,507.961
2221.9,506.236
2223.35,509.401
2224.8,516.651
2226.25,526.293
2227.7,507.091
2229.15,515.632
2230.6,524.459
2232.05,509.853
2233.5,504.448
2234.95,497.806
2236.4,521.46
2237.85,528.218
2239.3,513.799
2240.75,518.244
2242.2,522.543
2243.65,508.078
2245.11,523.369
2246.56,531.495
2248.01,525.642
2249.46,518.65
2250.91,531.842
2252.36,531.988
2253.81,547.366
2255.26,533.065
2256.71,523.581
2258.16,532.66
2259.61,545.501
2261.06,536.493
2262.51,522.567
2263.96,533.917
2265.41,547.756
2266.86,539.329
2268.31,549.443
2269.76,544.03
2271.21,536.433
2272.66,550.42
2274.11,547.899
2275.56,539.135
2277.01,544.719
2278.46,546.035
2279.91,546.035
2281.36,543.265
2282.81,555.902
2284.26,560.517
2285.71,554.683
2287.16,547.177
2288.61,559.575
2290.07,565.922
2291.52,575.467
2292.97,570.993
2294.42,573.392
2295.87,572.764
2297.32,563.035
2298.77,565.611
2300.22,568.012
2301.67,555.854
2303.12,579.271
2304.57,581.665
2306.02,580.637
2307.47,565.901
2308.92,572.597
2310.37,592.766
2311.82,588.879
2313.27,581.637
2314.72,572.081
2316.17,583.046
2317.62,584.114
2319.07,617.343
2320.52,604.497
2321.97,597.752
2323.42,617.569
2324.87,604.523
2326.32,610.925
2327.77,617.126
2329.22,612.855
2330.67,612.493
2332.12,626.339
2333.57,627.014
2335.03,636.564
2336.48,611.805
2337.93,623.464
2339.38,635.351
2340.83,634.446
2342.28,644.448
2343.73,646.342
2345.18,642.819
2346.63,655.118
2348.08,645.238
2349.53,645.63
2350.98,669.526
2352.43,670.794
2353.88,680.42
2355.33,678.435
2356.78,681.481
2358.23,696.801
2359.68,695.611
2361.13,687.769
2362.58,690.256
2364.03,713.03
2365.48,715.536
2366.93,750.16
2368.38,712.933
2369.83,730.026
2371.28,727.357
2372.73,754
2374.18,758.427
2375.63,767.875
2377.08,780.746
2378.54,784.52
2379.99,794.517
2381.44,807.038
2382.89,813.314
2384.34,818.424
2385.79,819.151
2387.24,835.303
2388.69,842.495
2390.14,859.326
2391.59,880.474
2393.04,878.343
2394.49,865.517
2395.94,876.325
2397.39,907.532
2398.84,939.021
2400.29,921.723
2401.74,943.324
2403.19,944.874
2404.64,973.07
2406.09,985.751
2407.54,966.919
2408.99,974.91
2410.44,984.137
2411.89,973.804
2413.34,1002.43
2414.79,1017.84
2416.24,1002.98
2417.69,993.314
2419.14,1005.27
2420.59,1002.44
2422.04,975.54
2423.5,994.162
2424.95,1004.2
2426.4,988.052
2427.85,977.316
2429.3,983.119
2430.75,992.354
2432.2,991.506
2433.65,979.543
2435.1,958.104
2436.55,979.422
2438,962.979
2439.45,963.052
2440.9,971.625
2442.35,958.193
2443.8,960.114
2445.25,945.269
2446.7,960.364
2448.15,947.634
2449.6,940.087
2451.05,927.188
2452.5,933.097
2453.95,914.522
2455.4,936.39
2456.85,917.194
2458.3,917.679
2459.75,926.413
2461.2,930.36
2462.65,920.738
2464.1,920.504
2465.55,913.239
2467.01,912.198
2468.46,917.073
2469.91,917.219
2471.36,912.497
2472.81,916.605
2474.26,921.141
2475.71,911.487
2477.16,927.817
2478.61,932.539
2480.06,944.664
2481.51,940.063
2482.96,940.87
2484.41,921.933
2485.86,944.567
2487.31,955.505
2488.76,951.404
2490.21,946.851
2491.66,944.115
2493.11,942.864
2494.56,952.461
2496.01,936.519
2497.46,934.759
2498.91,944.567
2500.36,947.069
2501.81,941.354
2503.26,968.517
2504.71,971.568
2506.16,982.441
2507.61,1002.08
2509.06,965.675
2510.51,1012.69
2511.97,995.276
2513.42,1005.77
2514.87,1019.95
2516.32,1033.44
2517.77,1032.25
2519.22,1039.12
2520.67,1058.03
2522.12,1067.07
2523.57,1083.38
2525.02,1080.72
2526.47,1092.69
2527.92,1098.33
2529.37,1080.94
2530.82,1107.55
2532.27,1130.63
2533.72,1124.27
2535.17,1132.73
2536.62,1151.83
2538.07,1181.67
2539.52,1165.06
2540.97,1199.31
2542.42,1203.29
2543.87,1256.87
2545.32,1266.02
2546.77,1260.62
2548.22,1289.12
2549.67,1305.83
2551.12,1318.48
2552.57,1320.72
2554.02,1350.74
2555.48,1379.3
2556.93,1414.76
2558.38,1431.9
2559.83,1447.82
2561.28,1471.14
2562.73,1525.29
2564.18,1541.84
2565.63,1570.83
2567.08,1609.41
2568.53,1630.24
2569.98,1676.67
2571.43,1738.57
2572.88,1771.47
2574.33,1770.3
2575.78,1825.92
2577.23,1874.05
2578.68,1912.26
2580.13,1966.39
2581.58,2010.43
2583.03,2046.61
2584.48,2105.76
2585.93,2156.69
2587.38,2199.89
2588.83,2286.9
2590.28,2373.36
2591.73,2462.77
2593.18,2492.88
2594.63,2558.8
2596.08,2650.59
2597.53,2721.24
2598.98,2840.91
2600.44,2921.73
2601.89,3028.61
2603.34,3137.07
2604.79,3228.4
2606.24,3351.05
2607.69,3435.33
2609.14,3576.8
2610.59,3649.15
2612.04,3800.07
2613.49,3901.12
2614.94,4056.81
2616.39,4180.1
2617.84,4274.09
2619.29,4407.49
2620.74,4532.95
2622.19,4659.72
2623.64,4820.73
2625.09,4899.3
2626.54,5023.21
2627.99,5148.63
2629.44,5297.2
2630.89,5435.34
2632.34,5563.57
2633.79,5658.65
2635.24,5826.9
2636.69,5864.32
2638.14,5955.87
2639.59,6076.66
2641.04,6112.89
2642.49,6190.02
2643.94,6234.77
2645.4,6252.78
2646.85,6279.18
2648.3,6292.74
2649.75,6249.67
2651.2,6258.48
2652.65,6180.97
2654.1,6211.02
2655.55,6122.05
2657,6068.24
2658.45,5964.85
2659.9,5860.63
2661.35,5752.42
2662.8,5657.94
2664.25,5526.49
2665.7,5447.51
2667.15,5351.37
2668.6,5184.54
2670.05,5078.19
2671.5,4959.98
2672.95,4749.95
2674.4,4666.11
2675.85,4522.47
2677.3,4358.42
2678.75,4239.17
2680.2,4146.2
2681.65,3953.07
2683.1,3843.79
2684.55,3714.38
2686,3617.47
2687.45,3484.47
2688.91,3342.34
2690.36,3223.36
2691.81,3125.77
2693.26,3022.88
2694.71,2869.12
2696.16,2781.34
2697.61,2744.8
2699.06,2605.04
2700.51,2538.54
2701.96,2495.54
2703.41,2403.84
2704.86,2293.21
2706.31,2230.15
2707.76,2136.94
2709.21,2106.85
2710.66,2039.77
2712.11,1965.35
2713.56,1915.68
2715.01,1883.12
2716.46,1823.19
2717.91,1779.95
2719.36,1724.12
2720.81,1697.61
2722.26,1664.45
2723.71,1608.3
2725.16,1557.98
2726.61,1527.95
2728.06,1507.36
2729.51,1485.62
2730.96,1447.27
2732.41,1397.49
2733.87,1398.17
2735.32,1350.55
2736.77,1336.48
2738.22,1312.07
2739.67,1295.34
2741.12,1277.71
2742.57,1236.98
2744.02,1225.81
2745.47,1224.24
2746.92,1186.88
2748.37,1187.48
2749.82,1156.51
2751.27,1159.72
2752.72,1127.77
2754.17,1131.67
2755.62,1103.22
2757.07,1074.75
2758.52,1067.24
2759.97,1062.74
2761.42,1036.62
2762.87,1028.98
2764.32,1033.38
2765.77,1016.72
2767.22,980.262
2768.67,1017.76
2770.12,992.637
2771.57,985.945
2773.02,971.948
2774.47,973.869
2775.92,968.687
2777.38,952.655
2778.83,951.783
2780.28,938.949
2781.73,931.216
2783.18,917.445
2784.63,918.672
2786.08,910.599
2787.53,881.621
2788.98,896.304
2790.43,905.926
2791.88,892.873
2793.33,880.652
2794.78,866.889
2796.23,864.508
2797.68,873.153
2799.13,861.44
2800.58,862.385
2802.03,851.229
2803.48,844.779
2804.93,853.312
2806.38,839.638
2807.83,823.033
2809.28,829.313
2810.73,819.627
2812.18,826.956
2813.63,827.521
2815.08,834.237
2816.53,812.12
2817.98,818.593
2819.43,827.513
2820.88,812.507
2822.33,800.078
2823.79,807.185
2825.24,797.377
2826.69,790.244
2828.14,784.945
2829.59,786.642
2831.04,798.256
2832.49,804.064
2833.94,767.683
2835.39,765.643
2836.84,768.007
2838.29,761.285
2839.74,761.289
2841.19,766.002
2842.64,779.497
2844.09,776.63
2845.54,767.82
2846.99,763.383
2848.44,761.279
2849.89,749.908
2851.34,762.301
2852.79,754.032
2854.24,745.657
2855.69,756.292
2857.14,774.706
2858.59,754.384
2860.04,744.196
2861.49,754.85
2862.94,739.909
2864.39,741.741
2865.84,757.957
2867.3,754.111
2868.75,752.624
2870.2,752.456
2871.65,738.951
2873.1,744.099
2874.55,759.461
2876,751.906
2877.45,754.226
2878.9,755.981
2880.35,751.597
2881.8,734.745
2883.25,740.936
2884.7,742.218
2886.15,742.08
2887.6,740.043
2889.05,733.123
2890.5,745.166
2891.95,752.195
2893.4,745.313
2894.85,749.818
2896.3,749.474
2897.75,738.814
2899.2,737.164
2900.65,736.095
2902.1,731.409
2903.55,728.314
2905,729.141
2906.45,731.33
2907.9,733.39
2909.35,727.055
2910.8,714.071
2912.26,713.495
2913.71,720.675
2915.16,695.864
2916.61,724.765
2918.06,714.409
2919.51,698.285
2920.96,713.939
2922.41,710.627
2923.86,708.847
2925.31,702.612
2926.76,691.694
2928.21,686.782
2929.66,685.089
2931.11,681.199
2932.56,673.688
2934.01,688.861
2935.46,674.753
2936.91,674.748
2938.36,671.976
2939.81,664.094
2941.26,656.794
2942.71,662.987
2944.16,665.974
2945.61,663.639
2947.06,662.578
2948.51,664.992
2949.96,650.404
2951.41,648.542
2952.86,659.096
2954.31,647.837
2955.77,643.508
2957.22,651.782
2958.67,644.362
2960.12,633.867
2961.57,663.564
2963.02,642.8
2964.47,639.834
2965.92,637.349
2967.37,641.19
2968.82,639.439
2970.27,645.282
2971.72,629.522
2973.17,631.31
2974.62,630.581
2976.07,623.431
2977.52,624.025
2978.97,629.226
2980.42,622.968
2981.87,633.037
2983.32,638.457
2984.77,631.142
2986.22,620.768
2987.67,627.82
2989.12,632.988
2990.57,636.227
2992.02,629.863
2993.47,619.507
2994.92,625.061
2996.37,635.835
2997.82,632.983
2999.27,638.968
3000.73,616.6
3002.18,630.461
3003.63,618.396
3005.08,626.532
3006.53,623.408
3007.98,608.359
3009.43,605.345
3010.88,613.534
3012.33,624.16
3013.78,637.445
3015.23,609.443
3016.68,620.368
3018.13,611.334
3019.58,619.947
3021.03,621.288
3022.48,610.525
3023.93,623.597
3025.38,635.596
3026.83,617.035
3028.28,625.35
3029.73,641.639
3031.18,643.298
3032.63,632.505
3034.08,643.923
3035.53,647.322
3036.98,609.238
3038.43,636.393
3039.88,639.84
3041.33,635.014
3042.78,633.826
3044.23,624.721
3045.69,624.567
3047.14,620.619
3048.59,633.879
3050.04,642.511
3051.49,624.509
3052.94,622.736
3054.39,635.607
3055.84,646.404
3057.29,642.976
3058.74,632.951
3060.19,648.749
3061.64,656.617
3063.09,661.537
3064.54,665.419
3065.99,662.45
3067.44,645.715
3068.89,659.676
3070.34,672.045
3071.79,691.524
3073.24,662.084
3074.69,677.19
3076.14,676.009
3077.59,680.499
3079.04,700.767
3080.49,699.702
3081.94,714.29
3083.39,708.62
3084.84,725.956
3086.29,715.212
3087.74,722.081
3089.2,725.68
3090.65,737.897
3092.1,742.345
3093.55,745.61
3095,743.041
3096.45,748.108
3097.9,759.882
3099.35,777.694
3100.8,785.15
3102.25,777.309
3103.7,801.117
3105.15,805.995
3106.6,797.15
3108.05,817.294
3109.5,801.463
3110.95,817.068
3112.4,821.306
3113.85,845.627
3115.3,841.865
3116.75,851.382
3118.2,844.989
3119.65,858.575
3121.1,864.693
3122.55,866.711
3124,871.305
3125.45,867.809
3126.9,876.793
3128.35,890.484
3129.8,878.263
3131.25,879.788
3132.7,893.374
3134.16,886.69
3135.61,886.399
3137.06,902.099
3138.51,879.74
3139.96,894.043
3141.41,899.419
3142.86,888.998
3144.31,905.643
3145.76,905.926
3147.21,908.872
3148.66,895.658
3150.11,894.52
3151.56,881.072
3153.01,889.79
3154.46,905.667
3155.91,911.391
3157.36,920.883
3158.81,931.175
3160.26,903.456
3161.71,920.673
3163.16,930.352
3164.61,928.027
3166.06,918.72
3167.51,945.931
3168.96,938.634
3170.41,937.891
3171.86,952.195
3173.31,959.847
3174.76,965.038
3176.21,948.571
3177.67,964.021
3179.12,957.716
3180.57,971.471
3182.02,994.259
3183.47,981.247
3184.92,960.679
3186.37,975.257
3187.82,970.955
3189.27,955.053
3190.72,976.549
3192.17,958.637
3193.62,952.324
3195.07,947.57
3196.52,945.826
3197.97,923.378
3199.42,885.834
3200.87,904.142
3202.32,896.748
3203.77,882.985
3205.22,881.911
3206.67,868.745
3208.12,858.938
3209.57,840.84
3211.02,820.192
3212.47,838.685
3213.92,810.255
3215.37,787.626
3216.82,788.743
3218.27,772.738
3219.72,757.778
3221.17,759.481
3222.63,753.726
3224.08,752.063
3225.53,739.087
3226.98,733.531
3228.43,698.519
3229.88,720.638
3231.33,702.89
3232.78,684.606
3234.23,670.038
3235.68,676.106
3237.13,672.788
3238.58,670.492
3240.03,650.411
3241.48,641.467
3242.93,646.246
3244.38,654.424
3245.83,650.396
3247.28,652.024
3248.73,636.168
3250.18,642.301
3251.63,639.643
3253.08,638.932
3254.53,630.415
3255.98,607.361
3257.43,620.448
3258.88,620.152
3260.33,613.933
3261.78,613.369
3263.23,610.614
3264.68,624.839
3266.13,616.018
3267.59,601.685
3269.04,610.183
3270.49,621.009
3271.94,616.078
3273.39,599.223
3274.84,610.227
3276.29,604.234
3277.74,600.034
3279.19,615.225
3280.64,598.011
3282.09,606.105
3283.54,599.656
3284.99,607.888
3286.44,603.836
3287.89,598.273
3289.34,612.101
3290.79,612.187
3292.24,591.334
3293.69,616.726
3295.14,615.855
3296.59,605.539
3298.04,600.486
3299.49,598.977
3300.94,593.959
3302.39,602.655
3303.84,588.8
3305.29,597.732
3306.74,613.026
3308.19,601.602
3309.64,590.723
3311.09,595.925
3312.55,607.624
3314,603.651
3315.45,583.432
3316.9,592.986
3318.35,607.835
3319.8,585.95
3321.25,606.063
3322.7,594.328
3324.15,598.406
3325.6,605.998
3327.05,607.904
3328.5,591.93
3329.95,604.836
3331.4,611.637
3332.85,592.032
3334.3,586.874
3335.75,593.406
3337.2,597.797
3338.65,595.29
3340.1,597.308
3341.55,603.466
3343,602.651
3344.45,594.379
3345.9,601.129
3347.35,591.714
3348.8,582.252
3350.25,602.827
3351.7,596.17
3353.15,594.177
3354.6,602.503
3356.06,593.654
3357.51,598.916
3358.96,598.758
3360.41,593.946
3361.86,595.523
3363.31,590.924
3364.76,591.681
3366.21,597.178
3367.66,600.26
3369.11,600.967
3370.56,614.261
3372.01,609.548
3373.46,629.171
3374.91,603.082
3376.36,601.244
3377.81,596.266
3379.26,602.975
3380.71,588.94
3382.16,604.67
3383.61,599.664
3385.06,614.196
3386.51,604.172
3387.96,594.708
3389.41,580.8
3390.86,598.823
3392.31,603.704
3393.76,594.092
3395.21,602.945
3396.66,602.718
3398.11,618.11
3399.56,610.748
3401.02,611.851
3402.47,607.176
3403.92,595.294
3405.37,584.623
3406.82,609.861
3408.27,590.969
3409.72,595.387
3411.17,603.665
3412.62,606.043
3414.07,603.98
3415.52,608.043
3416.97,594.671
3418.42,609.035
3419.87,595.87
3421.32,599.4
3422.77,604.837
3424.22,612.974
3425.67,617.327
3427.12,620.411
3428.57,616.505
3430.02,603.716
3431.47,611.407
3432.92,617.308
3434.37,597.639
3435.82,608.308
3437.27,610.234
3438.72,608.552
3440.17,611.475
3441.62,600.448
3443.07,602.164
3444.52,608.986
3445.98,580.239
3447.43,614.383
3448.88,612.873
3450.33,608.229
3451.78,606.102
3453.23,611.635
3454.68,611.878
3456.13,609.086
3457.58,609.325
3459.03,603.437
3460.48,599.264
3461.93,624.032
3463.38,613.35
3464.83,619.338
3466.28,625.911
3467.73,626.372
3469.18,618.076
3470.63,608.621
3472.08,617.652
3473.53,628.115
3474.98,622.137
3476.43,598.62
3477.88,627.222
3479.33,623.819
3480.78,624.156
3482.23,615.598
3483.68,631.995
3485.13,593.136
3486.58,618.603
3488.03,630.059
3489.49,624.537
3490.94,606.856
3492.39,608.897
3493.84,616.941
3495.29,628.896
3496.74,628.658
3498.19,611.752
3499.64,622.408
3501.09,621.301
3502.54,630.889
3503.99,618.367
3505.44,621.454
3506.89,628.013
3508.34,633
3509.79,622.289
3511.24,626.144
3512.69,625.998
3514.14,622.078
3515.59,648.801
3517.04,630.198
3518.49,634.213
3519.94,632.962
3521.39,626.052
3522.84,635.889
3524.29,633.624
3525.74,631.5
3527.19,642.034
3528.64,621.183
3530.09,631.099
3531.54,636.656
3532.99,645.669
3534.45,641.315
3535.9,614.384
3537.35,635.284
3538.8,633.63
3540.25,630.073
3541.7,630.859
3543.15,626.336
3544.6,643.881
3546.05,627.956
3547.5,628.403
3548.95,635.231
3550.4,642.733
3551.85,637.454
3553.3,631.284
3554.75,622.526
3556.2,620.794
3557.65,637.312
3559.1,624.432
3560.55,632.569
3562,633.295
3563.45,634.038
3564.9,625.411
3566.35,636.938
3567.8,649.265
3569.25,640.826
3570.7,646.37
3572.15,642.21
3573.6,632.726
3575.05,629.252
3576.5,633.591
3577.96,638.617
3579.41,650.845
3580.86,635.182
3582.31,644.918
3583.76,647.134
3585.21,639.16
3586.66,631.163
3588.11,641.605
3589.56,644.313
3591.01,639.062
3592.46,663.47
3593.91,621.542
3595.36,623.736
3596.81,634.401
3598.26,647.62
3599.71,643.952
3601.16,640.973
3602.61,641.448
3604.06,648.062
3605.51,643.351
3606.96,655.402
3608.41,645.604
3609.86,661.16
3611.31,653.808
3612.76,645.971
3614.21,651.216
3615.66,652.072
3617.11,660.311
3618.56,641.693
3620.01,656.208
3621.46,671.228
3622.92,669.048
3624.37,656.277
3625.82,642.557
3627.27,655.212
3628.72,658.227
3630.17,650.135
3631.62,654.033
3633.07,645.24
3634.52,664.586
3635.97,644.14
3637.42,659.492
3638.87,661.672
3640.32,682.418
3641.77,657.87
3643.22,646.897
3644.67,671.013
3646.12,653.967
3647.57,669.39
3649.02,665.478
3650.47,660.382
3651.92,676.079
3653.37,668.16
3654.82,662.587
3656.27,661.216
3657.72,659.493
3659.17,658.849
3660.62,669.659
3662.07,669.184
3663.52,669.482
3664.97,660.75
3666.43,667.613
3667.88,687.75
3669.33,673.62
3670.78,672.448
3672.23,671.981
3673.68,678.298
3675.13,672.628
3676.58,668.12
3678.03,662.909
3679.48,664.603
3680.93,679.498
3682.38,674.6
3683.83,675.183
3685.28,662.575
3686.73,687.007
3688.18,675.513
3689.63,679.095
3691.08,670.767
3692.53,673.769
3693.98,677.042
3695.43,659.179
3696.88,682.747
3698.33,703.449
3699.78,683.762
3701.23,680.224
3702.68,678.434
3704.13,670.185
3705.58,669.371
3707.03,679.413
3708.48,671.054
3709.93,677.858
3711.39,682.356
3712.84,679.399
3714.29,696.579
3715.74,688.366
3717.19,686.383
3718.64,678.393
3720.09,685.243
3721.54,685.115
3722.99,689.67
3724.44,699.807
3725.89,694.046
3727.34,708.969
3728.79,705.172
3730.24,689.926
3731.69,682.565
3733.14,685.044
3734.59,681.601
3736.04,692.065
3737.49,682.331
3738.94,685.955
3740.39,686.647
3741.84,707.135
3743.29,708.997
3744.74,690.697
3746.19,696.755
3747.64,701.012
3749.09,695.921
3750.54,706.811
3751.99,704.333
3753.44,691.976
3754.89,700.587
3756.35,696.549
3757.8,695.14
3759.25,698.345
3760.7,692.184
3762.15,724.082
3763.6,709.533
3765.05,712.284
3766.5,710.957
3767.95,695.269
3769.4,708.135
3770.85,693.128
3772.3,705.711
3773.75,705.622
3775.2,710.463
3776.65,715.19
3778.1,718.859
3779.55,701.712
3781,701.965
3782.45,727.518
3783.9,715.499
3785.35,714.873
3786.8,718.366
3788.25,717.4
3789.7,739.972
3791.15,726.858
3792.6,709.403
3794.05,708.355
3795.5,724.368
3796.95,728.108
3798.4,704.797
3799.85,723.696
3801.31,726.699
3802.76,716.768
3804.21,716.808
3805.66,724.646
3807.11,724.614
3808.56,713.481
3810.01,710.301
3811.46,730.815
3812.91,715.717
3814.36,719.997
3815.81,743.093
3817.26,729.057
3818.71,734.2
3820.16,741.929
3821.61,733.992
3823.06,733.616
3824.51,729.694
3825.96,729.104
3827.41,727.939
3828.86,740.298
3830.31,738.287
3831.76,739.617
3833.21,752.325
3834.66,725.792
3836.11,724.088
3837.56,720.051
3839.01,732.721
3840.46,734.649
3841.91,740.58
3843.36,747.559
3844.82,739.416
3846.27,751.802
3847.72,749.833
3849.17,749.835
3850.62,752.033
3852.07,746.265
3853.52,743.352
3854.97,750.453
3856.42,732.356
3857.87,766.432
3859.32,755.832
3860.77,765.255
3862.22,749.562
3863.67,751.561
3865.12,738.168
3866.57,762.33
3868.02,757.237
3869.47,756.765
3870.92,769.247
3872.37,744.538
3873.82,768.024
3875.27,763.956
3876.72,771.278
3878.17,769.404
3879.62,753.426
3881.07,758.526
3882.52,777.237
3883.97,765.095
3885.42,775.018
3886.87,769.58
3888.32,768.651
3889.78,776.436
3891.23,776.733
3892.68,761.195
3894.13,761.195
3895.58,761.975
3897.03,781.135
3898.48,784.498
3899.93,788.279
3901.38,778.46
3902.83,789.575
3904.28,796.205
3905.73,781.94
3907.18,792.216
3908.63,786.679
3910.08,772.825
3911.53,782.147
3912.98,803.352
3914.43,789.223
3915.88,799.847
3917.33,795.56
3918.78,800.027
3920.23,787.689
3921.68,809.851
3923.13,790.108
3924.58,795.562
3926.03,811.732
3927.48,813.863
3928.93,792.337
3930.38,805.261
3931.83,830.484
3933.28,801.78
3934.74,821.572
3936.19,830.33
3937.64,823.348
3939.09,813.161
3940.54,798.487
3941.99,818.819
3943.44,827.15
3944.89,809.682
3946.34,810.538
3947.79,817.052
3949.24,806.723
3950.69,842.858
3952.14,827.892
3953.59,810.965
3955.04,834.722
3956.49,845.611
3957.94,832.938
3959.39,840.404
3960.84,865.29
3962.29,825.237
3963.74,852.48
3965.19,820.507
3966.64,857.792
3968.09,859.737
3969.54,848.759
3970.99,844.715
3972.44,841.421
3973.89,847.677
3975.34,860.536
3976.79,823.13
3978.25,861.214
3979.7,869.528
3981.15,851.148
3982.6,870.352
3984.05,874.267
3985.5,844.174
3986.95,872.572
3988.4,894.318
3989.85,867.518
3991.3,867.454
3992.75,870.852
3994.2,858.986
3995.65,874.041
3997.1,858.268
3998.55,882.129
4000,867.381
