0.1,36.9715
1.45033,36.9715
2.90065,36.9715
4.35098,36.9715
5.80131,36.9715
7.25163,30.5014
8.70196,68.8232
10.1523,47.3958
11.6026,37.1023
13.0529,32.1964
14.5033,28.3984
15.9536,24.8545
17.4039,22.6182
18.8542,20.984
20.3046,21.6891
21.7549,21.63
23.2052,19.0387
24.6555,16.552
26.1059,16.9446
27.5562,16.443
29.0065,14.7991
30.4569,12.8119
31.9072,10.9455
33.3575,11.4149
34.8078,12.0102
36.2582,11.787
37.7085,11.1645
39.1588,11.461
40.6091,9.73832
42.0595,7.80104
43.5098,7.69489
44.9601,10.0624
46.4104,11.507
47.8608,14.6008
49.3111,19.1447
50.7614,23.5207
52.2117,37.7368
53.6621,69.2603
55.1124,117.625
56.5627,184.17
58.0131,276.504
59.4634,360.814
60.9137,439.957
62.364,509.767
63.8144,567.143
65.2647,620.215
66.715,649.255
68.1653,666.692
69.6157,679.695
71.066,694.616
72.5163,695.487
73.9666,695.537
75.417,693.606
76.8673,689.75
78.3176,686.003
79.7679,701.318
81.2183,721.238
82.6686,743.28
84.1189,764.979
85.5693,777.493
87.0196,785.878
88.4699,781.057
89.9202,771.509
91.3706,770.404
92.8209,741.724
94.2712,727.984
95.7215,714.778
97.1719,695.518
98.6222,668.827
100.073,656.021
101.523,649.624
102.973,638.095
104.423,615.759
105.874,588.544
107.324,591.216
108.774,582.036
110.225,567.806
111.675,559.826
113.125,557.315
114.576,550.879
116.026,541.464
117.476,531.523
118.927,523.193
120.377,500.053
121.827,494.657
123.278,495.939
124.728,492.768
126.178,472.029
127.629,457.428
129.079,447.825
130.529,439.195
131.98,431.261
133.43,429.5
134.88,423.331
136.331,420.532
137.781,416.417
139.231,410.149
140.682,413.799
142.132,398.168
143.582,385.165
145.033,379.942
146.483,381.757
147.933,373.693
149.384,366.278
150.834,352.18
152.284,339.799
153.735,340.431
155.185,349.761
156.635,329.598
158.086,329.126
159.536,335.315
160.986,311.166
162.437,312.68
163.887,314.493
165.337,319.463
166.788,321.404
168.238,308.138
169.688,312.31
171.139,311.598
172.589,307.934
174.039,304.202
175.489,304.582
176.94,296.472
178.39,292.046
179.84,294.361
181.291,298.212
182.741,286.578
184.191,277.128
185.642,273.246
187.092,268.492
188.542,262.849
189.993,268.551
191.443,269.694
192.893,268.652
194.344,267.085
195.794,266.507
197.244,268.407
198.695,271.135
200.145,266.528
201.595,262.677
203.046,263.634
204.496,260.085
205.946,271.023
207.397,271.228
208.847,268.379
210.297,267.833
211.748,258.827
213.198,259.916
214.648,256.973
216.099,252.143
217.549,247.956
218.999,242.497
220.45,237.843
221.9,231.755
223.35,231.66
224.801,240.925
226.251,248.802
227.701,245.994
229.152,244.548
230.602,242.489
232.052,237.269
233.503,228.868
234.953,242.251
236.403,239.985
237.854,235.76
239.304,238.128
240.754,229.593
242.204,226.744
243.655,230.94
245.105,227.747
246.555,217.572
248.006,235.145
249.456,229.526
250.906,229.722
252.357,229.402
253.807,225.213
255.257,223.044
256.708,230.326
258.158,230.386
259.608,230.102
261.059,231.91
262.509,230.76
263.959,218.311
265.41,217.477
266.86,224.666
268.31,231.446
269.761,225.514
271.211,226.792
272.661,220.131
274.112,218.565
275.562,224.167
277.012,229.997
278.463,219.124
279.913,220.091
281.363,216.863
282.814,210.935
284.264,211.396
285.714,209.603
287.165,208.344
288.615,208.861
290.065,207.864
291.516,202.334
292.966,199.644
294.416,205.667
295.867,204.866
297.317,201.725
298.767,200.911
300.218,192.842
301.668,198.838
303.118,200.598
304.569,202.904
306.019,205.465
307.469,192.633
308.919,197.836
310.37,196.204
311.82,194.15
313.27,191.939
314.721,181.611
316.171,176.858
317.621,173.602
319.072,179.385
320.522,184.627
321.972,173.114
323.423,177.999
324.873,179.778
326.323,179.397
327.774,177.47
329.224,176.112
330.674,184.859
332.125,181.438
333.575,178.581
335.025,178.689
336.476,180.364
337.926,177.661
339.376,179.145
340.827,177.745
342.277,174.032
343.727,174.509
345.178,189.661
346.628,172.393
348.078,169.115
349.529,170.297
350.979,170.704
352.429,169.215
353.88,176.695
355.33,170.781
356.78,170.065
358.231,173.132
359.681,173.936
361.131,166.838
362.582,168.616
364.032,171.859
365.482,174.479
366.933,173.684
368.383,166.142
369.833,167.564
371.284,160.667
372.734,161.858
374.184,166.724
375.635,164.007
377.085,166.593
378.535,168.496
379.986,169.886
381.436,170.666
382.886,170.924
384.336,171.183
385.787,169.056
387.237,169.454
388.687,167.739
390.138,164.108
391.588,162.865
393.038,164.289
394.489,165.498
395.939,166.109
397.389,168.726
398.84,172.583
400.29,163.51
401.74,163.662
403.191,163.148
404.641,169.503
406.091,175.857
407.542,161.262
408.992,167.23
410.442,166.64
411.893,163.794
413.343,163.772
414.793,168.897
416.244,170.584
417.694,162.806
419.144,161.235
420.595,157.876
422.045,155.196
423.495,169.264
424.946,173.293
426.396,161.365
427.846,155.378
429.297,157.666
430.747,162.661
432.197,167.218
433.648,158.952
435.098,155.341
436.548,160.912
437.999,167.606
439.449,158.682
440.899,165.842
442.35,160.572
443.8,160.719
445.25,161.434
446.701,157.437
448.151,164.22
449.601,161.906
451.051,157.532
452.502,158.609
453.952,163.645
455.402,164.784
456.853,164.131
458.303,155.783
459.753,160.095
461.204,164.988
462.654,161.055
464.104,157.546
465.555,163.682
467.005,161.507
468.455,160.046
469.906,158.884
471.356,155.56
472.806,160.791
474.257,158.891
475.707,159.19
477.157,159.074
478.608,161.634
480.058,173.513
481.508,163.183
482.959,163.338
484.409,159.189
485.859,158.463
487.31,164.26
488.76,160.08
490.21,163.222
491.661,156.136
493.111,156.583
494.561,162.283
496.012,163.187
497.462,159.65
498.912,158.576
500.363,152.678
501.813,152.975
503.263,159.661
504.714,163.069
506.164,157.955
507.614,152.719
509.065,151.023
510.515,152.128
511.965,154.423
513.416,156.282
514.866,153.392
516.316,152.708
517.766,159.071
519.217,159.844
520.667,150.508
522.117,151.837
523.568,155.915
525.018,158.419
526.468,159.281
527.919,157.521
529.369,153.031
530.819,149.082
532.27,151.761
533.72,151.751
535.17,154.849
536.621,160.159
538.071,161.298
539.521,148.796
540.972,155.535
542.422,160.2
543.872,159.53
545.323,156.114
546.773,155.034
548.223,156.748
549.674,155.696
551.124,158.02
552.574,160.382
554.025,161.503
555.475,162.4
556.925,156.856
558.376,159.447
559.826,158.273
561.276,155.68
562.727,155.148
564.177,157.79
565.627,158.979
567.078,157.261
568.528,151.382
569.978,154.933
571.429,162.42
572.879,149.146
574.329,151.658
575.78,152.091
577.23,152.223
578.68,154.04
580.131,156.201
581.581,154.642
583.031,158.614
584.482,153.349
585.932,155.457
587.382,157.676
588.832,156.418
590.283,158.131
591.733,159.721
593.183,165.614
594.634,161.125
596.084,157.125
597.534,157.932
598.985,155.708
600.435,156.636
601.885,161.926
603.336,161.434
604.786,156.673
606.236,153.756
607.687,157.428
609.137,150.127
610.587,154.724
612.038,152.371
613.488,154.369
614.938,159.823
616.389,157.212
617.839,155.883
619.289,147.032
620.74,156.204
622.19,162.566
623.64,158.921
625.091,153.946
626.541,160.738
627.991,157.971
629.442,156.302
630.892,157.912
632.342,161.036
633.793,162.015
635.243,157.888
636.693,161.679
638.144,158.095
639.594,163.548
641.044,164.394
642.495,153.844
643.945,160.727
645.395,166.192
646.846,162.802
648.296,164.583
649.746,166.618
651.197,165.588
652.647,167.146
654.097,168.214
655.547,167.384
656.998,163.142
658.448,160.256
659.898,158.363
661.349,155.281
662.799,167.166
664.249,168.36
665.7,166.476
667.15,168.566
668.6,170.429
670.051,165.884
671.501,161.367
672.951,170.459
674.402,171.49
675.852,167.413
677.302,169.945
678.753,176.561
680.203,164.689
681.653,171.924
683.104,175.848
684.554,174.394
686.004,170.709
687.455,169.391
688.905,172.787
690.355,173.993
691.806,176.096
693.256,171.642
694.706,171.163
696.157,172.447
697.607,170.903
699.057,172.543
700.508,175.093
701.958,182.425
703.408,180.968
704.859,176.472
706.309,175.328
707.759,176.376
709.21,169.128
710.66,167.02
712.11,172.242
713.561,170.885
715.011,169.861
716.461,176.721
717.912,171.289
719.362,168.868
720.812,171.443
722.263,172.085
723.713,176.735
725.163,182.264
726.613,176.687
728.064,173.593
729.514,176.841
730.964,175.956
732.415,174.688
733.865,174.476
735.315,174.107
736.766,172.183
738.216,183.237
739.666,179.892
741.117,173.9
742.567,174.531
744.017,175.239
745.468,166.54
746.918,176.392
748.368,175.269
749.819,170.564
751.269,173.982
752.719,175.54
754.17,170.532
755.62,172.357
757.07,181.138
758.521,178.972
759.971,170.631
761.421,171.504
762.872,176.534
764.322,174.858
765.772,172.385
767.223,177.795
768.673,182.847
770.123,175.53
771.574,172.056
773.024,176.825
774.474,178.922
775.925,170.4
777.375,175.545
778.825,178.449
780.276,177.606
781.726,176.86
783.176,176.068
784.627,172.384
786.077,178.754
787.527,178.58
788.978,175.376
790.428,181.816
791.878,184.968
793.328,180.75
794.779,186.082
796.229,178.483
797.68,182.347
799.13,181.231
800.58,180.084
802.03,181.188
803.481,185.242
804.931,191.94
806.381,182.432
807.832,186.923
809.282,182.522
810.732,179.686
812.183,180.814
813.633,182.448
815.083,183.693
816.534,185.189
817.984,185.448
819.434,188.107
820.885,186.095
822.335,185.35
823.785,189.447
825.236,184.309
826.686,181.313
828.136,188.823
829.587,184.881
831.037,186.765
832.487,195.718
833.938,198.57
835.388,186.213
836.838,193.437
838.289,198.544
839.739,191.196
841.189,191.139
842.64,196.894
844.09,199.172
845.54,199.884
846.991,194.153
848.441,194.121
849.891,195.574
851.342,195.954
852.792,199.297
854.242,202.852
855.693,193.422
857.143,180.717
858.593,195.682
860.044,200.866
861.494,200.824
862.944,197.802
864.394,196.039
865.845,200.709
867.295,200.572
868.745,199.362
870.196,201.947
871.646,196.33
873.096,192.434
874.547,192.194
875.997,188.571
877.447,193.203
878.898,190.19
880.348,200.043
881.798,202.143
883.249,200.013
884.699,199.297
886.149,200.198
887.6,197.969
889.05,187.675
890.5,196.119
891.951,198.148
893.401,197.055
894.851,198.143
896.302,200.473
897.752,198.052
899.202,196.954
900.653,205.021
902.103,202.261
903.553,204.906
905.004,205.336
906.454,206.035
907.904,217.653
909.355,220.518
910.805,218.592
912.255,214.495
913.706,203.441
915.156,202.708
916.606,207.18
918.057,208.112
919.507,214.876
920.957,198.346
922.408,204.889
923.858,216.123
925.308,216.509
926.759,212.145
928.209,214.713
929.659,224.15
931.109,219.626
932.56,219.626
934.01,221.329
935.46,224.268
936.911,215.837
938.361,212.079
939.811,220.798
941.262,217.677
942.712,227.47
944.162,222.48
945.613,222.783
947.063,212.863
948.513,210.191
949.964,217.827
951.414,220.118
952.864,212.707
954.315,217.817
955.765,223.445
957.215,222.775
958.666,221.155
960.116,219.518
961.566,218.038
963.017,216.847
964.467,210.834
965.917,218.311
967.368,218.289
968.818,219.268
970.268,215.098
971.719,211.317
973.169,213.686
974.619,217.679
976.07,221.5
977.52,217.069
978.97,226.949
980.421,224.673
981.871,224.373
983.321,223.452
984.772,219.199
986.222,226.325
987.672,215.917
989.123,224.19
990.573,220.927
992.023,221.742
993.474,222.273
994.924,220.871
996.374,221.422
997.825,224.587
999.275,219.862
1000.73,227.023
1002.18,225.517
1003.63,230.562
1005.08,234.936
1006.53,236.713
1007.98,237.714
1009.43,233.593
1010.88,229.836
1012.33,232.264
1013.78,245.727
1015.23,242.416
1016.68,239.3
1018.13,241.831
1019.58,242.893
1021.03,241.698
1022.48,238.408
1023.93,251.925
1025.38,250.64
1026.83,258.525
1028.28,255.712
1029.73,250.692
1031.18,253.24
1032.63,249.827
1034.08,250.984
1035.53,253.495
1036.98,269.687
1038.43,272.939
1039.88,269.342
1041.33,270.663
1042.78,272.575
1044.23,266.901
1045.69,277.347
1047.14,273.714
1048.59,271.381
1050.04,275.58
1051.49,274.556
1052.94,277.09
1054.39,284.776
1055.84,288.13
1057.29,286.286
1058.74,292.861
1060.19,295.736
1061.64,292.387
1063.09,300.133
1064.54,305.781
1065.99,307.19
1067.44,310.582
1068.89,316.571
1070.34,326.483
1071.79,322
1073.24,317.896
1074.69,311.768
1076.14,313.755
1077.59,320.482
1079.04,325.07
1080.49,325.991
1081.94,324.604
1083.39,313.241
1084.84,334.021
1086.29,332.182
1087.74,323.226
1089.2,326.273
1090.65,329.95
1092.1,324.027
1093.55,320.463
1095,319.414
1096.45,315.34
1097.9,314.018
1099.35,315.942
1100.8,314.922
1102.25,318.841
1103.7,312.114
1105.15,299.741
1106.6,325.354
1108.05,322.775
1109.5,308.829
1110.95,307.952
1112.4,306.558
1113.85,308.762
1115.3,311.376
1116.75,309.478
1118.2,304.831
1119.65,303.514
1121.1,295.807
1122.55,308.77
1124,298.484
1125.45,295.217
1126.9,300.455
1128.35,300.039
1129.8,297.733
1131.25,300.742
1132.7,289.819
1134.16,299.834
1135.61,304.209
1137.06,292.225
1138.51,292.004
1139.96,289.009
1141.41,288.082
1142.86,288.341
1144.31,284.747
1145.76,292.401
1147.21,289.123
1148.66,283.039
1150.11,292.013
1151.56,287.661
1153.01,279.516
1154.46,280.399
1155.91,284.339
1157.36,284.565
1158.81,292.639
1160.26,290.886
1161.71,274.45
1163.16,289.49
1164.61,286.376
1166.06,285.552
1167.51,289.291
1168.96,289.237
1170.41,285.038
1171.86,284.126
1173.31,281.676
1174.76,278.699
1176.21,284.73
1177.66,282.671
1179.12,282.365
1180.57,284.004
1182.02,286.328
1183.47,286.714
1184.92,286.155
1186.37,294.158
1187.82,286.483
1189.27,291.452
1190.72,289.785
1192.17,287.334
1193.62,286.483
1195.07,281.508
1196.52,281.768
1197.97,292.917
1199.42,296.057
1200.87,293.15
1202.32,295.57
1203.77,280.293
1205.22,289.682
1206.67,290.826
1208.12,283.865
1209.57,284.684
1211.02,289.866
1212.47,288.939
1213.92,295.817
1215.37,287.217
1216.82,296.058
1218.27,293.672
1219.72,300.545
1221.17,299.647
1222.63,293.839
1224.08,294.366
1225.53,296.925
1226.98,289.31
1228.43,285.522
1229.88,303.007
1231.33,290.438
1232.78,305.236
1234.23,300.035
1235.68,304.827
1237.13,308.771
1238.58,309.555
1240.03,310.689
1241.48,309.008
1242.93,319.674
1244.38,309.246
1245.83,299.947
1247.28,306.121
1248.73,321.581
1250.18,320.013
1251.63,312.021
1253.08,313.756
1254.53,319.466
1255.98,319.01
1257.43,328.06
1258.88,333.245
1260.33,324.647
1261.78,331.61
1263.23,335.034
1264.68,330.865
1266.13,333.738
1267.59,343.203
1269.04,351.574
1270.49,353.909
1271.94,349.363
1273.39,364.974
1274.84,360.519
1276.29,360.464
1277.74,370.379
1279.19,370.247
1280.64,378.93
1282.09,385.835
1283.54,392.393
1284.99,403.681
1286.44,405.373
1287.89,410.825
1289.34,398.697
1290.79,424.869
1292.24,434.765
1293.69,437.317
1295.14,449.217
1296.59,464.489
1298.04,471.595
1299.49,479.264
1300.94,498.235
1302.39,510.873
1303.84,512.398
1305.29,521.472
1306.74,539.283
1308.19,548.596
1309.64,567.835
1311.09,592.841
1312.55,614.726
1314,630.96
1315.45,650.647
1316.9,674.823
1318.35,686.536
1319.8,715.604
1321.25,725.418
1322.7,732.723
1324.15,768.53
1325.6,767.952
1327.05,764.465
1328.5,764.135
1329.95,769.083
1331.4,781.063
1332.85,787.561
1334.3,782.029
1335.75,782.943
1337.2,756.632
1338.65,750.541
1340.1,727.311
1341.55,724.827
1343,708.775
1344.45,683.424
1345.9,672.111
1347.35,666.343
1348.8,642.497
1350.25,610.84
1351.7,588.959
1353.15,584.132
1354.6,588.768
1356.06,570.859
1357.51,533.993
1358.96,514.383
1360.41,512.454
1361.86,508.003
1363.31,499.972
1364.76,495.636
1366.21,484.111
1367.66,459.46
1369.11,454.488
1370.56,461.897
1372.01,450.281
1373.46,449.418
1374.91,440.353
1376.36,444.143
1377.81,439.249
1379.26,427.589
1380.71,421.513
1382.16,421.907
1383.61,426.064
1385.06,415.452
1386.51,400.864
1387.96,415.405
1389.41,416.762
1390.86,424.786
1392.31,423.153
1393.76,410.005
1395.21,414.426
1396.66,412.817
1398.11,408.412
1399.56,424.096
1401.02,426.835
1402.47,424.501
1403.92,421.791
1405.37,427.771
1406.82,431.354
1408.27,431.15
1409.72,421.916
1411.17,434.171
1412.62,438.084
1414.07,424.704
1415.52,422.644
1416.97,434.87
1418.42,437.49
1419.87,447.51
1421.32,447.816
1422.77,451.316
1424.22,438.743
1425.67,445.284
1427.12,466.577
1428.57,455.413
1430.02,454.732
1431.47,462.163
1432.92,463.794
1434.37,466.596
1435.82,473.977
1437.27,481.981
1438.72,500.335
1440.17,488.321
1441.62,483.048
1443.07,492.509
1444.53,483.887
1445.98,497.813
1447.43,511.648
1448.88,517.302
1450.33,511.374
1451.78,510.002
1453.23,525.178
1454.68,539.933
1456.13,540.044
1457.58,544.414
1459.03,551.439
1460.48,562.302
1461.93,549.638
1463.38,576.418
1464.83,586.234
1466.28,586.056
1467.73,593.184
1469.18,602.881
1470.63,618.626
1472.08,638.73
1473.53,650.31
1474.98,654.687
1476.43,661.718
1477.88,676.887
1479.33,668.464
1480.78,698.078
1482.23,712.167
1483.68,723.493
1485.13,751.576
1486.58,761.098
1488.03,767.349
1489.49,793.825
1490.94,816.159
1492.39,823.699
1493.84,838.385
1495.29,858.776
1496.74,897.39
1498.19,913.855
1499.64,948.824
1501.09,944.841
1502.54,1006.8
1503.99,1048.83
1505.44,1080.05
1506.89,1125.52
1508.34,1170.95
1509.79,1215.58
1511.24,1267.05
1512.69,1327.72
1514.14,1397.5
1515.59,1471.8
1517.04,1546.3
1518.49,1626.87
1519.94,1716.46
1521.39,1844.05
1522.84,1983.12
1524.29,2099.96
1525.74,2228.85
1527.19,2428.77
1528.64,2614.46
1530.09,2792.47
1531.54,3007.59
1532.99,3253.59
1534.45,3527.44
1535.9,3824.11
1537.35,4103.5
1538.8,4432.2
1540.25,4724.63
1541.7,5105.1
1543.15,5490.01
1544.6,5942.13
1546.05,6264.58
1547.5,6614.9
1548.95,6989.8
1550.4,7404.98
1551.85,7745.58
1553.3,7757.91
1554.75,7770.61
1556.2,7792.84
1557.65,7811.9
1559.1,7825.87
1560.55,7875.42
1562,7851.28
1563.45,7845.12
1564.9,7841.57
1566.35,7826.89
1567.8,7766.29
1569.25,7381.92
1570.7,6952.83
1572.15,6517.9
1573.6,6091.1
1575.05,5674.59
1576.5,5247.19
1577.96,4827.55
1579.41,4456.52
1580.86,4124.56
1582.31,3795.03
1583.76,3473.35
1585.21,3242.29
1586.66,2994.76
1588.11,2804.36
1589.56,2605.36
1591.01,2436.44
1592.46,2267.01
1593.91,2143.99
1595.36,2004.7
1596.81,1898.59
1598.26,1804.06
1599.71,1701.52
1601.16,1616.16
1602.61,1537.08
1604.06,1456.01
1605.51,1385.46
1606.96,1322.86
1608.41,1255.7
1609.86,1219.32
1611.31,1164.04
1612.76,1105.87
1614.21,1080.74
1615.66,1036.66
1617.11,993.943
1618.56,958.81
1620.01,932.003
1621.46,910.006
1622.92,878.296
1624.37,845.798
1625.82,816.089
1627.27,802.788
1628.72,789.397
1630.17,757.103
1631.62,739.806
1633.07,741.07
1634.52,717.872
1635.97,718.043
1637.42,705.834
1638.87,676.494
1640.32,668.998
1641.77,664.774
1643.22,654.54
1644.67,640.941
1646.12,628.743
1647.57,624.351
1649.02,613.686
1650.47,602.411
1651.92,596.807
1653.37,596.954
1654.82,591.284
1656.27,595.31
1657.72,579.229
1659.17,576.158
1660.62,559.102
1662.07,551.598
1663.52,541.676
1664.97,547.16
1666.42,531.845
1667.88,532.497
1669.33,519.037
1670.78,510.542
1672.23,521.473
1673.68,521.911
1675.13,517.294
1676.58,509.813
1678.03,509.46
1679.48,513.508
1680.93,504.351
1682.38,491.495
1683.83,499.089
1685.28,485.357
1686.73,477.618
1688.18,468.899
1689.63,473.035
1691.08,484.705
1692.53,482.235
1693.98,469.012
1695.43,471.111
1696.88,477.694
1698.33,475.1
1699.78,471.776
1701.23,469.741
1702.68,473.093
1704.13,465.238
1705.58,471.195
1707.03,464.054
1708.48,472.739
1709.93,449.254
1711.39,453.853
1712.84,471.383
1714.29,458.804
1715.74,452.097
1717.19,457.764
1718.64,464.727
1720.09,458.798
1721.54,463.177
1722.99,463.564
1724.44,453.851
1725.89,458.165
1727.34,460.443
1728.79,450.033
1730.24,454.784
1731.69,453.859
1733.14,451.766
1734.59,442.865
1736.04,461.02
1737.49,447.391
1738.94,435.637
1740.39,431.708
1741.84,427.184
1743.29,426.56
1744.74,434.867
1746.19,435.152
1747.64,437.134
1749.09,425.93
1750.54,433.109
1751.99,426.847
1753.44,411.721
1754.89,416.336
1756.35,421.512
1757.8,413.272
1759.25,416.146
1760.7,420.101
1762.15,405.296
1763.6,411.203
1765.05,408.996
1766.5,411.881
1767.95,403.384
1769.4,400.885
1770.85,397.673
1772.3,408.468
1773.75,392.592
1775.2,403.855
1776.65,391.427
1778.1,390.034
1779.55,393.937
1781,389.267
1782.45,394.054
1783.9,396.055
1785.35,394.956
1786.8,394.5
1788.25,400.478
1789.7,395.074
1791.15,388.82
1792.6,392.308
1794.05,382.91
1795.5,384.091
1796.95,388.755
1798.4,398.202
1799.85,400.476
1801.31,389.24
1802.76,378.83
1804.21,381.729
1805.66,389.194
1807.11,388.737
1808.56,375.152
1810.01,379.421
1811.46,370.276
1812.91,368.326
1814.36,382.805
1815.81,383.745
1817.26,383.141
1818.71,373.764
1820.16,372.341
1821.61,377.382
1823.06,376.517
1824.51,380.206
1825.96,383.274
1827.41,383.143
1828.86,384.891
1830.31,383.414
1831.76,388.562
1833.21,389.896
1834.66,380.007
1836.11,390.015
1837.56,382.255
1839.01,383
1840.46,389.626
1841.91,387.966
1843.36,400.609
1844.82,393.439
1846.27,388.843
1847.72,386.484
1849.17,397.575
1850.62,390.97
1852.07,403.816
1853.52,390.557
1854.97,392.901
1856.42,397.1
1857.87,400.618
1859.32,402.174
1860.77,398.541
1862.22,388.87
1863.67,391.029
1865.12,394.726
1866.57,398.469
1868.02,398.011
1869.47,389.872
1870.92,392.104
1872.37,397.551
1873.82,398.812
1875.27,402.383
1876.72,392.157
1878.17,385.711
1879.62,386.992
1881.07,390.837
1882.52,393.527
1883.97,386.131
1885.42,389.893
1886.87,379.428
1888.32,387.103
1889.78,393.736
1891.23,369.065
1892.68,374.147
1894.13,374.142
1895.58,377.236
1897.03,375.417
1898.48,379.18
1899.93,371.023
1901.38,366.652
1902.83,367.566
1904.28,369.23
1905.73,365.37
1907.18,372.902
1908.63,370.804
1910.08,377.858
1911.53,372.309
1912.98,362.413
1914.43,367.901
1915.88,369.315
1917.33,366.212
1918.78,366.642
1920.23,367.146
1921.68,366.397
1923.13,361.909
1924.58,363.728
1926.03,366.217
1927.48,363.805
1928.93,369.754
1930.38,362.669
1931.83,372.707
1933.29,357.82
1934.74,363.906
1936.19,363.37
1937.64,357.93
1939.09,360.989
1940.54,359.614
1941.99,369.466
1943.44,360.89
1944.89,364.127
1946.34,365.524
1947.79,367.228
1949.24,356.354
1950.69,369.151
1952.14,372.017
1953.59,378.053
1955.04,382.001
1956.49,367.855
1957.94,370.833
1959.39,368.196
1960.84,359.312
1962.29,375.386
1963.74,369.447
1965.19,376.136
1966.64,378.169
1968.09,367.659
1969.54,366.595
1970.99,365.274
1972.44,367.561
1973.89,372.172
1975.34,378.084
1976.79,385.505
1978.25,386.37
1979.7,381.763
1981.15,380.453
1982.6,383.84
1984.05,384.97
1985.5,377.418
1986.95,375.563
1988.4,381.38
1989.85,377.269
1991.3,381.066
1992.75,381.765
1994.2,374.044
1995.65,383.558
1997.1,370.886
1998.55,374.091
2000,371.537
2001.45,379.674
2002.9,381.299
2004.35,390.157
2005.8,383.867
2007.25,375.586
2008.7,378.677
2010.15,375.23
2011.6,369.491
2013.05,365.623
2014.5,367.147
2015.95,374.341
2017.4,370.245
2018.85,366.897
2020.3,376.674
2021.75,382.279
2023.21,383.5
2024.66,378.568
2026.11,360.394
2027.56,386.907
2029.01,364.456
2030.46,369.473
2031.91,359.987
2033.36,373.708
2034.81,356.151
2036.26,383.864
2037.71,363.341
2039.16,369.599
2040.61,367.54
2042.06,355.22
2043.51,368.92
2044.96,368.583
2046.41,353.281
2047.86,353.483
2049.31,370.613
2050.76,351.027
2052.21,353.143
2053.66,347.287
2055.11,352.768
2056.56,360.282
2058.01,360.196
2059.46,357.874
2060.91,348.661
2062.36,346.858
2063.81,349.357
2065.26,349.567
2066.72,354.31
2068.17,352.76
2069.62,348.379
2071.07,354.763
2072.52,346.352
2073.97,347.074
2075.42,349.291
2076.87,350.123
2078.32,358.443
2079.77,355.239
2081.22,350.029
2082.67,343.204
2084.12,345.64
2085.57,346.814
2087.02,341.359
2088.47,346.44
2089.92,347.012
2091.37,347.414
2092.82,345.24
2094.27,348.746
2095.72,350.635
2097.17,347.292
2098.62,349.019
2100.07,341.867
2101.52,350.473
2102.97,351.671
2104.42,346.923
2105.87,351.126
2107.32,353.318
2108.77,354.302
2110.22,357.396
2111.68,359.666
2113.13,358.532
2114.58,352.308
2116.03,349.298
2117.48,349.42
2118.93,353.454
2120.38,357.944
2121.83,355.67
2123.28,357.745
2124.73,361.413
2126.18,362.265
2127.63,360.277
2129.08,358.855
2130.53,362.56
2131.98,364.043
2133.43,353.875
2134.88,355.647
2136.33,363.856
2137.78,358.847
2139.23,357.486
2140.68,359.309
2142.13,360.768
2143.58,370.31
2145.03,366.586
2146.48,364.611
2147.93,364.648
2149.38,364.35
2150.83,371.112
2152.28,368.665
2153.73,369.216
2155.18,372.846
2156.64,372.756
2158.09,368.611
2159.54,377.119
2160.99,376.073
2162.44,373.933
2163.89,382.287
2165.34,379.064
2166.79,377.17
2168.24,375.333
2169.69,376.584
2171.14,379.62
2172.59,375.598
2174.04,378.659
2175.49,388.778
2176.94,384.067
2178.39,387.447
2179.84,389.358
2181.29,385.606
2182.74,381.52
2184.19,385.786
2185.64,380.745
2187.09,380.796
2188.54,379.975
2189.99,381.911
2191.44,381.993
2192.89,383.221
2194.34,387.601
2195.79,394.679
2197.24,386.36
2198.69,389.944
2200.15,387.058
2201.6,388.007
2203.05,380.956
2204.5,382.514
2205.95,389.516
2207.4,392.248
2208.85,387.926
2210.3,390.323
2211.75,397.279
2213.2,406.29
2214.65,390.943
2216.1,400.618
2217.55,399.249
2219,390.612
2220.45,399.729
2221.9,398.371
2223.35,400.861
2224.8,406.567
2226.25,414.155
2227.7,399.044
2229.15,405.765
2230.6,412.711
2232.05,401.218
2233.5,396.964
2234.95,391.737
2236.4,410.351
2237.85,415.67
2239.3,404.323
2240.75,407.82
2242.2,411.203
2243.65,399.821
2245.11,411.853
2246.56,418.248
2248.01,413.642
2249.46,408.14
2250.91,418.521
2252.36,418.636
2253.81,430.738
2255.26,419.483
2256.71,412.02
2258.16,419.164
2259.61,429.27
2261.06,422.181
2262.51,411.222
2263.96,420.154
2265.41,431.044
2266.86,424.413
2268.31,432.372
2269.76,428.112
2271.21,422.134
2272.66,433.141
2274.11,431.157
2275.56,424.26
2277.01,428.654
2278.46,429.69
2279.91,429.69
2281.36,427.51
2282.81,437.454
2284.26,441.087
2285.71,436.495
2287.16,430.589
2288.61,440.345
2290.07,445.34
2291.52,452.851
2292.97,449.33
2294.42,451.218
2295.87,450.723
2297.32,443.068
2298.77,445.095
2300.22,446.984
2301.67,437.417
2303.12,455.844
2304.57,457.729
2306.02,456.919
2307.47,445.323
2308.92,450.592
2310.37,466.464
2311.82,463.405
2313.27,457.706
2314.72,450.187
2316.17,458.815
2317.62,459.655
2319.07,485.804
2320.52,475.695
2321.97,470.388
2323.42,485.982
2324.87,475.716
2326.32,480.753
2327.77,485.634
2329.22,482.272
2330.67,481.988
2332.12,492.883
2333.57,493.414
2335.03,500.93
2336.48,481.446
2337.93,490.621
2339.38,499.975
2340.83,499.263
2342.28,507.134
2343.73,508.624
2345.18,505.852
2346.63,515.53
2348.08,507.756
2349.53,508.064
2350.98,526.868
2352.43,527.866
2353.88,535.441
2355.33,533.879
2356.78,536.276
2358.23,548.332
2359.68,547.396
2361.13,541.224
2362.58,543.182
2364.03,561.103
2365.48,563.075
2366.93,590.322
2368.38,561.027
2369.83,574.478
2371.28,572.378
2372.73,593.343
2374.18,596.827
2375.63,604.262
2377.08,614.39
2378.54,617.361
2379.99,625.227
2381.44,635.081
2382.89,640.019
2384.34,644.04
2385.79,644.612
2387.24,657.323
2388.69,662.983
2390.14,676.227
2391.59,692.869
2393.04,691.193
2394.49,681.099
2395.94,689.604
2397.39,714.162
2398.84,738.942
2400.29,725.329
2401.74,742.328
2403.19,743.547
2404.64,765.735
2406.09,775.714
2407.54,760.895
2408.99,767.183
2410.44,774.444
2411.89,766.313
2413.34,788.838
2414.79,800.964
2416.24,789.276
2417.69,781.666
2419.14,791.074
2420.59,788.844
2422.04,767.679
2423.5,782.333
2424.95,790.229
2426.4,777.525
2427.85,769.077
2429.3,773.644
2430.75,780.911
2432.2,780.244
2433.65,770.83
2435.1,753.958
2436.55,770.734
2438,757.795
2439.45,757.852
2440.9,764.598
2442.35,754.028
2443.8,755.54
2445.25,743.858
2446.7,755.737
2448.15,745.719
2449.6,739.78
2451.05,729.63
2452.5,734.279
2453.95,719.663
2455.4,736.871
2456.85,721.766
2458.3,722.147
2459.75,729.02
2461.2,732.126
2462.65,724.554
2464.1,724.37
2465.55,718.653
2467.01,717.834
2468.46,721.67
2469.91,721.785
2471.36,718.069
2472.81,721.302
2474.26,724.872
2475.71,717.275
2477.16,730.125
2478.61,733.841
2480.06,743.382
2481.51,739.761
2482.96,740.396
2484.41,725.494
2485.86,743.306
2487.31,751.913
2488.76,748.686
2490.21,745.103
2491.66,742.95
2493.11,741.965
2494.56,749.518
2496.01,736.973
2497.46,735.588
2498.91,743.306
2500.36,745.275
2501.81,740.778
2503.26,762.153
2504.71,764.554
2506.16,773.11
2507.61,788.565
2509.06,759.917
2510.51,796.912
2511.97,783.21
2513.42,791.468
2514.87,802.629
2516.32,813.243
2517.77,812.303
2519.22,817.715
2520.67,832.592
2522.12,839.706
2523.57,852.544
2525.02,850.448
2526.47,859.868
2527.92,864.308
2529.37,850.619
2530.82,871.562
2532.27,889.723
2533.72,884.718
2535.17,891.375
2536.62,906.404
2538.07,929.888
2539.52,916.815
2540.97,943.768
2542.42,946.899
2543.87,989.065
2545.32,996.268
2546.77,992.019
2548.22,1014.44
2549.67,1027.6
2551.12,1037.55
2552.57,1039.31
2554.02,1062.93
2555.48,1085.41
2556.93,1113.31
2558.38,1126.8
2559.83,1139.33
2561.28,1157.68
2562.73,1200.29
2564.18,1213.32
2565.63,1236.13
2567.08,1266.49
2568.53,1282.88
2569.98,1319.42
2571.43,1368.13
2572.88,1394.02
2574.33,1393.1
2575.78,1436.87
2577.23,1474.74
2578.68,1504.81
2580.13,1547.41
2581.58,1582.06
2583.03,1610.54
2584.48,1657.08
2585.93,1697.16
2587.38,1731.16
2588.83,1799.62
2590.28,1867.67
2591.73,1938.02
2593.18,1961.72
2594.63,2013.59
2596.08,2085.82
2597.53,2141.42
2598.98,2235.59
2600.44,2299.19
2601.89,2383.3
2603.34,2468.65
2604.79,2540.52
2606.24,2637.03
2607.69,2703.36
2609.14,2814.69
2610.59,2871.61
2612.04,2990.38
2613.49,3069.9
2614.94,3192.42
2616.39,3289.43
2617.84,3363.4
2619.29,3468.37
2620.74,3567.11
2622.19,3666.86
2623.64,3793.57
2625.09,3855.39
2626.54,3952.9
2627.99,4051.6
2629.44,4168.51
2630.89,4277.22
2632.34,4378.13
2633.79,4452.95
2635.24,4585.35
2636.69,4614.8
2638.14,4686.83
2639.59,4781.89
2641.04,4810.4
2642.49,4871.1
2643.94,4906.31
2645.4,4920.49
2646.85,4941.26
2648.3,4951.93
2649.75,4918.04
2651.2,4924.97
2652.65,4863.98
2654.1,4887.62
2655.55,4817.61
2657,4775.26
2658.45,4693.9
2659.9,4611.89
2661.35,4526.73
2662.8,4452.39
2664.25,4348.95
2665.7,4286.79
2667.15,4211.14
2668.6,4079.85
2670.05,3996.16
2671.5,3903.14
2672.95,3737.87
2674.4,3671.89
2675.85,3558.85
2677.3,3429.76
2678.75,3335.92
2680.2,3262.76
2681.65,3110.78
2683.1,3024.78
2684.55,2922.95
2686,2846.69
2687.45,2742.02
2688.91,2630.18
2690.36,2536.55
2691.81,2459.76
2693.26,2378.79
2694.71,2257.79
2696.16,2188.72
2697.61,2159.96
2699.06,2049.98
2700.51,1997.64
2701.96,1963.81
2703.41,1891.64
2704.86,1804.59
2706.31,1754.97
2707.76,1681.62
2709.21,1657.94
2710.66,1605.15
2712.11,1546.59
2713.56,1507.5
2715.01,1481.88
2716.46,1434.72
2717.91,1400.69
2719.36,1356.75
2720.81,1335.89
2722.26,1309.8
2723.71,1265.61
2725.16,1226.02
2726.61,1202.38
2728.06,1186.19
2729.51,1169.08
2730.96,1138.9
2732.41,1099.72
2733.87,1100.26
2735.32,1062.78
2736.77,1051.72
2738.22,1032.51
2739.67,1019.34
2741.12,1005.47
2742.57,973.413
2744.02,964.622
2745.47,963.389
2746.92,933.992
2748.37,934.461
2749.82,910.088
2751.27,912.616
2752.72,887.475
2754.17,890.543
2755.62,868.158
2757.07,845.753
2758.52,839.84
2759.97,836.302
2761.42,815.746
2762.87,809.73
2764.32,813.199
2765.77,800.081
2767.22,771.395
2768.67,800.907
2770.12,781.133
2771.57,775.867
2773.02,764.852
2774.47,766.364
2775.92,762.286
2777.38,749.671
2778.83,748.984
2780.28,738.884
2781.73,732.799
2783.18,721.962
2784.63,722.928
2786.08,716.576
2787.53,693.771
2788.98,705.326
2790.43,712.898
2791.88,702.626
2793.33,693.009
2794.78,682.179
2796.23,680.305
2797.68,687.108
2799.13,677.891
2800.58,678.634
2802.03,669.856
2803.48,664.78
2804.93,671.494
2806.38,660.734
2807.83,647.667
2809.28,652.609
2810.73,644.987
2812.18,650.755
2813.63,651.199
2815.08,656.484
2816.53,639.079
2817.98,644.174
2819.43,651.193
2820.88,639.384
2822.33,629.603
2823.79,635.196
2825.24,627.478
2826.69,621.865
2828.14,617.695
2829.59,619.03
2831.04,628.169
2832.49,632.74
2833.94,604.111
2835.39,602.505
2836.84,604.366
2838.29,599.076
2839.74,599.079
2841.19,602.788
2842.64,613.408
2844.09,611.152
2845.54,604.219
2846.99,600.727
2848.44,599.071
2849.89,590.124
2851.34,599.876
2852.79,593.369
2854.24,586.778
2855.69,595.147
2857.14,609.638
2858.59,593.645
2860.04,585.628
2861.49,594.013
2862.94,582.255
2864.39,583.697
2865.84,596.457
2867.3,593.431
2868.75,592.261
2870.2,592.128
2871.65,581.501
2873.1,585.552
2874.55,597.641
2876,591.695
2877.45,593.521
2878.9,594.902
2880.35,591.453
2881.8,578.191
2883.25,583.063
2884.7,584.072
2886.15,583.963
2887.6,582.36
2889.05,576.914
2890.5,586.392
2891.95,591.923
2893.4,586.507
2894.85,590.053
2896.3,589.781
2897.75,581.393
2899.2,580.094
2900.65,579.253
2902.1,575.566
2903.55,573.13
2905,573.781
2906.45,575.504
2907.9,577.125
2909.35,572.139
2910.8,561.922
2912.26,561.468
2913.71,567.119
2915.16,547.595
2916.61,570.337
2918.06,562.188
2919.51,549.5
2920.96,561.819
2922.41,559.212
2923.86,557.811
2925.31,552.905
2926.76,544.313
2928.21,540.448
2929.66,539.116
2931.11,536.054
2932.56,530.143
2934.01,542.083
2935.46,530.982
2936.91,530.978
2938.36,528.797
2939.81,522.594
2941.26,516.85
2942.71,521.723
2944.16,524.073
2945.61,522.236
2947.06,521.401
2948.51,523.3
2949.96,511.82
2951.41,510.355
2952.86,518.661
2954.31,509.801
2955.77,506.394
2957.22,512.905
2958.67,507.067
2960.12,498.807
2961.57,522.176
2963.02,505.837
2964.47,503.503
2965.92,501.548
2967.37,504.57
2968.82,503.192
2970.27,507.79
2971.72,495.388
2973.17,496.795
2974.62,496.222
2976.07,490.595
2977.52,491.063
2978.97,495.155
2980.42,490.231
2981.87,498.154
2983.32,502.419
2984.77,496.663
2986.22,488.499
2987.67,494.049
2989.12,498.116
2990.57,500.664
2992.02,495.657
2993.47,487.507
2994.92,491.878
2996.37,500.356
2997.82,498.112
2999.27,502.821
3000.73,485.22
3002.18,496.127
3003.63,486.633
3005.08,493.035
3006.53,490.577
3007.98,478.735
3009.43,476.363
3010.88,482.807
3012.33,491.168
3013.78,501.623
3015.23,479.588
3016.68,488.185
3018.13,481.075
3019.58,487.853
3021.03,488.908
3022.48,480.439
3023.93,490.726
3025.38,500.168
3026.83,485.562
3028.28,492.105
3029.73,504.923
3031.18,506.229
3032.63,497.735
3034.08,506.721
3035.53,509.395
3036.98,479.426
3038.43,500.795
3039.88,503.507
3041.33,499.71
3042.78,498.775
3044.23,491.61
3045.69,491.489
3047.14,488.382
3048.59,498.817
3050.04,505.61
3051.49,491.443
3052.94,490.048
3054.39,500.177
3055.84,508.673
3057.29,505.976
3058.74,498.086
3060.19,510.518
3061.64,516.71
3063.09,520.581
3064.54,523.637
3065.99,521.3
3067.44,508.131
3068.89,519.117
3070.34,528.851
3071.79,544.179
3073.24,521.012
3074.69,532.9
3076.14,531.97
3077.59,535.503
3079.04,551.453
3080.49,550.615
3081.94,562.095
3083.39,557.632
3084.84,571.275
3086.29,562.82
3087.74,568.225
3089.2,571.058
3090.65,580.671
3092.1,584.172
3093.55,586.741
3095,584.719
3096.45,588.706
3097.9,597.972
3099.35,611.989
3100.8,617.856
3102.25,611.686
3103.7,630.421
3105.15,634.26
3106.6,627.299
3108.05,643.151
3109.5,630.693
3110.95,642.973
3112.4,646.308
3113.85,665.447
3115.3,662.487
3116.75,669.976
3118.2,664.945
3119.65,675.636
3121.1,680.451
3122.55,682.039
3124,685.654
3125.45,682.903
3126.9,689.973
3128.35,700.746
3129.8,691.129
3131.25,692.33
3132.7,703.02
3134.16,697.761
3135.61,697.532
3137.06,709.887
3138.51,692.291
3139.96,703.547
3141.41,707.778
3142.86,699.577
3144.31,712.675
3145.76,712.898
3147.21,715.216
3148.66,704.818
3150.11,703.922
3151.56,693.339
3153.01,700.2
3154.46,712.695
3155.91,717.198
3157.36,724.668
3158.81,732.767
3160.26,710.954
3161.71,724.503
3163.16,732.12
3164.61,730.29
3166.06,722.966
3167.51,744.379
3168.96,738.637
3170.41,738.052
3171.86,749.308
3173.31,755.33
3174.76,759.415
3176.21,746.456
3177.67,758.614
3179.12,753.653
3180.57,764.478
3182.02,782.41
3183.47,772.17
3184.92,755.985
3186.37,767.457
3187.82,764.071
3189.27,751.557
3190.72,768.473
3192.17,754.378
3193.62,749.41
3195.07,745.669
3196.52,744.297
3197.97,726.631
3199.42,697.087
3200.87,711.494
3202.32,705.675
3203.77,694.845
3205.22,694
3206.67,683.64
3208.12,675.922
3209.57,661.68
3211.02,645.431
3212.47,659.984
3213.92,637.612
3215.37,619.804
3216.82,620.684
3218.27,608.089
3219.72,596.316
3221.17,597.656
3222.63,593.128
3224.08,591.819
3225.53,581.608
3226.98,577.236
3228.43,549.684
3229.88,567.09
3231.33,553.123
3232.78,538.735
3234.23,527.271
3235.68,532.047
3237.13,529.436
3238.58,527.629
3240.03,511.826
3241.48,504.788
3242.93,508.549
3244.38,514.984
3245.83,511.815
3247.28,513.095
3248.73,500.618
3250.18,505.444
3251.63,503.352
3253.08,502.793
3254.53,496.091
3255.98,477.949
3257.43,488.248
3258.88,488.014
3260.33,483.121
3261.78,482.677
3263.23,480.509
3264.68,491.703
3266.13,484.761
3267.59,473.483
3269.04,480.17
3270.49,488.689
3271.94,484.809
3273.39,471.545
3274.84,480.204
3276.29,475.489
3277.74,472.184
3279.19,484.138
3280.64,470.591
3282.09,476.96
3283.54,471.886
3284.99,478.364
3286.44,475.175
3287.89,470.798
3289.34,481.679
3290.79,481.747
3292.24,465.337
3293.69,485.319
3295.14,484.633
3296.59,476.515
3298.04,472.539
3299.49,471.352
3300.94,467.403
3302.39,474.246
3303.84,463.343
3305.29,470.372
3306.74,482.407
3308.19,473.417
3309.64,464.856
3311.09,468.95
3312.55,478.156
3314,475.029
3315.45,459.119
3316.9,466.637
3318.35,478.322
3319.8,461.1
3321.25,476.928
3322.7,467.693
3324.15,470.902
3325.6,476.877
3327.05,478.376
3328.5,465.806
3329.95,475.962
3331.4,481.314
3332.85,465.886
3334.3,461.827
3335.75,466.967
3337.2,470.423
3338.65,468.45
3340.1,470.038
3341.55,474.884
3343,474.243
3344.45,467.733
3345.9,473.045
3347.35,465.636
3348.8,458.19
3350.25,474.381
3351.7,469.143
3353.15,467.574
3354.6,474.126
3356.06,467.163
3357.51,471.304
3358.96,471.179
3360.41,467.393
3361.86,468.633
3363.31,465.015
3364.76,465.61
3366.21,469.936
3367.66,472.362
3369.11,472.917
3370.56,483.379
3372.01,479.67
3373.46,495.112
3374.91,474.582
3376.36,473.135
3377.81,469.218
3379.26,474.498
3380.71,463.453
3382.16,475.832
3383.61,471.892
3385.06,483.328
3386.51,475.44
3387.96,467.992
3389.41,457.048
3390.86,471.23
3392.31,475.071
3393.76,467.507
3395.21,474.474
3396.66,474.296
3398.11,486.408
3399.56,480.615
3401.02,481.483
3402.47,477.803
3403.92,468.454
3405.37,460.056
3406.82,479.917
3408.27,465.05
3409.72,468.527
3411.17,475.041
3412.62,476.912
3414.07,475.289
3415.52,478.486
3416.97,467.963
3418.42,479.266
3419.87,468.906
3421.32,471.684
3422.77,475.963
3424.22,482.366
3425.67,485.791
3427.12,488.218
3428.57,485.145
3430.02,475.081
3431.47,481.133
3432.92,485.777
3434.37,470.299
3435.82,478.694
3437.27,480.21
3438.72,478.886
3440.17,481.186
3441.62,472.509
3443.07,473.859
3444.52,479.228
3445.98,456.606
3447.43,483.475
3448.88,482.287
3450.33,478.632
3451.78,476.959
3453.23,481.312
3454.68,481.503
3456.13,479.306
3457.58,479.494
3459.03,474.861
3460.48,471.578
3461.93,491.068
3463.38,482.662
3464.83,487.374
3466.28,492.546
3467.73,492.909
3469.18,486.381
3470.63,478.94
3472.08,486.047
3473.53,494.281
3474.98,489.576
3476.43,471.071
3477.88,493.578
3479.33,490.9
3480.78,491.165
3482.23,484.431
3483.68,497.334
3485.13,466.755
3486.58,486.795
3488.03,495.81
3489.49,491.466
3490.94,477.552
3492.39,479.158
3493.84,485.488
3495.29,494.896
3496.74,494.708
3498.19,481.404
3499.64,489.79
3501.09,488.919
3502.54,496.464
3503.99,486.61
3505.44,489.04
3506.89,494.201
3508.34,498.125
3509.79,489.697
3511.24,492.73
3512.69,492.615
3514.14,489.53
3515.59,510.559
3517.04,495.92
3518.49,499.079
3519.94,498.095
3521.39,492.657
3522.84,500.399
3524.29,498.616
3525.74,496.945
3527.19,505.235
3528.64,488.826
3530.09,496.629
3531.54,501.002
3532.99,508.095
3534.45,504.669
3535.9,483.476
3537.35,499.923
3538.8,498.621
3540.25,495.822
3541.7,496.441
3543.15,492.881
3544.6,506.688
3546.05,494.156
3547.5,494.508
3548.95,499.881
3550.4,505.785
3551.85,501.63
3553.3,496.775
3554.75,489.883
3556.2,488.52
3557.65,501.518
3559.1,491.382
3560.55,497.786
3562,498.357
3563.45,498.942
3564.9,492.153
3566.35,501.224
3567.8,510.925
3569.25,504.284
3570.7,508.646
3572.15,505.373
3573.6,497.909
3575.05,495.176
3576.5,498.59
3577.96,502.545
3579.41,512.168
3580.86,499.842
3582.31,507.504
3583.76,509.248
3585.21,502.973
3586.66,496.679
3588.11,504.897
3589.56,507.028
3591.01,502.896
3592.46,522.103
3593.91,489.109
3595.36,490.835
3596.81,499.227
3598.26,509.63
3599.71,506.744
3601.16,504.399
3602.61,504.773
3604.06,509.978
3605.51,506.271
3606.96,515.754
3608.41,508.043
3609.86,520.285
3611.31,514.499
3612.76,508.333
3614.21,512.459
3615.66,513.133
3617.11,519.617
3618.56,504.966
3620.01,516.388
3621.46,528.208
3622.92,526.492
3624.37,516.442
3625.82,505.646
3627.27,515.605
3628.72,517.977
3630.17,511.609
3631.62,514.676
3633.07,507.757
3634.52,522.981
3635.97,506.891
3637.42,518.972
3638.87,520.688
3640.32,537.013
3641.77,517.696
3643.22,509.061
3644.67,528.039
3646.12,514.625
3647.57,526.761
3649.02,523.683
3650.47,519.673
3651.92,532.025
3653.37,525.793
3654.82,521.408
3656.27,520.329
3657.72,518.973
3659.17,518.467
3660.62,526.973
3662.07,526.599
3663.52,526.834
3664.97,519.963
3666.43,525.363
3667.88,541.209
3669.33,530.09
3670.78,529.168
3672.23,528.8
3673.68,533.772
3675.13,529.309
3676.58,525.762
3678.03,521.661
3679.48,522.994
3680.93,534.716
3682.38,530.861
3683.83,531.32
3685.28,521.398
3686.73,540.625
3688.18,531.579
3689.63,534.399
3691.08,527.845
3692.53,530.208
3693.98,532.783
3695.43,518.726
3696.88,537.272
3698.33,553.564
3699.78,538.071
3701.23,535.287
3702.68,533.878
3704.13,527.387
3705.58,526.746
3707.03,534.649
3708.48,528.071
3709.93,533.425
3711.39,536.965
3712.84,534.638
3714.29,548.157
3715.74,541.694
3717.19,540.133
3718.64,533.846
3720.09,539.236
3721.54,539.136
3722.99,542.72
3724.44,550.697
3725.89,546.164
3727.34,557.907
3728.79,554.919
3730.24,542.922
3731.69,537.129
3733.14,539.08
3734.59,536.37
3736.04,544.605
3737.49,536.945
3738.94,539.797
3740.39,540.342
3741.84,556.464
3743.29,557.929
3744.74,543.529
3746.19,548.296
3747.64,551.645
3749.09,547.639
3750.54,556.209
3751.99,554.259
3753.44,544.535
3754.89,551.311
3756.35,548.134
3757.8,547.025
3759.25,549.547
3760.7,544.699
3762.15,569.8
3763.6,558.351
3765.05,560.516
3766.5,559.471
3767.95,547.126
3769.4,557.251
3770.85,545.441
3772.3,555.344
3773.75,555.273
3775.2,559.083
3776.65,562.803
3778.1,565.69
3779.55,552.197
3781,552.396
3782.45,572.504
3783.9,563.046
3785.35,562.553
3786.8,565.302
3788.25,564.542
3789.7,582.304
3791.15,571.984
3792.6,558.248
3794.05,557.424
3795.5,570.025
3796.95,572.968
3798.4,554.624
3799.85,569.496
3801.31,571.859
3802.76,564.044
3804.21,564.076
3805.66,570.244
3807.11,570.219
3808.56,561.458
3810.01,558.956
3811.46,575.098
3812.91,563.217
3814.36,566.585
3815.81,584.761
3817.26,573.715
3818.71,577.762
3820.16,583.844
3821.61,577.599
3823.06,577.302
3824.51,574.217
3825.96,573.752
3827.41,572.835
3828.86,582.561
3830.31,580.979
3831.76,582.025
3833.21,592.025
3834.66,571.146
3836.11,569.804
3837.56,566.628
3839.01,576.598
3840.46,578.116
3841.91,582.783
3843.36,588.275
3844.82,581.867
3846.27,591.614
3847.72,590.064
3849.17,590.066
3850.62,591.796
3852.07,587.256
3853.52,584.964
3854.97,590.552
3856.42,576.311
3857.87,603.126
3859.32,594.785
3860.77,602.201
3862.22,589.851
3863.67,591.424
3865.12,580.884
3866.57,599.898
3868.02,595.891
3869.47,595.519
3870.92,605.341
3872.37,585.898
3873.82,604.379
3875.27,601.178
3876.72,606.94
3878.17,605.465
3879.62,592.891
3881.07,596.905
3882.52,611.629
3883.97,602.074
3885.42,609.883
3886.87,605.603
3888.32,604.873
3889.78,610.999
3891.23,611.233
3892.68,599.005
3894.13,599.005
3895.58,599.619
3897.03,614.696
3898.48,617.343
3899.93,620.318
3901.38,612.591
3902.83,621.338
3904.28,626.555
3905.73,615.33
3907.18,623.417
3908.63,619.059
3910.08,608.158
3911.53,615.493
3912.98,632.18
3914.43,621.061
3915.88,629.421
3917.33,626.048
3918.78,629.563
3920.23,619.854
3921.68,637.294
3923.13,621.757
3924.58,626.05
3926.03,638.774
3927.48,640.451
3928.93,623.511
3930.38,633.682
3931.83,653.531
3933.28,630.943
3934.74,646.518
3936.19,653.41
3937.64,647.915
3939.09,639.899
3940.54,628.352
3941.99,644.352
3943.44,650.907
3944.89,637.161
3946.34,637.834
3947.79,642.96
3949.24,634.832
3950.69,663.268
3952.14,651.491
3953.59,638.171
3955.04,656.865
3956.49,665.434
3957.94,655.462
3959.39,661.337
3960.84,680.921
3962.29,649.402
3963.74,670.84
3965.19,645.679
3966.64,675.02
3968.09,676.551
3969.54,667.912
3970.99,664.729
3972.44,662.138
3973.89,667.061
3975.34,677.18
3976.79,647.744
3978.25,677.713
3979.7,684.256
3981.15,669.792
3982.6,684.904
3984.05,687.985
3985.5,664.304
3986.95,686.651
3988.4,703.763
3989.85,682.674
3991.3,682.623
3992.75,685.298
3994.2,675.96
3995.65,687.807
3997.1,675.395
3998.55,694.172
4000,682.566
