0.2,39.5956
1.45033,39.5956
2.90065,39.5956
4.35098,39.5956
5.80131,39.5956
7.25163,32.6663
8.70196,73.7082
10.1523,50.7598
11.6026,39.7357
13.0529,34.4816
14.5033,30.4141
15.9536,26.6187
17.4039,24.2236
18.8542,22.4734
20.3046,23.2286
21.7549,23.1652
23.2052,20.3901
24.6555,17.7269
26.1059,18.1473
27.5562,17.6101
29.0065,15.8495
30.4569,13.7213
31.9072,11.7224
33.3575,12.2251
34.8078,12.8626
36.2582,12.6236
37.7085,11.9569
39.1588,12.2744
40.6091,10.4295
42.0595,8.35474
43.5098,8.24106
44.9601,10.7766
46.4104,12.3237
47.8608,15.6372
49.3111,20.5036
50.7614,25.1902
52.2117,40.4153
53.6621,74.1762
55.1124,125.974
56.5627,197.242
58.0131,296.129
59.4634,386.424
60.9137,471.184
62.364,545.95
63.8144,607.398
65.2647,664.236
66.715,695.338
68.1653,714.013
69.6157,727.939
71.066,743.919
72.5163,744.851
73.9666,744.905
75.417,742.837
76.8673,738.708
78.3176,734.694
79.7679,751.096
81.2183,772.43
82.6686,796.037
84.1189,819.276
85.5693,832.678
87.0196,841.658
88.4699,836.495
89.9202,826.27
91.3706,825.086
92.8209,794.37
94.2712,779.655
95.7215,765.512
97.1719,744.885
98.6222,716.299
100.073,702.584
101.523,695.733
102.973,683.385
104.423,659.465
105.874,630.318
107.324,633.18
108.774,623.348
110.225,608.108
111.675,599.561
113.125,596.873
114.576,589.979
116.026,579.896
117.476,569.249
118.927,560.328
120.377,535.546
121.827,529.767
123.278,531.14
124.728,527.743
126.178,505.533
127.629,489.895
129.079,479.611
130.529,470.368
131.98,461.871
133.43,459.985
134.88,453.378
136.331,450.381
137.781,445.973
139.231,439.26
140.682,443.17
142.132,426.429
143.582,412.503
145.033,406.909
146.483,408.853
147.933,400.217
149.384,392.276
150.834,377.177
152.284,363.917
153.735,364.594
155.185,374.586
156.635,352.993
158.086,352.487
159.536,359.115
160.986,333.251
162.437,334.873
163.887,336.816
165.337,342.138
166.788,344.217
168.238,330.009
169.688,334.477
171.139,333.715
172.589,329.791
174.039,325.794
175.489,326.201
176.94,317.515
178.39,312.775
179.84,315.254
181.291,319.379
182.741,306.919
184.191,296.798
185.642,292.64
187.092,287.549
188.542,281.506
189.993,287.612
191.443,288.837
192.893,287.72
194.344,286.042
195.794,285.423
197.244,287.458
198.695,290.38
200.145,285.445
201.595,281.322
203.046,282.346
204.496,278.546
205.946,290.26
207.397,290.479
208.847,287.428
210.297,286.843
211.748,277.198
213.198,278.364
214.648,275.212
216.099,270.04
217.549,265.555
218.999,259.709
220.45,254.725
221.9,248.204
223.35,248.103
224.801,258.026
226.251,266.462
227.701,263.454
229.152,261.905
230.602,259.701
232.052,254.11
233.503,245.113
234.953,259.446
236.403,257.019
237.854,252.493
239.304,255.03
240.754,245.889
242.204,242.838
243.655,247.331
245.105,243.912
246.555,233.015
248.006,251.836
249.456,245.818
250.906,246.027
252.357,245.684
253.807,241.198
255.257,238.875
256.708,246.674
258.158,246.738
259.608,246.435
261.059,248.371
262.509,247.139
263.959,233.807
265.41,232.913
266.86,240.613
268.31,247.874
269.761,241.52
271.211,242.89
272.661,235.755
274.112,234.078
275.562,240.078
277.012,246.322
278.463,234.677
279.913,235.713
281.363,232.256
282.814,225.907
284.264,226.4
285.714,224.48
287.165,223.132
288.615,223.686
290.065,222.618
291.516,216.696
292.966,213.815
294.416,220.265
295.867,219.407
297.317,216.043
298.767,215.171
300.218,206.53
301.668,212.951
303.118,214.836
304.569,217.305
306.019,220.048
307.469,206.306
308.919,211.878
310.37,210.13
311.82,207.93
313.27,205.562
314.721,194.501
316.171,189.411
317.621,185.924
319.072,192.117
320.522,197.732
321.972,185.402
323.423,190.633
324.873,192.538
326.323,192.13
327.774,190.067
329.224,188.612
330.674,197.98
332.125,194.316
333.575,191.256
335.025,191.372
336.476,193.166
337.926,190.271
339.376,191.86
340.827,190.361
342.277,186.384
343.727,186.896
345.178,203.122
346.628,184.629
348.078,181.119
349.529,182.384
350.979,182.82
352.429,181.226
353.88,189.237
355.33,182.903
356.78,182.136
358.231,185.421
359.681,186.282
361.131,178.68
362.582,180.584
364.032,184.057
365.482,186.863
366.933,186.011
368.383,177.934
369.833,179.457
371.284,172.071
372.734,173.347
374.184,178.557
375.635,175.648
377.085,178.418
378.535,180.456
379.986,181.944
381.436,182.779
382.886,183.056
384.336,183.333
385.787,181.055
387.237,181.481
388.687,179.644
390.138,175.756
391.588,174.425
393.038,175.95
394.489,177.244
395.939,177.899
397.389,180.702
398.84,184.832
400.29,175.116
401.74,175.278
403.191,174.728
404.641,181.534
406.091,188.339
407.542,172.708
408.992,179.099
410.442,178.467
411.893,175.42
413.343,175.396
414.793,180.885
416.244,182.692
417.694,174.361
419.144,172.679
420.595,169.081
422.045,166.212
423.495,181.278
424.946,185.593
426.396,172.819
427.846,166.406
429.297,168.857
430.747,174.206
432.197,179.087
433.648,170.234
435.098,166.367
436.548,172.333
437.999,179.503
439.449,169.945
440.899,177.614
442.35,171.969
443.8,172.127
445.25,172.892
446.701,168.612
448.151,175.876
449.601,173.398
451.051,168.713
452.502,169.867
453.952,175.26
455.402,176.48
456.853,175.781
458.303,166.84
459.753,171.458
461.204,176.698
462.654,172.486
464.104,168.728
465.555,175.299
467.005,172.971
468.455,171.405
469.906,170.162
471.356,166.601
472.806,172.204
474.257,170.169
475.707,170.489
477.157,170.365
478.608,173.106
480.058,185.829
481.508,174.765
482.959,174.931
484.409,170.488
485.859,169.71
487.31,175.919
488.76,171.442
490.21,174.807
491.661,167.218
493.111,167.697
494.561,173.802
496.012,174.769
497.462,170.981
498.912,169.831
500.363,163.515
501.813,163.833
503.263,170.993
504.714,174.643
506.164,169.166
507.614,163.559
509.065,161.742
510.515,162.925
511.965,165.383
513.416,167.374
514.866,164.279
516.316,163.547
517.766,170.362
519.217,171.19
520.667,161.191
522.117,162.614
523.568,166.981
525.018,169.663
526.468,170.586
527.919,168.702
529.369,163.893
530.819,159.664
532.27,162.533
533.72,162.522
535.17,165.84
536.621,171.526
538.071,172.746
539.521,159.357
540.972,166.575
542.422,171.571
543.872,170.854
545.323,167.195
546.773,166.038
548.223,167.874
549.674,166.747
551.124,169.236
552.574,171.765
554.025,172.967
555.475,173.927
556.925,167.989
558.376,170.764
559.826,169.507
561.276,166.729
562.727,166.16
564.177,168.989
565.627,170.263
567.078,168.423
568.528,162.127
569.978,165.929
571.429,173.948
572.879,159.732
574.329,162.423
575.78,162.886
577.23,163.028
578.68,164.974
580.131,167.288
581.581,165.619
583.031,169.872
584.482,164.233
585.932,166.491
587.382,168.867
588.832,167.521
590.283,169.355
591.733,171.058
593.183,177.369
594.634,172.562
596.084,168.278
597.534,169.141
598.985,166.759
600.435,167.754
601.885,173.419
603.336,172.892
604.786,167.793
606.236,164.67
607.687,168.602
609.137,160.782
610.587,165.706
612.038,163.186
613.488,165.326
614.938,171.166
616.389,168.37
617.839,166.947
619.289,157.468
620.74,167.291
622.19,174.105
623.64,170.2
625.091,164.873
626.541,172.147
627.991,169.183
629.442,167.396
630.892,169.12
632.342,172.466
633.793,173.514
635.243,169.094
636.693,173.155
638.144,169.317
639.594,175.156
641.044,176.062
642.495,164.764
643.945,172.135
645.395,177.988
646.846,174.358
648.296,176.265
649.746,178.444
651.197,177.341
652.647,179.01
654.097,180.153
655.547,179.265
656.998,174.722
658.448,171.631
659.898,169.604
661.349,166.302
662.799,179.031
664.249,180.31
665.7,178.292
667.15,180.53
668.6,182.526
670.051,177.659
671.501,172.82
672.951,182.557
674.402,183.662
675.852,179.295
677.302,182.008
678.753,189.093
680.203,176.378
681.653,184.127
683.104,188.329
684.554,186.773
686.004,182.825
687.455,181.414
688.905,185.051
690.355,186.343
691.806,188.594
693.256,183.825
694.706,183.312
696.157,184.687
697.607,183.034
699.057,184.79
700.508,187.521
701.958,195.373
703.408,193.813
704.859,188.997
706.309,187.772
707.759,188.895
709.21,181.132
710.66,178.874
712.11,184.467
713.561,183.014
715.011,181.917
716.461,189.265
717.912,183.447
719.362,180.854
720.812,183.611
722.263,184.299
723.713,189.28
725.163,195.201
726.613,189.228
728.064,185.915
729.514,189.392
730.964,188.445
732.415,187.087
733.865,186.86
735.315,186.464
736.766,184.404
738.216,196.243
739.666,192.661
741.117,186.243
742.567,186.919
744.017,187.677
745.468,178.361
746.918,188.911
748.368,187.709
749.819,182.67
751.269,186.33
752.719,187.999
754.17,182.636
755.62,184.59
757.07,193.995
758.521,191.675
759.971,182.742
761.421,183.677
762.872,189.064
764.322,187.269
765.772,184.62
767.223,190.414
768.673,195.825
770.123,187.989
771.574,184.268
773.024,189.376
774.474,191.622
775.925,182.494
777.375,188.005
778.825,191.115
780.276,190.212
781.726,189.413
783.176,188.565
784.627,184.619
786.077,191.442
787.527,191.255
788.978,187.824
790.428,194.721
791.878,198.096
793.328,193.579
794.779,199.29
796.229,191.152
797.68,195.29
799.13,194.095
800.58,192.866
802.03,194.048
803.481,198.39
804.931,205.564
806.381,195.38
807.832,200.19
809.282,195.477
810.732,192.44
812.183,193.648
813.633,195.398
815.083,196.731
816.534,198.333
817.984,198.611
819.434,201.459
820.885,199.303
822.335,198.506
823.785,202.893
825.236,197.391
826.686,194.182
828.136,202.226
829.587,198.004
831.037,200.021
832.487,209.61
833.938,212.664
835.388,199.43
836.838,207.167
838.289,212.636
839.739,204.767
841.189,204.705
842.64,210.87
844.09,213.309
845.54,214.072
846.991,207.934
848.441,207.899
849.891,209.456
851.342,209.862
852.792,213.443
854.242,217.25
855.693,207.151
857.143,193.544
858.593,209.571
860.044,215.124
861.494,215.078
862.944,211.842
864.394,209.953
865.845,214.955
867.295,214.809
868.745,213.512
870.196,216.281
871.646,210.266
873.096,206.093
874.547,205.836
875.997,201.956
877.447,206.916
878.898,203.689
880.348,214.241
881.798,216.49
883.249,214.209
884.699,213.443
886.149,214.408
887.6,212.021
889.05,200.996
890.5,210.039
891.951,212.213
893.401,211.041
894.851,212.206
896.302,214.702
897.752,212.109
899.202,210.934
900.653,219.573
902.103,216.617
903.553,219.45
905.004,219.911
906.454,220.659
907.904,233.101
909.355,236.169
910.805,234.107
912.255,229.719
913.706,217.881
915.156,217.096
916.606,221.885
918.057,222.884
919.507,230.127
920.957,212.424
922.408,219.432
923.858,231.463
925.308,231.877
926.759,227.203
928.209,229.953
929.659,240.059
931.109,235.215
932.56,235.215
934.01,237.039
935.46,240.186
936.911,231.157
938.361,227.132
939.811,236.469
941.262,233.127
942.712,243.615
944.162,238.271
945.613,238.595
947.063,227.972
948.513,225.11
949.964,233.288
951.414,235.742
952.864,227.804
954.315,233.277
955.765,239.305
957.215,238.587
958.666,236.852
960.116,235.099
961.566,233.514
963.017,232.238
964.467,225.799
965.917,233.806
967.368,233.783
968.818,234.831
970.268,230.365
971.719,226.316
973.169,228.853
974.619,233.13
976.07,237.221
977.52,232.476
978.97,243.057
980.421,240.62
981.871,240.298
983.321,239.312
984.772,234.757
986.222,242.389
987.672,231.242
989.123,240.103
990.573,236.608
992.023,237.481
993.474,238.05
994.924,236.548
996.374,237.138
997.825,240.527
999.275,235.467
1000.73,243.137
1002.18,241.523
1003.63,246.926
1005.08,251.611
1006.53,253.514
1007.98,254.586
1009.43,250.173
1010.88,246.149
1012.33,248.75
1013.78,263.169
1015.23,259.622
1016.68,256.285
1018.13,258.996
1019.58,260.133
1021.03,258.854
1022.48,255.33
1023.93,269.806
1025.38,268.429
1026.83,276.874
1028.28,273.862
1029.73,268.486
1031.18,271.215
1032.63,267.559
1034.08,268.798
1035.53,271.488
1036.98,288.829
1038.43,292.312
1039.88,288.459
1041.33,289.874
1042.78,291.922
1044.23,285.845
1045.69,297.033
1047.14,293.142
1048.59,290.643
1050.04,295.14
1051.49,294.044
1052.94,296.757
1054.39,304.989
1055.84,308.581
1057.29,306.606
1058.74,313.648
1060.19,316.726
1061.64,313.14
1063.09,321.436
1064.54,327.485
1065.99,328.993
1067.44,332.626
1068.89,339.04
1070.34,349.656
1071.79,344.855
1073.24,340.46
1074.69,333.896
1076.14,336.024
1077.59,343.229
1079.04,348.143
1080.49,349.129
1081.94,347.644
1083.39,335.475
1084.84,357.729
1086.29,355.759
1087.74,346.168
1089.2,349.431
1090.65,353.369
1092.1,347.026
1093.55,343.209
1095,342.085
1096.45,337.722
1097.9,336.307
1099.35,338.367
1100.8,337.275
1102.25,341.472
1103.7,334.267
1105.15,321.016
1106.6,348.447
1108.05,345.685
1109.5,330.749
1110.95,329.81
1112.4,328.317
1113.85,330.677
1115.3,333.477
1116.75,331.444
1118.2,326.467
1119.65,325.057
1121.1,316.802
1122.55,330.686
1124,319.67
1125.45,316.171
1126.9,321.781
1128.35,321.335
1129.8,318.865
1131.25,322.088
1132.7,310.39
1134.16,321.116
1135.61,325.801
1137.06,312.966
1138.51,312.729
1139.96,309.522
1141.41,308.53
1142.86,308.807
1144.31,304.958
1145.76,313.155
1147.21,309.644
1148.66,303.128
1150.11,312.74
1151.56,308.078
1153.01,299.355
1154.46,300.302
1155.91,304.521
1157.36,304.762
1158.81,313.41
1160.26,311.533
1161.71,293.93
1163.16,310.038
1164.61,306.703
1166.06,305.82
1167.51,309.825
1168.96,309.767
1170.41,305.269
1171.86,304.292
1173.31,301.668
1174.76,298.481
1176.21,304.939
1177.66,302.734
1179.12,302.407
1180.57,304.162
1182.02,306.651
1183.47,307.065
1184.92,306.465
1186.37,315.036
1187.82,306.817
1189.27,312.139
1190.72,310.354
1192.17,307.729
1193.62,306.817
1195.07,301.489
1196.52,301.767
1197.97,313.708
1199.42,317.07
1200.87,313.957
1202.32,316.549
1203.77,300.187
1205.22,310.244
1206.67,311.468
1208.12,304.013
1209.57,304.89
1211.02,310.44
1212.47,309.448
1213.92,316.813
1215.37,307.603
1216.82,317.072
1218.27,314.516
1219.72,321.877
1221.17,320.916
1222.63,314.696
1224.08,315.259
1225.53,318
1226.98,309.844
1228.43,305.788
1229.88,324.514
1231.33,311.052
1232.78,326.902
1234.23,321.331
1235.68,326.463
1237.13,330.687
1238.58,331.526
1240.03,332.741
1241.48,330.941
1242.93,342.364
1244.38,331.196
1245.83,321.237
1247.28,327.849
1248.73,344.406
1250.18,342.727
1251.63,334.167
1253.08,336.026
1254.53,342.141
1255.98,341.653
1257.43,351.345
1258.88,356.898
1260.33,347.69
1261.78,355.147
1263.23,358.815
1264.68,354.349
1266.13,357.426
1267.59,367.563
1269.04,376.528
1270.49,379.028
1271.94,374.16
1273.39,390.879
1274.84,386.108
1276.29,386.049
1277.74,396.668
1279.19,396.527
1280.64,405.826
1282.09,413.221
1283.54,420.244
1284.99,432.333
1286.44,434.146
1287.89,439.985
1289.34,426.996
1290.79,455.025
1292.24,465.624
1293.69,468.356
1295.14,481.101
1296.59,497.457
1298.04,505.068
1299.49,513.282
1300.94,533.599
1302.39,547.133
1303.84,548.767
1305.29,558.485
1306.74,577.56
1308.19,587.535
1309.64,608.138
1311.09,634.919
1312.55,658.358
1314,675.744
1315.45,696.828
1316.9,722.721
1318.35,735.265
1319.8,766.396
1321.25,776.907
1322.7,784.73
1324.15,823.079
1325.6,822.46
1327.05,818.725
1328.5,818.371
1329.95,823.671
1331.4,836.501
1332.85,843.461
1334.3,837.535
1335.75,838.515
1337.2,810.337
1338.65,803.813
1340.1,778.934
1341.55,776.274
1343,759.083
1344.45,731.932
1345.9,719.816
1347.35,713.639
1348.8,688.1
1350.25,654.196
1351.7,630.762
1353.15,625.592
1354.6,630.557
1356.06,611.377
1357.51,571.895
1358.96,550.893
1360.41,548.827
1361.86,544.06
1363.31,535.459
1364.76,530.815
1366.21,518.472
1367.66,492.071
1369.11,486.747
1370.56,494.682
1372.01,482.241
1373.46,481.316
1374.91,471.609
1376.36,475.668
1377.81,470.427
1379.26,457.939
1380.71,451.431
1382.16,451.854
1383.61,456.305
1385.06,444.94
1386.51,429.316
1387.96,444.89
1389.41,446.343
1390.86,454.937
1392.31,453.188
1393.76,439.106
1395.21,443.842
1396.66,442.118
1398.11,437.4
1399.56,454.197
1401.02,457.131
1402.47,454.631
1403.92,451.728
1405.37,458.134
1406.82,461.971
1408.27,461.752
1409.72,451.862
1411.17,464.988
1412.62,469.179
1414.07,454.848
1415.52,452.642
1416.97,465.736
1418.42,468.542
1419.87,479.274
1421.32,479.601
1422.77,483.35
1424.22,469.884
1425.67,476.889
1427.12,499.693
1428.57,487.737
1430.02,487.008
1431.47,494.966
1432.92,496.713
1434.37,499.714
1435.82,507.619
1437.27,516.191
1438.72,535.847
1440.17,522.981
1441.62,517.333
1443.07,527.466
1444.53,518.232
1445.98,533.146
1447.43,547.963
1448.88,554.019
1450.33,547.67
1451.78,546.201
1453.23,562.454
1454.68,578.257
1456.13,578.375
1457.58,583.055
1459.03,590.579
1460.48,602.213
1461.93,588.65
1463.38,617.331
1464.83,627.843
1466.28,627.653
1467.73,635.287
1469.18,645.672
1470.63,662.535
1472.08,684.066
1473.53,696.468
1474.98,701.155
1476.43,708.686
1477.88,724.932
1479.33,715.911
1480.78,747.626
1482.23,762.716
1483.68,774.845
1485.13,804.922
1486.58,815.119
1488.03,821.813
1489.49,850.169
1490.94,874.088
1492.39,882.163
1493.84,897.892
1495.29,919.73
1496.74,961.085
1498.19,978.719
1499.64,1016.17
1501.09,1011.9
1502.54,1078.26
1503.99,1123.27
1505.44,1156.71
1506.89,1205.41
1508.34,1254.06
1509.79,1301.86
1511.24,1356.99
1512.69,1421.96
1514.14,1496.7
1515.59,1576.26
1517.04,1656.05
1518.49,1742.34
1519.94,1838.3
1521.39,1974.94
1522.84,2123.88
1524.29,2249.02
1525.74,2387.05
1527.19,2601.15
1528.64,2800.03
1530.09,2990.67
1531.54,3221.07
1532.99,3484.53
1534.45,3777.81
1535.9,4095.54
1537.35,4394.75
1538.8,4746.79
1540.25,5059.98
1541.7,5467.45
1543.15,5879.68
1544.6,6363.89
1546.05,6709.22
1547.5,7084.41
1548.95,7485.92
1550.4,7930.57
1551.85,8295.35
1553.3,8308.55
1554.75,8322.15
1556.2,8345.96
1557.65,8366.37
1559.1,8381.34
1560.55,8434.41
1562,8408.55
1563.45,8401.96
1564.9,8398.15
1566.35,8382.43
1567.8,8317.53
1569.25,7905.88
1570.7,7446.33
1572.15,6980.53
1573.6,6523.43
1575.05,6077.36
1576.5,5619.63
1577.96,5170.21
1579.41,4772.83
1580.86,4417.31
1582.31,4064.39
1583.76,3719.89
1585.21,3472.43
1586.66,3207.32
1588.11,3003.41
1589.56,2790.29
1591.01,2609.37
1592.46,2427.92
1593.91,2296.17
1595.36,2146.99
1596.81,2033.35
1598.26,1932.11
1599.71,1822.3
1601.16,1730.87
1602.61,1646.18
1604.06,1559.35
1605.51,1483.8
1606.96,1416.75
1608.41,1344.82
1609.86,1305.86
1611.31,1246.66
1612.76,1184.36
1614.21,1157.45
1615.66,1110.24
1617.11,1064.49
1618.56,1026.86
1620.01,998.155
1621.46,974.596
1622.92,940.635
1624.37,905.831
1625.82,874.013
1627.27,859.768
1628.72,845.427
1630.17,810.84
1631.62,792.316
1633.07,793.669
1634.52,768.825
1635.97,769.008
1637.42,755.933
1638.87,724.51
1640.32,716.482
1641.77,711.958
1643.22,700.998
1644.67,686.433
1646.12,673.37
1647.57,668.666
1649.02,657.245
1650.47,645.169
1651.92,639.167
1653.37,639.324
1654.82,633.252
1656.27,637.563
1657.72,620.342
1659.17,617.052
1660.62,598.786
1662.07,590.75
1663.52,580.123
1664.97,585.996
1666.42,569.594
1667.88,570.292
1669.33,555.877
1670.78,546.78
1672.23,558.486
1673.68,558.955
1675.13,554.011
1676.58,545.998
1678.03,545.621
1679.48,549.955
1680.93,540.149
1682.38,526.381
1683.83,534.514
1685.28,519.806
1686.73,511.518
1688.18,502.18
1689.63,506.61
1691.08,519.108
1692.53,516.463
1693.98,502.301
1695.43,504.549
1696.88,511.6
1698.33,508.822
1699.78,505.262
1701.23,503.083
1702.68,506.673
1704.13,498.26
1705.58,504.639
1707.03,496.992
1708.48,506.293
1709.93,481.141
1711.39,486.066
1712.84,504.841
1714.29,491.369
1715.74,484.186
1717.19,490.255
1718.64,497.713
1720.09,491.362
1721.54,496.052
1722.99,496.467
1724.44,486.064
1725.89,490.685
1727.34,493.124
1728.79,481.975
1730.24,487.064
1731.69,486.074
1733.14,483.831
1734.59,474.298
1736.04,493.743
1737.49,479.146
1738.94,466.558
1740.39,462.35
1741.84,457.505
1743.29,456.837
1744.74,465.733
1746.19,466.038
1747.64,468.16
1749.09,456.162
1750.54,463.851
1751.99,457.144
1753.44,440.944
1754.89,445.887
1756.35,451.43
1757.8,442.605
1759.25,445.683
1760.7,449.919
1762.15,434.064
1763.6,440.389
1765.05,438.026
1766.5,441.116
1767.95,432.015
1769.4,429.339
1770.85,425.899
1772.3,437.46
1773.75,420.458
1775.2,432.519
1776.65,419.209
1778.1,417.717
1779.55,421.898
1781,416.897
1782.45,422.024
1783.9,424.166
1785.35,422.99
1786.8,422.501
1788.25,428.904
1789.7,423.116
1791.15,416.417
1792.6,420.153
1794.05,410.088
1795.5,411.353
1796.95,416.348
1798.4,426.465
1799.85,428.901
1801.31,416.868
1802.76,405.719
1804.21,408.824
1805.66,416.819
1807.11,416.329
1808.56,401.779
1810.01,406.352
1811.46,396.558
1812.91,394.469
1814.36,409.975
1815.81,410.982
1817.26,410.336
1818.71,400.293
1820.16,398.769
1821.61,404.168
1823.06,403.242
1824.51,407.192
1825.96,410.478
1827.41,410.337
1828.86,412.21
1830.31,410.629
1831.76,416.142
1833.21,417.57
1834.66,406.979
1836.11,417.698
1837.56,409.387
1839.01,410.185
1840.46,417.281
1841.91,415.504
1843.36,429.043
1844.82,421.364
1846.27,416.442
1847.72,413.916
1849.17,425.794
1850.62,418.72
1852.07,432.479
1853.52,418.279
1854.97,420.789
1856.42,425.286
1857.87,429.053
1859.32,430.72
1860.77,426.829
1862.22,416.472
1863.67,418.783
1865.12,422.743
1866.57,426.752
1868.02,426.261
1869.47,417.545
1870.92,419.935
1872.37,425.769
1873.82,427.118
1875.27,430.944
1876.72,419.992
1878.17,413.088
1879.62,414.46
1881.07,418.578
1882.52,421.459
1883.97,413.538
1885.42,417.566
1886.87,406.359
1888.32,414.579
1889.78,421.683
1891.23,395.26
1892.68,400.704
1894.13,400.697
1895.58,404.011
1897.03,402.064
1898.48,406.094
1899.93,397.357
1901.38,392.677
1902.83,393.656
1904.28,395.437
1905.73,391.303
1907.18,399.37
1908.63,397.123
1910.08,404.678
1911.53,398.735
1912.98,388.136
1914.43,394.014
1915.88,395.528
1917.33,392.205
1918.78,392.665
1920.23,393.205
1921.68,392.403
1923.13,387.597
1924.58,389.545
1926.03,392.21
1927.48,389.627
1928.93,395.998
1930.38,388.411
1931.83,399.161
1933.29,383.218
1934.74,389.736
1936.19,389.162
1937.64,383.335
1939.09,386.611
1940.54,385.138
1941.99,395.69
1943.44,386.505
1944.89,389.973
1946.34,391.469
1947.79,393.293
1949.24,381.647
1950.69,395.353
1952.14,398.422
1953.59,404.887
1955.04,409.115
1956.49,393.964
1957.94,397.154
1959.39,394.33
1960.84,384.815
1962.29,402.03
1963.74,395.67
1965.19,402.834
1966.64,405.011
1968.09,393.755
1969.54,392.615
1970.99,391.2
1972.44,393.65
1973.89,398.589
1975.34,404.92
1976.79,412.867
1978.25,413.793
1979.7,408.86
1981.15,407.457
1982.6,411.084
1984.05,412.294
1985.5,404.206
1986.95,402.219
1988.4,408.45
1989.85,404.047
1991.3,408.113
1992.75,408.862
1994.2,400.593
1995.65,410.782
1997.1,397.211
1998.55,400.643
2000,397.908
2001.45,406.622
2002.9,408.363
2004.35,417.85
2005.8,411.114
2007.25,402.244
2008.7,405.555
2010.15,401.863
2011.6,395.716
2013.05,391.574
2014.5,393.206
2015.95,400.911
2017.4,396.524
2018.85,392.939
2020.3,403.41
2021.75,409.412
2023.21,410.72
2024.66,405.439
2026.11,385.974
2027.56,414.369
2029.01,390.325
2030.46,395.697
2031.91,385.538
2033.36,400.233
2034.81,381.43
2036.26,411.11
2037.71,389.13
2039.16,395.832
2040.61,393.627
2042.06,380.433
2043.51,395.105
2044.96,394.745
2046.41,378.356
2047.86,378.573
2049.31,396.918
2050.76,375.942
2052.21,378.209
2053.66,371.936
2055.11,377.807
2056.56,385.854
2058.01,385.762
2059.46,383.275
2060.91,373.408
2062.36,371.478
2063.81,374.153
2065.26,374.378
2066.72,379.458
2068.17,377.798
2069.62,373.106
2071.07,379.943
2072.52,370.935
2073.97,371.708
2075.42,374.083
2076.87,374.975
2078.32,383.885
2079.77,380.453
2081.22,374.874
2082.67,367.564
2084.12,370.173
2085.57,371.43
2087.02,365.588
2088.47,371.029
2089.92,371.642
2091.37,372.072
2092.82,369.744
2094.27,373.5
2095.72,375.522
2097.17,371.942
2098.62,373.792
2100.07,366.132
2101.52,375.349
2102.97,376.632
2104.42,371.547
2105.87,376.048
2107.32,378.396
2108.77,379.45
2110.22,382.763
2111.68,385.194
2113.13,383.98
2114.58,377.314
2116.03,374.09
2117.48,374.221
2118.93,378.541
2120.38,383.35
2121.83,380.914
2123.28,383.137
2124.73,387.065
2126.18,387.978
2127.63,385.849
2129.08,384.326
2130.53,388.294
2131.98,389.882
2133.43,378.992
2134.88,380.891
2136.33,389.682
2137.78,384.317
2139.23,382.859
2140.68,384.812
2142.13,386.374
2143.58,396.594
2145.03,392.606
2146.48,390.49
2147.93,390.53
2149.38,390.211
2150.83,397.452
2152.28,394.832
2153.73,395.422
2155.18,399.31
2156.64,399.214
2158.09,394.775
2159.54,403.886
2160.99,402.766
2162.44,400.474
2163.89,409.421
2165.34,405.969
2166.79,403.941
2168.24,401.973
2169.69,403.313
2171.14,406.565
2172.59,402.257
2174.04,405.535
2175.49,416.372
2176.94,411.328
2178.39,414.947
2179.84,416.993
2181.29,412.976
2182.74,408.599
2184.19,413.168
2185.64,407.77
2187.09,407.824
2188.54,406.945
2189.99,409.018
2191.44,409.106
2192.89,410.422
2194.34,415.112
2195.79,422.692
2197.24,413.783
2198.69,417.621
2200.15,414.531
2201.6,415.547
2203.05,407.996
2204.5,409.664
2205.95,417.163
2207.4,420.089
2208.85,415.46
2210.3,418.028
2211.75,425.477
2213.2,435.128
2214.65,418.692
2216.1,429.053
2217.55,427.587
2219,418.337
2220.45,428.101
2221.9,426.646
2223.35,429.314
2224.8,435.424
2226.25,443.551
2227.7,427.367
2229.15,434.565
2230.6,442.005
2232.05,429.695
2233.5,425.14
2234.95,419.542
2236.4,439.477
2237.85,445.173
2239.3,433.021
2240.75,436.766
2242.2,440.39
2243.65,428.199
2245.11,441.086
2246.56,447.934
2248.01,443.001
2249.46,437.109
2250.91,448.227
2252.36,448.35
2253.81,461.31
2255.26,449.258
2256.71,441.265
2258.16,448.916
2259.61,459.739
2261.06,452.147
2262.51,440.41
2263.96,449.975
2265.41,461.639
2266.86,454.537
2268.31,463.061
2269.76,458.499
2271.21,452.097
2272.66,463.884
2274.11,461.759
2275.56,454.373
2277.01,459.079
2278.46,460.189
2279.91,460.189
2281.36,457.854
2282.81,468.504
2284.26,472.394
2285.71,467.477
2287.16,461.151
2288.61,471.6
2290.07,476.949
2291.52,484.993
2292.97,481.222
2294.42,483.245
2295.87,482.715
2297.32,474.516
2298.77,476.687
2300.22,478.711
2301.67,468.464
2303.12,488.199
2304.57,490.217
2306.02,489.351
2307.47,476.931
2308.92,482.575
2310.37,499.573
2311.82,496.297
2313.27,490.193
2314.72,482.14
2316.17,491.381
2317.62,492.281
2319.07,520.286
2320.52,509.459
2321.97,503.775
2323.42,520.477
2324.87,509.481
2326.32,514.876
2327.77,520.103
2329.22,516.503
2330.67,516.198
2332.12,527.867
2333.57,528.436
2335.03,536.485
2336.48,515.618
2337.93,525.444
2339.38,535.462
2340.83,534.7
2342.28,543.129
2343.73,544.725
2345.18,541.756
2346.63,552.121
2348.08,543.795
2349.53,544.126
2350.98,564.264
2352.43,565.333
2353.88,573.446
2355.33,571.773
2356.78,574.34
2358.23,587.252
2359.68,586.249
2361.13,579.639
2362.58,581.736
2364.03,600.929
2365.48,603.041
2366.93,632.222
2368.38,600.848
2369.83,615.253
2371.28,613.004
2372.73,635.457
2374.18,639.189
2375.63,647.151
2377.08,657.998
2378.54,661.18
2379.99,669.604
2381.44,680.157
2382.89,685.447
2384.34,689.753
2385.79,690.365
2387.24,703.978
2388.69,710.04
2390.14,724.224
2391.59,742.048
2393.04,740.252
2394.49,729.442
2395.94,738.551
2397.39,764.852
2398.84,791.39
2400.29,776.812
2401.74,795.017
2403.19,796.323
2404.64,820.086
2406.09,830.773
2407.54,814.902
2408.99,821.637
2410.44,829.413
2411.89,820.705
2413.34,844.828
2414.79,857.815
2416.24,845.298
2417.69,837.148
2419.14,847.223
2420.59,844.835
2422.04,822.167
2423.5,837.862
2424.95,846.318
2426.4,832.712
2427.85,823.664
2429.3,828.555
2430.75,836.338
2432.2,835.624
2433.65,825.542
2435.1,807.473
2436.55,825.44
2438,811.582
2439.45,811.643
2440.9,818.868
2442.35,807.548
2443.8,809.167
2445.25,796.656
2446.7,809.378
2448.15,798.649
2449.6,792.288
2451.05,781.417
2452.5,786.397
2453.95,770.743
2455.4,789.173
2456.85,772.995
2458.3,773.403
2459.75,780.764
2461.2,784.091
2462.65,775.982
2464.1,775.784
2465.55,769.661
2467.01,768.784
2468.46,772.893
2469.91,773.016
2471.36,769.036
2472.81,772.499
2474.26,776.322
2475.71,768.185
2477.16,781.948
2478.61,785.928
2480.06,796.146
2481.51,792.268
2482.96,792.948
2484.41,776.988
2485.86,796.064
2487.31,805.282
2488.76,801.826
2490.21,797.989
2491.66,795.683
2493.11,794.629
2494.56,802.717
2496.01,789.281
2497.46,787.798
2498.91,796.064
2500.36,798.173
2501.81,793.357
2503.26,816.249
2504.71,818.82
2506.16,827.984
2507.61,844.536
2509.06,813.854
2510.51,853.475
2511.97,838.801
2513.42,847.645
2514.87,859.598
2516.32,870.965
2517.77,869.959
2519.22,875.755
2520.67,891.688
2522.12,899.307
2523.57,913.056
2525.02,910.811
2526.47,920.9
2527.92,925.655
2529.37,910.995
2530.82,933.424
2532.27,952.874
2533.72,947.513
2535.17,954.643
2536.62,970.739
2538.07,995.89
2539.52,981.889
2540.97,1010.75
2542.42,1014.11
2543.87,1059.27
2545.32,1066.98
2546.77,1062.43
2548.22,1086.45
2549.67,1100.53
2551.12,1111.19
2552.57,1113.08
2554.02,1138.38
2555.48,1162.45
2556.93,1192.33
2558.38,1206.78
2559.83,1220.19
2561.28,1239.85
2562.73,1285.49
2564.18,1299.43
2565.63,1323.86
2567.08,1356.38
2568.53,1373.94
2569.98,1413.07
2571.43,1465.24
2572.88,1492.97
2574.33,1491.98
2575.78,1538.85
2577.23,1579.41
2578.68,1611.62
2580.13,1657.24
2581.58,1694.35
2583.03,1724.85
2584.48,1774.69
2585.93,1817.62
2587.38,1854.03
2588.83,1927.35
2590.28,2000.23
2591.73,2075.58
2593.18,2100.95
2594.63,2156.51
2596.08,2233.87
2597.53,2293.41
2598.98,2394.27
2600.44,2462.38
2601.89,2552.46
2603.34,2643.87
2604.79,2720.84
2606.24,2824.21
2607.69,2895.24
2609.14,3014.47
2610.59,3075.44
2612.04,3202.63
2613.49,3287.79
2614.94,3419.01
2616.39,3522.91
2617.84,3602.13
2619.29,3714.55
2620.74,3820.29
2622.19,3927.13
2623.64,4062.83
2625.09,4129.04
2626.54,4233.47
2627.99,4339.17
2629.44,4464.38
2630.89,4580.81
2632.34,4688.88
2633.79,4769.01
2635.24,4910.81
2636.69,4942.34
2638.14,5019.5
2639.59,5121.3
2641.04,5151.83
2642.49,5216.84
2643.94,5254.55
2645.4,5269.73
2646.85,5291.98
2648.3,5303.41
2649.75,5267.11
2651.2,5274.54
2652.65,5209.21
2654.1,5234.54
2655.55,5159.55
2657,5114.2
2658.45,5027.07
2659.9,4939.24
2661.35,4848.03
2662.8,4768.41
2664.25,4657.63
2665.7,4591.06
2667.15,4510.04
2668.6,4369.43
2670.05,4279.8
2671.5,4180.18
2672.95,4003.17
2674.4,3932.52
2675.85,3811.46
2677.3,3673.2
2678.75,3572.7
2680.2,3494.35
2681.65,3331.58
2683.1,3239.48
2684.55,3130.41
2686,3048.74
2687.45,2936.65
2688.91,2816.87
2690.36,2716.59
2691.81,2634.35
2693.26,2547.63
2694.71,2418.04
2696.16,2344.07
2697.61,2313.27
2699.06,2195.48
2700.51,2139.43
2701.96,2103.19
2703.41,2025.91
2704.86,1932.67
2706.31,1879.53
2707.76,1800.97
2709.21,1775.62
2710.66,1719.08
2712.11,1656.36
2713.56,1614.5
2715.01,1587.06
2716.46,1536.55
2717.91,1500.11
2719.36,1453.05
2720.81,1430.71
2722.26,1402.77
2723.71,1355.44
2725.16,1313.04
2726.61,1287.73
2728.06,1270.38
2729.51,1252.06
2730.96,1219.74
2732.41,1177.78
2733.87,1178.35
2735.32,1138.22
2736.77,1126.37
2738.22,1105.79
2739.67,1091.69
2741.12,1076.83
2742.57,1042.5
2744.02,1033.09
2745.47,1031.77
2746.92,1000.28
2748.37,1000.79
2749.82,974.685
2751.27,977.392
2752.72,950.466
2754.17,953.752
2755.62,929.778
2757.07,905.783
2758.52,899.45
2759.97,895.661
2761.42,873.646
2762.87,867.204
2764.32,870.918
2765.77,856.87
2767.22,826.147
2768.67,857.754
2770.12,836.576
2771.57,830.936
2773.02,819.14
2774.47,820.759
2775.92,816.392
2777.38,802.881
2778.83,802.146
2780.28,791.329
2781.73,784.812
2783.18,773.206
2784.63,774.24
2786.08,767.437
2787.53,743.014
2788.98,755.389
2790.43,763.498
2791.88,752.497
2793.33,742.198
2794.78,730.599
2796.23,728.592
2797.68,735.878
2799.13,726.006
2800.58,726.802
2802.03,717.401
2803.48,711.965
2804.93,719.156
2806.38,707.631
2807.83,693.638
2809.28,698.93
2810.73,690.767
2812.18,696.944
2813.63,697.42
2815.08,703.08
2816.53,684.44
2817.98,689.896
2819.43,697.414
2820.88,684.766
2822.33,674.291
2823.79,680.281
2825.24,672.015
2826.69,666.004
2828.14,661.537
2829.59,662.967
2831.04,672.756
2832.49,677.65
2833.94,646.989
2835.39,645.27
2836.84,647.263
2838.29,641.597
2839.74,641.6
2841.19,645.573
2842.64,656.946
2844.09,654.53
2845.54,647.105
2846.99,643.366
2848.44,641.592
2849.89,632.009
2851.34,642.454
2852.79,635.485
2854.24,628.427
2855.69,637.389
2857.14,652.909
2858.59,635.781
2860.04,627.195
2861.49,636.174
2862.94,623.582
2864.39,625.126
2865.84,638.792
2867.3,635.551
2868.75,634.298
2870.2,634.156
2871.65,622.775
2873.1,627.113
2874.55,640.06
2876,633.693
2877.45,635.648
2878.9,637.127
2880.35,633.433
2881.8,619.23
2883.25,624.447
2884.7,625.528
2886.15,625.412
2887.6,623.695
2889.05,617.863
2890.5,628.013
2891.95,633.937
2893.4,628.136
2894.85,631.933
2896.3,631.643
2897.75,622.659
2899.2,621.268
2900.65,620.368
2902.1,616.418
2903.55,613.81
2905,614.507
2906.45,616.352
2907.9,618.088
2909.35,612.749
2910.8,601.806
2912.26,601.32
2913.71,607.372
2915.16,586.462
2916.61,610.819
2918.06,602.091
2919.51,588.502
2920.96,601.695
2922.41,598.903
2923.86,597.404
2925.31,592.149
2926.76,582.947
2928.21,578.808
2929.66,577.381
2931.11,574.102
2932.56,567.772
2934.01,580.559
2935.46,568.67
2936.91,568.666
2938.36,566.33
2939.81,559.686
2941.26,553.535
2942.71,558.754
2944.16,561.271
2945.61,559.303
2947.06,558.409
2948.51,560.443
2949.96,548.148
2951.41,546.579
2952.86,555.475
2954.31,545.986
2955.77,542.337
2957.22,549.31
2958.67,543.057
2960.12,534.212
2961.57,559.24
2963.02,541.741
2964.47,539.241
2965.92,537.147
2967.37,540.384
2968.82,538.908
2970.27,543.832
2971.72,530.55
2973.17,532.057
2974.62,531.442
2976.07,525.416
2977.52,525.917
2978.97,530.3
2980.42,525.026
2981.87,533.513
2983.32,538.08
2984.77,531.915
2986.22,523.172
2987.67,529.116
2989.12,533.471
2990.57,536.2
2992.02,530.837
2993.47,522.109
2994.92,526.79
2996.37,535.87
2997.82,533.467
2999.27,538.511
3000.73,519.659
3002.18,531.342
3003.63,521.173
3005.08,528.03
3006.53,525.397
3007.98,512.714
3009.43,510.174
3010.88,517.076
3012.33,526.03
3013.78,537.227
3015.23,513.628
3016.68,522.835
3018.13,515.221
3019.58,522.48
3021.03,523.61
3022.48,514.54
3023.93,525.556
3025.38,535.669
3026.83,520.026
3028.28,527.034
3029.73,540.762
3031.18,542.16
3032.63,533.063
3034.08,542.687
3035.53,545.551
3036.98,513.455
3038.43,536.341
3039.88,539.245
3041.33,535.179
3042.78,534.177
3044.23,526.504
3045.69,526.374
3047.14,523.047
3048.59,534.222
3050.04,541.497
3051.49,526.325
3052.94,524.831
3054.39,535.678
3055.84,544.778
3057.29,541.889
3058.74,533.44
3060.19,546.754
3061.64,553.385
3063.09,557.531
3064.54,560.803
3065.99,558.301
3067.44,544.197
3068.89,555.963
3070.34,566.388
3071.79,582.804
3073.24,557.993
3074.69,570.724
3076.14,569.728
3077.59,573.512
3079.04,590.594
3080.49,589.696
3081.94,601.991
3083.39,597.212
3084.84,611.823
3086.29,602.768
3087.74,608.557
3089.2,611.59
3090.65,621.886
3092.1,625.635
3093.55,628.387
3095,626.221
3096.45,630.492
3097.9,640.415
3099.35,655.426
3100.8,661.71
3102.25,655.102
3103.7,675.167
3105.15,679.278
3106.6,671.824
3108.05,688.801
3109.5,675.458
3110.95,688.61
3112.4,692.182
3113.85,712.679
3115.3,709.509
3116.75,717.53
3118.2,712.142
3119.65,723.591
3121.1,728.748
3122.55,730.449
3124,734.32
3125.45,731.374
3126.9,738.946
3128.35,750.484
3129.8,740.184
3131.25,741.47
3132.7,752.919
3134.16,747.286
3135.61,747.041
3137.06,760.273
3138.51,741.429
3139.96,753.484
3141.41,758.015
3142.86,749.232
3144.31,763.26
3145.76,763.498
3147.21,765.981
3148.66,754.845
3150.11,753.885
3151.56,742.551
3153.01,749.899
3154.46,763.28
3155.91,768.104
3157.36,776.104
3158.81,784.778
3160.26,761.416
3161.71,775.927
3163.16,784.084
3164.61,782.125
3166.06,774.281
3167.51,797.214
3168.96,791.064
3170.41,790.438
3171.86,802.493
3173.31,808.942
3174.76,813.317
3176.21,799.438
3177.67,812.459
3179.12,807.146
3180.57,818.739
3182.02,837.944
3183.47,826.977
3184.92,809.643
3186.37,821.929
3187.82,818.303
3189.27,804.901
3190.72,823.018
3192.17,807.922
3193.62,802.602
3195.07,798.595
3196.52,797.125
3197.97,778.206
3199.42,746.565
3200.87,761.994
3202.32,755.763
3203.77,744.164
3205.22,743.259
3206.67,732.163
3208.12,723.897
3209.57,708.645
3211.02,691.243
3212.47,706.829
3213.92,682.868
3215.37,663.797
3216.82,664.739
3218.27,651.25
3219.72,638.642
3221.17,640.077
3222.63,635.227
3224.08,633.825
3225.53,622.889
3226.98,618.207
3228.43,588.699
3229.88,607.34
3231.33,592.383
3232.78,576.974
3234.23,564.696
3235.68,569.81
3237.13,567.014
3238.58,565.079
3240.03,548.155
3241.48,540.617
3242.93,544.645
3244.38,551.537
3245.83,548.142
3247.28,549.514
3248.73,536.151
3250.18,541.32
3251.63,539.079
3253.08,538.481
3254.53,531.303
3255.98,511.873
3257.43,522.902
3258.88,522.653
3260.33,517.412
3261.78,516.936
3263.23,514.614
3264.68,526.603
3266.13,519.169
3267.59,507.09
3269.04,514.251
3270.49,523.375
3271.94,519.22
3273.39,505.014
3274.84,514.288
3276.29,509.238
3277.74,505.698
3279.19,518.501
3280.64,503.993
3282.09,510.814
3283.54,505.379
3284.99,512.317
3286.44,508.902
3287.89,504.214
3289.34,515.868
3290.79,515.94
3292.24,498.365
3293.69,519.766
3295.14,519.031
3296.59,510.337
3298.04,506.079
3299.49,504.807
3300.94,500.578
3302.39,507.907
3303.84,496.23
3305.29,503.758
3306.74,516.648
3308.19,507.019
3309.64,497.851
3311.09,502.235
3312.55,512.095
3314,508.746
3315.45,491.706
3316.9,499.758
3318.35,512.272
3319.8,493.828
3321.25,510.779
3322.7,500.889
3324.15,504.326
3325.6,510.724
3327.05,512.331
3328.5,498.868
3329.95,509.745
3331.4,515.477
3332.85,498.954
3334.3,494.607
3335.75,500.112
3337.2,503.812
3338.65,501.7
3340.1,503.4
3341.55,508.59
3343,507.904
3344.45,500.932
3345.9,506.621
3347.35,498.686
3348.8,490.712
3350.25,508.051
3351.7,502.442
3353.15,500.762
3354.6,507.779
3356.06,500.321
3357.51,504.756
3358.96,504.623
3360.41,500.567
3361.86,501.896
3363.31,498.02
3364.76,498.658
3366.21,503.291
3367.66,505.889
3369.11,506.484
3370.56,517.688
3372.01,513.716
3373.46,530.254
3374.91,508.266
3376.36,506.717
3377.81,502.522
3379.26,508.177
3380.71,496.348
3382.16,509.605
3383.61,505.386
3385.06,517.633
3386.51,509.185
3387.96,501.209
3389.41,489.488
3390.86,504.677
3392.31,508.791
3393.76,500.69
3395.21,508.151
3396.66,507.96
3398.11,520.932
3399.56,514.728
3401.02,515.657
3402.47,511.717
3403.92,501.703
3405.37,492.71
3406.82,513.98
3408.27,498.058
3409.72,501.782
3411.17,508.758
3412.62,510.762
3414.07,509.024
3415.52,512.448
3416.97,501.178
3418.42,513.284
3419.87,502.189
3421.32,505.164
3422.77,509.746
3424.22,516.604
3425.67,520.272
3427.12,522.871
3428.57,519.58
3430.02,508.801
3431.47,515.283
3432.92,520.256
3434.37,503.68
3435.82,512.671
3437.27,514.294
3438.72,512.877
3440.17,515.34
3441.62,506.047
3443.07,507.493
3444.52,513.242
3445.98,489.015
3447.43,517.791
3448.88,516.519
3450.33,512.605
3451.78,510.812
3453.23,515.475
3454.68,515.68
3456.13,513.327
3457.58,513.528
3459.03,508.566
3460.48,505.049
3461.93,525.923
3463.38,516.921
3464.83,521.967
3466.28,527.506
3467.73,527.895
3469.18,520.904
3470.63,512.935
3472.08,520.546
3473.53,529.364
3474.98,524.326
3476.43,504.506
3477.88,528.611
3479.33,525.743
3480.78,526.027
3482.23,518.815
3483.68,532.634
3485.13,499.884
3486.58,521.347
3488.03,531.002
3489.49,526.349
3490.94,511.448
3492.39,513.167
3493.84,519.947
3495.29,530.022
3496.74,529.822
3498.19,515.574
3499.64,524.554
3501.09,523.622
3502.54,531.702
3503.99,521.149
3505.44,523.751
3506.89,529.278
3508.34,533.481
3509.79,524.454
3511.24,527.703
3512.69,527.58
3514.14,524.276
3515.59,546.798
3517.04,531.12
3518.49,534.503
3519.94,533.449
3521.39,527.625
3522.84,535.916
3524.29,534.007
3525.74,532.217
3527.19,541.095
3528.64,523.522
3530.09,531.879
3531.54,536.562
3532.99,544.159
3534.45,540.489
3535.9,517.792
3537.35,535.406
3538.8,534.012
3540.25,531.014
3541.7,531.677
3543.15,527.865
3544.6,542.652
3546.05,529.23
3547.5,529.607
3548.95,535.362
3550.4,541.684
3551.85,537.235
3553.3,532.035
3554.75,524.654
3556.2,523.194
3557.65,537.115
3559.1,526.26
3560.55,533.118
3562,533.729
3563.45,534.356
3564.9,527.085
3566.35,536.8
3567.8,547.189
3569.25,540.077
3570.7,544.749
3572.15,541.243
3573.6,533.25
3575.05,530.323
3576.5,533.979
3577.96,538.215
3579.41,548.521
3580.86,535.32
3582.31,543.525
3583.76,545.393
3585.21,538.673
3586.66,531.933
3588.11,540.733
3589.56,543.016
3591.01,538.59
3592.46,559.161
3593.91,523.825
3595.36,525.673
3596.81,534.661
3598.26,545.803
3599.71,542.712
3601.16,540.201
3602.61,540.6
3604.06,546.175
3605.51,542.205
3606.96,552.361
3608.41,544.103
3609.86,557.214
3611.31,551.017
3612.76,544.413
3614.21,548.833
3615.66,549.555
3617.11,556.498
3618.56,540.807
3620.01,553.041
3621.46,565.699
3622.92,563.862
3624.37,553.098
3625.82,541.536
3627.27,552.201
3628.72,554.742
3630.17,547.922
3631.62,551.207
3633.07,543.797
3634.52,560.101
3635.97,542.869
3637.42,555.808
3638.87,557.645
3640.32,575.129
3641.77,554.441
3643.22,545.193
3644.67,565.518
3646.12,551.152
3647.57,564.15
3649.02,560.853
3650.47,556.558
3651.92,569.787
3653.37,563.113
3654.82,558.416
3656.27,557.261
3657.72,555.809
3659.17,555.267
3660.62,564.376
3662.07,563.977
3663.52,564.227
3664.97,556.869
3666.43,562.652
3667.88,579.623
3669.33,567.715
3670.78,566.727
3672.23,566.334
3673.68,571.658
3675.13,566.879
3676.58,563.08
3678.03,558.688
3679.48,560.115
3680.93,572.669
3682.38,568.541
3683.83,569.032
3685.28,558.406
3686.73,578.998
3688.18,569.31
3689.63,572.329
3691.08,565.311
3692.53,567.841
3693.98,570.599
3695.43,555.544
3696.88,575.407
3698.33,592.855
3699.78,576.263
3701.23,573.281
3702.68,571.772
3704.13,564.82
3705.58,564.134
3707.03,572.597
3708.48,565.552
3709.93,571.286
3711.39,575.078
3712.84,572.586
3714.29,587.065
3715.74,580.142
3717.19,578.471
3718.64,571.737
3720.09,577.51
3721.54,577.403
3722.99,581.241
3724.44,589.784
3725.89,584.929
3727.34,597.507
3728.79,594.307
3730.24,581.458
3731.69,575.254
3733.14,577.342
3734.59,574.441
3736.04,583.26
3737.49,575.057
3738.94,578.11
3740.39,578.694
3741.84,595.961
3743.29,597.53
3744.74,582.107
3746.19,587.213
3747.64,590.8
3749.09,586.51
3750.54,595.688
3751.99,593.6
3753.44,583.185
3754.89,590.442
3756.35,587.039
3757.8,585.852
3759.25,588.552
3760.7,583.36
3762.15,610.243
3763.6,597.982
3765.05,600.3
3766.5,599.181
3767.95,585.961
3769.4,596.803
3770.85,584.156
3772.3,594.761
3773.75,594.685
3775.2,598.766
3776.65,602.75
3778.1,605.842
3779.55,591.391
3781,591.604
3782.45,613.139
3783.9,603.009
3785.35,602.482
3786.8,605.426
3788.25,604.612
3789.7,623.635
3791.15,612.583
3792.6,597.872
3794.05,596.989
3795.5,610.484
3796.95,613.637
3798.4,593.99
3799.85,609.918
3801.31,612.449
3802.76,604.079
3804.21,604.113
3805.66,610.719
3807.11,610.692
3808.56,601.309
3810.01,598.629
3811.46,615.918
3812.91,603.193
3814.36,606.8
3815.81,626.266
3817.26,614.436
3818.71,618.771
3820.16,625.285
3821.61,618.595
3823.06,618.278
3824.51,614.973
3825.96,614.475
3827.41,613.494
3828.86,623.91
3830.31,622.215
3831.76,623.336
3833.21,634.046
3834.66,611.685
3836.11,610.248
3837.56,606.846
3839.01,617.524
3840.46,619.149
3841.91,624.148
3843.36,630.029
3844.82,623.166
3846.27,633.605
3847.72,631.946
3849.17,631.948
3850.62,633.8
3852.07,628.939
3853.52,626.483
3854.97,632.468
3856.42,617.216
3857.87,645.935
3859.32,637.002
3860.77,644.944
3862.22,631.718
3863.67,633.402
3865.12,622.115
3866.57,642.478
3868.02,638.186
3869.47,637.788
3870.92,648.307
3872.37,627.484
3873.82,647.277
3875.27,643.848
3876.72,650.019
3878.17,648.44
3879.62,634.974
3881.07,639.272
3882.52,655.041
3883.97,644.808
3885.42,653.171
3886.87,648.588
3888.32,647.806
3889.78,654.366
3891.23,654.617
3892.68,641.522
3894.13,641.522
3895.58,642.179
3897.03,658.326
3898.48,661.161
3899.93,664.347
3901.38,656.072
3902.83,665.44
3904.28,671.027
3905.73,659.005
3907.18,667.666
3908.63,662.999
3910.08,651.323
3911.53,659.179
3912.98,677.051
3914.43,665.143
3915.88,674.096
3917.33,670.484
3918.78,674.248
3920.23,663.85
3921.68,682.528
3923.13,665.889
3924.58,670.485
3926.03,684.113
3927.48,685.909
3928.93,667.767
3930.38,678.659
3931.83,699.917
3933.28,675.726
3934.74,692.406
3936.19,699.788
3937.64,693.903
3939.09,685.318
3940.54,672.951
3941.99,690.086
3943.44,697.107
3944.89,682.385
3946.34,683.107
3947.79,688.596
3949.24,679.891
3950.69,710.346
3952.14,697.733
3953.59,683.467
3955.04,703.488
3956.49,712.666
3957.94,701.985
3959.39,708.278
3960.84,729.251
3962.29,695.495
3963.74,718.455
3965.19,691.508
3966.64,722.931
3968.09,724.571
3969.54,715.319
3970.99,711.91
3972.44,709.135
3973.89,714.407
3975.34,725.244
3976.79,693.719
3978.25,725.816
3979.7,732.823
3981.15,717.333
3982.6,733.517
3984.05,736.817
3985.5,711.455
3986.95,735.388
3988.4,753.715
3989.85,731.129
3991.3,731.075
3992.75,733.939
3994.2,723.938
3995.65,736.626
3997.1,723.333
3998.55,743.443
4000,731.014
