0.3,35.0228
1.45033,35.0228
2.90065,35.0228
4.35098,35.0228
5.80131,35.0228
7.25163,28.8938
8.70196,65.1957
10.1523,44.8976
11.6026,35.1467
13.0529,30.4994
14.5033,26.9016
15.9536,23.5445
17.4039,21.4261
18.8542,19.8779
20.3046,20.5459
21.7549,20.4899
23.2052,18.0352
24.6555,15.6796
26.1059,16.0515
27.5562,15.5763
29.0065,14.0191
30.4569,12.1367
31.9072,10.3686
33.3575,10.8133
34.8078,11.3771
36.2582,11.1658
37.7085,10.5761
39.1588,10.8569
40.6091,9.22504
42.0595,7.38986
43.5098,7.28931
44.9601,9.53204
46.4104,10.9005
47.8608,13.8313
49.3111,18.1357
50.7614,22.281
52.2117,35.7478
53.6621,65.6097
55.1124,111.425
56.5627,174.463
58.0131,261.93
59.4634,341.796
60.9137,416.768
62.364,482.899
63.8144,537.25
65.2647,587.524
66.715,615.035
68.1653,631.552
69.6157,643.87
71.066,658.005
72.5163,658.829
73.9666,658.877
75.417,657.048
76.8673,653.395
78.3176,649.845
79.7679,664.353
81.2183,683.224
82.6686,704.104
84.1189,724.659
85.5693,736.513
87.0196,744.456
88.4699,739.889
89.9202,730.845
91.3706,729.798
92.8209,702.63
94.2712,689.614
95.7215,677.104
97.1719,658.859
98.6222,633.574
100.073,621.443
101.523,615.384
102.973,604.462
104.423,583.304
105.874,557.523
107.324,560.055
108.774,551.358
110.225,537.878
111.675,530.318
113.125,527.941
114.576,521.843
116.026,512.925
117.476,503.508
118.927,495.616
120.377,473.696
121.827,468.585
123.278,469.799
124.728,466.795
126.178,447.15
127.629,433.318
129.079,424.221
130.529,416.046
131.98,408.53
133.43,406.862
134.88,401.018
136.331,398.367
137.781,394.468
139.231,388.531
140.682,391.989
142.132,377.182
143.582,364.864
145.033,359.916
146.483,361.635
147.933,353.997
149.384,346.973
150.834,333.618
152.284,321.889
153.735,322.487
155.185,331.326
156.635,312.226
158.086,311.779
159.536,317.641
160.986,294.765
162.437,296.199
163.887,297.917
165.337,302.625
166.788,304.464
168.238,291.896
169.688,295.848
171.139,295.175
172.589,291.704
174.039,288.168
175.489,288.528
176.94,280.845
178.39,276.653
179.84,278.846
181.291,282.494
182.741,271.473
184.191,262.521
185.642,258.843
187.092,254.341
188.542,248.995
189.993,254.396
191.443,255.479
192.893,254.492
194.344,253.007
195.794,252.46
197.244,254.26
198.695,256.844
200.145,252.48
201.595,248.832
203.046,249.739
204.496,246.377
205.946,256.738
207.397,256.932
208.847,254.234
210.297,253.716
211.748,245.185
213.198,246.216
214.648,243.428
216.099,238.853
217.549,234.887
218.999,229.715
220.45,225.307
221.9,219.539
223.35,219.45
224.801,228.227
226.251,235.689
227.701,233.028
229.152,231.658
230.602,229.708
232.052,224.764
233.503,216.805
234.953,229.483
236.403,227.336
237.854,223.333
239.304,225.577
240.754,217.492
242.204,214.793
243.655,218.767
245.105,215.743
246.555,206.104
248.006,222.751
249.456,217.428
250.906,217.614
252.357,217.31
253.807,213.343
255.257,211.288
256.708,218.186
258.158,218.243
259.608,217.974
261.059,219.687
262.509,218.598
263.959,206.805
265.41,206.014
266.86,212.824
268.31,219.247
269.761,213.627
271.211,214.839
272.661,208.528
274.112,207.045
275.562,212.352
277.012,217.874
278.463,207.574
279.913,208.491
281.363,205.433
282.814,199.817
284.264,200.254
285.714,198.556
287.165,197.363
288.615,197.853
290.065,196.908
291.516,191.67
292.966,189.121
294.416,194.827
295.867,194.068
297.317,191.092
298.767,190.321
300.218,182.678
301.668,188.358
303.118,190.025
304.569,192.209
306.019,194.635
307.469,182.48
308.919,187.408
310.37,185.863
311.82,183.916
313.27,181.822
314.721,172.038
316.171,167.536
317.621,164.452
319.072,169.93
320.522,174.896
321.972,163.99
323.423,168.617
324.873,170.302
326.323,169.941
327.774,168.116
329.224,166.83
330.674,175.115
332.125,171.875
333.575,169.169
335.025,169.271
336.476,170.858
337.926,168.297
339.376,169.702
340.827,168.376
342.277,164.859
343.727,165.311
345.178,179.664
346.628,163.306
348.078,160.201
349.529,161.321
350.979,161.706
352.429,160.297
353.88,167.382
355.33,161.78
356.78,161.102
358.231,164.007
359.681,164.769
361.131,158.044
362.582,159.728
364.032,162.8
365.482,165.283
366.933,164.529
368.383,157.385
369.833,158.732
371.284,152.199
372.734,153.327
374.184,157.936
375.635,155.363
377.085,157.813
378.535,159.615
379.986,160.931
381.436,161.67
382.886,161.915
384.336,162.16
385.787,160.145
387.237,160.522
388.687,158.897
390.138,155.459
391.588,154.281
393.038,155.63
394.489,156.775
395.939,157.354
397.389,159.833
398.84,163.486
400.29,154.892
401.74,155.036
403.191,154.549
404.641,160.569
406.091,166.588
407.542,152.762
408.992,158.415
410.442,157.856
411.893,155.161
413.343,155.14
414.793,159.994
416.244,161.593
417.694,154.224
419.144,152.736
420.595,149.554
422.045,147.016
423.495,160.343
424.946,164.159
426.396,152.86
427.846,147.188
429.297,149.356
430.747,154.087
432.197,158.405
433.648,150.574
435.098,147.153
436.548,152.431
437.999,158.772
439.449,150.319
440.899,157.101
442.35,152.109
443.8,152.248
445.25,152.925
446.701,149.139
448.151,155.564
449.601,153.372
451.051,149.229
452.502,150.249
453.952,155.019
455.402,156.099
456.853,155.48
458.303,147.572
459.753,151.657
461.204,156.291
462.654,152.566
464.104,149.242
465.555,155.054
467.005,152.994
468.455,151.61
469.906,150.51
471.356,147.36
472.806,152.316
474.257,150.516
475.707,150.799
477.157,150.69
478.608,153.114
480.058,164.368
481.508,154.582
482.959,154.729
484.409,150.798
485.859,150.11
487.31,155.602
488.76,151.642
490.21,154.619
491.661,147.906
493.111,148.33
494.561,153.73
496.012,154.585
497.462,151.235
498.912,150.217
500.363,144.631
501.813,144.912
503.263,151.245
504.714,154.474
506.164,149.63
507.614,144.669
509.065,143.063
510.515,144.109
511.965,146.283
513.416,148.045
514.866,145.307
516.316,144.659
517.766,150.687
519.217,151.419
520.667,142.575
522.117,143.834
523.568,147.697
525.018,150.069
526.468,150.885
527.919,149.219
529.369,144.965
530.819,141.224
532.27,143.762
533.72,143.752
535.17,146.687
536.621,151.717
538.071,152.796
539.521,140.953
540.972,147.338
542.422,151.756
543.872,151.122
545.323,147.886
546.773,146.862
548.223,148.486
549.674,147.489
551.124,149.691
552.574,151.928
554.025,152.991
555.475,153.84
556.925,148.589
558.376,151.043
559.826,149.93
561.276,147.474
562.727,146.97
564.177,149.473
565.627,150.6
567.078,148.972
568.528,143.403
569.978,146.766
571.429,153.859
572.879,141.285
574.329,143.665
575.78,144.075
577.23,144.2
578.68,145.921
580.131,147.968
581.581,146.492
583.031,150.254
584.482,145.266
585.932,147.264
587.382,149.365
588.832,148.174
590.283,149.796
591.733,151.302
593.183,156.885
594.634,152.633
596.084,148.844
597.534,149.607
598.985,147.501
600.435,148.38
601.885,153.391
603.336,152.925
604.786,148.415
606.236,145.652
607.687,149.131
609.137,142.214
610.587,146.568
612.038,144.34
613.488,146.233
614.938,151.399
616.389,148.926
617.839,147.667
619.289,139.282
620.74,147.971
622.19,153.998
623.64,150.544
625.091,145.832
626.541,152.266
627.991,149.645
629.442,148.063
630.892,149.589
632.342,152.549
633.793,153.475
635.243,149.566
636.693,153.158
638.144,149.763
639.594,154.928
641.044,155.729
642.495,145.736
643.945,152.256
645.395,157.432
646.846,154.221
648.296,155.909
649.746,157.836
651.197,156.86
652.647,158.336
654.097,159.348
655.547,158.562
656.998,154.543
658.448,151.81
659.898,150.016
661.349,147.096
662.799,158.355
664.249,159.486
665.7,157.701
667.15,159.681
668.6,161.446
670.051,157.141
671.501,152.861
672.951,161.474
674.402,162.451
675.852,158.589
677.302,160.988
678.753,167.255
680.203,156.009
681.653,162.862
683.104,166.579
684.554,165.202
686.004,161.711
687.455,160.463
688.905,163.68
690.355,164.822
691.806,166.814
693.256,162.595
694.706,162.141
696.157,163.358
697.607,161.895
699.057,163.448
700.508,165.864
701.958,172.81
703.408,171.43
704.859,167.17
706.309,166.086
707.759,167.08
709.21,160.214
710.66,158.216
712.11,163.163
713.561,161.878
715.011,160.908
716.461,167.407
717.912,162.261
719.362,159.967
720.812,162.406
722.263,163.015
723.713,167.42
725.163,172.657
726.613,167.374
728.064,164.444
729.514,167.52
730.964,166.682
732.415,165.481
733.865,165.28
735.315,164.93
736.766,163.107
738.216,173.579
739.666,170.411
741.117,164.734
742.567,165.332
744.017,166.003
745.468,157.762
746.918,167.094
748.368,166.031
749.819,161.574
751.269,164.811
752.719,166.287
754.17,161.544
755.62,163.272
757.07,171.591
758.521,169.539
759.971,161.638
761.421,162.464
762.872,167.229
764.322,165.641
765.772,163.299
767.223,168.424
768.673,173.21
770.123,166.278
771.574,162.987
773.024,167.505
774.474,169.492
775.925,161.418
777.375,166.292
778.825,169.043
780.276,168.245
781.726,167.538
783.176,166.787
784.627,163.298
786.077,169.332
787.527,169.167
788.978,166.133
790.428,172.233
791.878,175.218
793.328,171.223
794.779,176.274
796.229,169.076
797.68,172.736
799.13,171.679
800.58,170.592
802.03,171.638
803.481,175.478
804.931,181.824
806.381,172.816
807.832,177.07
809.282,172.902
810.732,170.215
812.183,171.284
813.633,172.832
815.083,174.011
816.534,175.428
817.984,175.674
819.434,178.193
820.885,176.286
822.335,175.581
823.785,179.461
825.236,174.594
826.686,171.757
828.136,178.871
829.587,175.137
831.037,176.921
832.487,185.402
833.938,188.104
835.388,176.398
836.838,183.241
838.289,188.079
839.739,181.118
841.189,181.064
842.64,186.517
844.09,188.674
845.54,189.349
846.991,183.92
848.441,183.889
849.891,185.266
851.342,185.625
852.792,188.792
854.242,192.16
855.693,183.227
857.143,171.192
858.593,185.368
860.044,190.279
861.494,190.239
862.944,187.376
864.394,185.706
865.845,190.13
867.295,190.001
868.745,188.854
870.196,191.303
871.646,185.982
873.096,182.291
874.547,182.064
875.997,178.632
877.447,183.019
878.898,180.165
880.348,189.499
881.798,191.488
883.249,189.47
884.699,188.792
886.149,189.646
887.6,187.535
889.05,177.783
890.5,185.782
891.951,187.704
893.401,186.668
894.851,187.699
896.302,189.906
897.752,187.613
899.202,186.573
900.653,194.215
902.103,191.6
903.553,194.106
905.004,194.514
906.454,195.176
907.904,206.181
909.355,208.895
910.805,207.07
912.255,203.189
913.706,192.718
915.156,192.024
916.606,196.26
918.057,197.143
919.507,203.55
920.957,187.892
922.408,194.09
923.858,204.732
925.308,205.098
926.759,200.964
928.209,203.396
929.659,212.335
931.109,208.05
932.56,208.05
934.01,209.664
935.46,212.447
936.911,204.461
938.361,200.901
939.811,209.16
941.262,206.204
942.712,215.481
944.162,210.753
945.613,211.04
947.063,201.644
948.513,199.113
949.964,206.346
951.414,208.516
952.864,201.496
954.315,206.336
955.765,211.668
957.215,211.033
958.666,209.498
960.116,207.947
961.566,206.546
963.017,205.417
964.467,199.722
965.917,206.804
967.368,206.784
968.818,207.711
970.268,203.761
971.719,200.179
973.169,202.423
974.619,206.206
976.07,209.825
977.52,205.628
978.97,214.987
980.421,212.831
981.871,212.546
983.321,211.674
984.772,207.645
986.222,214.396
987.672,204.536
989.123,212.374
990.573,209.283
992.023,210.055
993.474,210.558
994.924,209.229
996.374,209.751
997.825,212.749
999.275,208.274
1000.73,215.058
1002.18,213.63
1003.63,218.409
1005.08,222.553
1006.53,224.236
1007.98,225.184
1009.43,221.281
1010.88,217.722
1012.33,220.022
1013.78,232.776
1015.23,229.639
1016.68,226.687
1018.13,229.085
1019.58,230.091
1021.03,228.959
1022.48,225.842
1023.93,238.647
1025.38,237.429
1026.83,244.898
1028.28,242.234
1029.73,237.479
1031.18,239.892
1032.63,236.659
1034.08,237.755
1035.53,240.134
1036.98,255.473
1038.43,258.553
1039.88,255.145
1041.33,256.397
1042.78,258.208
1044.23,252.833
1045.69,262.729
1047.14,259.288
1048.59,257.077
1050.04,261.055
1051.49,260.085
1052.94,262.485
1054.39,269.766
1055.84,272.943
1057.29,271.197
1058.74,277.425
1060.19,280.148
1061.64,276.976
1063.09,284.314
1064.54,289.664
1065.99,290.998
1067.44,294.212
1068.89,299.885
1070.34,309.275
1071.79,305.028
1073.24,301.141
1074.69,295.335
1076.14,297.217
1077.59,303.59
1079.04,307.936
1080.49,308.809
1081.94,307.495
1083.39,296.731
1084.84,316.415
1086.29,314.673
1087.74,306.189
1089.2,309.076
1090.65,312.559
1092.1,306.948
1093.55,303.572
1095,302.578
1096.45,298.719
1097.9,297.467
1099.35,299.289
1100.8,298.323
1102.25,302.036
1103.7,295.663
1105.15,283.942
1106.6,308.206
1108.05,305.762
1109.5,292.552
1110.95,291.721
1112.4,290.4
1113.85,292.488
1115.3,294.964
1116.75,293.166
1118.2,288.764
1119.65,287.517
1121.1,280.215
1122.55,292.496
1124,282.752
1125.45,279.657
1126.9,284.619
1128.35,284.225
1129.8,282.04
1131.25,284.891
1132.7,274.543
1134.16,284.03
1135.61,288.174
1137.06,276.822
1138.51,276.613
1139.96,273.776
1141.41,272.898
1142.86,273.143
1144.31,269.739
1145.76,276.989
1147.21,273.884
1148.66,268.12
1150.11,276.622
1151.56,272.499
1153.01,264.783
1154.46,265.62
1155.91,269.352
1157.36,269.566
1158.81,277.215
1160.26,275.554
1161.71,259.984
1163.16,274.232
1164.61,271.282
1166.06,270.501
1167.51,274.043
1168.96,273.992
1170.41,270.014
1171.86,269.15
1173.31,266.829
1174.76,264.009
1176.21,269.722
1177.66,267.772
1179.12,267.483
1180.57,269.035
1182.02,271.236
1183.47,271.602
1184.92,271.072
1186.37,278.653
1187.82,271.383
1189.27,276.09
1190.72,274.511
1192.17,272.189
1193.62,271.383
1195.07,266.67
1196.52,266.916
1197.97,277.478
1199.42,280.452
1200.87,277.698
1202.32,279.991
1203.77,265.519
1205.22,274.414
1206.67,275.497
1208.12,268.903
1209.57,269.679
1211.02,274.588
1212.47,273.71
1213.92,280.225
1215.37,272.079
1216.82,280.454
1218.27,278.193
1219.72,284.704
1221.17,283.853
1222.63,278.352
1224.08,278.851
1225.53,281.275
1226.98,274.061
1228.43,270.473
1229.88,287.036
1231.33,275.129
1232.78,289.148
1234.23,284.221
1235.68,288.76
1237.13,292.496
1238.58,293.239
1240.03,294.313
1241.48,292.721
1242.93,302.825
1244.38,292.946
1245.83,284.137
1247.28,289.986
1248.73,304.631
1250.18,303.146
1251.63,295.575
1253.08,297.219
1254.53,302.628
1255.98,302.196
1257.43,310.768
1258.88,315.681
1260.33,307.536
1261.78,314.132
1263.23,317.376
1264.68,313.426
1266.13,316.147
1267.59,325.114
1269.04,333.043
1270.49,335.255
1271.94,330.949
1273.39,345.737
1274.84,341.517
1276.29,341.465
1277.74,350.857
1279.19,350.732
1280.64,358.957
1282.09,365.498
1283.54,371.711
1284.99,382.403
1286.44,384.007
1287.89,389.172
1289.34,377.683
1290.79,402.475
1292.24,411.85
1293.69,414.267
1295.14,425.54
1296.59,440.006
1298.04,446.739
1299.49,454.003
1300.94,471.974
1302.39,483.946
1303.84,485.391
1305.29,493.986
1306.74,510.858
1308.19,519.681
1309.64,537.905
1311.09,561.593
1312.55,582.325
1314,597.703
1315.45,616.352
1316.9,639.254
1318.35,650.351
1319.8,677.886
1321.25,687.183
1322.7,694.103
1324.15,728.023
1325.6,727.475
1327.05,724.172
1328.5,723.859
1329.95,728.546
1331.4,739.895
1332.85,746.051
1334.3,740.81
1335.75,741.676
1337.2,716.752
1338.65,710.981
1340.1,688.976
1341.55,686.623
1343,671.417
1344.45,647.402
1345.9,636.685
1347.35,631.222
1348.8,608.632
1350.25,578.644
1351.7,557.916
1353.15,553.344
1354.6,557.735
1356.06,540.77
1357.51,505.847
1358.96,487.271
1360.41,485.444
1361.86,481.227
1363.31,473.619
1364.76,469.512
1366.21,458.595
1367.66,435.242
1369.11,430.533
1370.56,437.552
1372.01,426.547
1373.46,425.73
1374.91,417.143
1376.36,420.733
1377.81,416.098
1379.26,405.052
1380.71,399.296
1382.16,399.67
1383.61,403.607
1385.06,393.554
1386.51,379.735
1387.96,393.51
1389.41,394.796
1390.86,402.397
1392.31,400.85
1393.76,388.394
1395.21,392.583
1396.66,391.059
1398.11,386.885
1399.56,401.743
1401.02,404.337
1402.47,402.126
1403.92,399.559
1405.37,405.224
1406.82,408.619
1408.27,408.425
1409.72,399.677
1411.17,411.287
1412.62,414.994
1414.07,402.318
1415.52,400.367
1416.97,411.949
1418.42,414.431
1419.87,423.923
1421.32,424.213
1422.77,427.528
1424.22,415.618
1425.67,421.814
1427.12,441.984
1428.57,431.409
1430.02,430.764
1431.47,437.803
1432.92,439.348
1434.37,442.002
1435.82,448.995
1437.27,456.577
1438.72,473.963
1440.17,462.583
1441.62,457.587
1443.07,466.55
1444.53,458.382
1445.98,471.574
1447.43,484.68
1448.88,490.036
1450.33,484.421
1451.78,483.121
1453.23,497.497
1454.68,511.475
1456.13,511.579
1457.58,515.719
1459.03,522.374
1460.48,532.664
1461.93,520.667
1463.38,546.037
1464.83,555.334
1466.28,555.166
1467.73,561.918
1469.18,571.104
1470.63,586.02
1472.08,605.064
1473.53,616.034
1474.98,620.179
1476.43,626.841
1477.88,641.21
1479.33,633.231
1480.78,661.284
1482.23,674.631
1483.68,685.359
1485.13,711.962
1486.58,720.982
1488.03,726.903
1489.49,751.984
1490.94,773.141
1492.39,780.284
1493.84,794.195
1495.29,813.511
1496.74,850.091
1498.19,865.688
1499.64,898.813
1501.09,895.041
1502.54,953.734
1503.99,993.544
1505.44,1023.13
1506.89,1066.2
1508.34,1109.23
1509.79,1151.51
1511.24,1200.27
1512.69,1257.74
1514.14,1323.84
1515.59,1394.22
1517.04,1464.79
1518.49,1541.12
1519.94,1625.99
1521.39,1746.85
1522.84,1878.6
1524.29,1989.28
1525.74,2111.37
1527.19,2300.75
1528.64,2476.66
1530.09,2645.28
1531.54,2849.07
1532.99,3082.1
1534.45,3341.52
1535.9,3622.55
1537.35,3887.21
1538.8,4198.59
1540.25,4475.61
1541.7,4836.02
1543.15,5200.64
1544.6,5628.93
1546.05,5934.38
1547.5,6266.24
1548.95,6621.38
1550.4,7014.68
1551.85,7337.33
1553.3,7349.01
1554.75,7361.04
1556.2,7382.1
1557.65,7400.15
1559.1,7413.39
1560.55,7460.33
1562,7437.46
1563.45,7431.62
1564.9,7428.25
1566.35,7414.35
1567.8,7356.95
1569.25,6992.84
1570.7,6586.36
1572.15,6174.35
1573.6,5770.05
1575.05,5375.5
1576.5,4970.62
1577.96,4573.1
1579.41,4221.63
1580.86,3907.16
1582.31,3595
1583.76,3290.28
1585.21,3071.4
1586.66,2836.91
1588.11,2656.55
1589.56,2468.04
1591.01,2308.02
1592.46,2147.52
1593.91,2030.99
1595.36,1899.04
1596.81,1798.52
1598.26,1708.97
1599.71,1611.84
1601.16,1530.97
1602.61,1456.06
1604.06,1379.26
1605.51,1312.43
1606.96,1253.13
1608.41,1189.51
1609.86,1155.05
1611.31,1102.69
1612.76,1047.58
1614.21,1023.78
1615.66,982.021
1617.11,941.555
1618.56,908.273
1620.01,882.879
1621.46,862.041
1622.92,832.003
1624.37,801.218
1625.82,773.075
1627.27,760.474
1628.72,747.79
1630.17,717.197
1631.62,700.812
1633.07,702.01
1634.52,680.034
1635.97,680.197
1637.42,668.631
1638.87,640.837
1640.32,633.737
1641.77,629.735
1643.22,620.041
1644.67,607.158
1646.12,595.603
1647.57,591.442
1649.02,581.34
1650.47,570.659
1651.92,565.35
1653.37,565.489
1654.82,560.119
1656.27,563.932
1657.72,548.699
1659.17,545.79
1660.62,529.633
1662.07,522.525
1663.52,513.126
1664.97,518.32
1666.42,503.813
1667.88,504.43
1669.33,491.679
1670.78,483.633
1672.23,493.987
1673.68,494.402
1675.13,490.029
1676.58,482.942
1678.03,482.608
1679.48,486.442
1680.93,477.768
1682.38,465.59
1683.83,472.784
1685.28,459.775
1686.73,452.444
1688.18,444.184
1689.63,448.102
1691.08,459.157
1692.53,456.817
1693.98,444.291
1695.43,446.28
1696.88,452.516
1698.33,450.059
1699.78,446.91
1701.23,444.982
1702.68,448.158
1704.13,440.717
1705.58,446.359
1707.03,439.595
1708.48,447.822
1709.93,425.574
1711.39,429.931
1712.84,446.538
1714.29,434.621
1715.74,428.268
1717.19,433.636
1718.64,440.233
1720.09,434.616
1721.54,438.764
1722.99,439.131
1724.44,429.929
1725.89,434.016
1727.34,436.174
1728.79,426.313
1730.24,430.814
1731.69,429.938
1733.14,427.954
1734.59,419.522
1736.04,436.721
1737.49,423.81
1738.94,412.676
1740.39,408.954
1741.84,404.668
1743.29,404.077
1744.74,411.946
1746.19,412.216
1747.64,414.093
1749.09,403.48
1750.54,410.281
1751.99,404.349
1753.44,390.02
1754.89,394.392
1756.35,399.295
1757.8,391.489
1759.25,394.212
1760.7,397.959
1762.15,383.934
1763.6,389.529
1765.05,387.439
1766.5,390.172
1767.95,382.122
1769.4,379.755
1770.85,376.712
1772.3,386.938
1773.75,371.899
1775.2,382.568
1776.65,370.795
1778.1,369.476
1779.55,373.173
1781,368.75
1782.45,373.285
1783.9,375.18
1785.35,374.139
1786.8,373.707
1788.25,379.37
1789.7,374.25
1791.15,368.326
1792.6,371.63
1794.05,362.727
1795.5,363.846
1796.95,368.264
1798.4,377.213
1799.85,379.368
1801.31,368.724
1802.76,358.863
1804.21,361.609
1805.66,368.681
1807.11,368.248
1808.56,355.378
1810.01,359.423
1811.46,350.76
1812.91,348.912
1814.36,362.628
1815.81,363.519
1817.26,362.947
1818.71,354.063
1820.16,352.716
1821.61,357.491
1823.06,356.672
1824.51,360.166
1825.96,363.073
1827.41,362.948
1828.86,364.604
1830.31,363.206
1831.76,368.082
1833.21,369.346
1834.66,359.978
1836.11,369.458
1837.56,362.107
1839.01,362.813
1840.46,369.09
1841.91,367.518
1843.36,379.493
1844.82,372.702
1846.27,368.348
1847.72,366.113
1849.17,376.619
1850.62,370.363
1852.07,382.532
1853.52,369.972
1854.97,372.193
1856.42,376.17
1857.87,379.502
1859.32,380.977
1860.77,377.535
1862.22,368.374
1863.67,370.419
1865.12,373.921
1866.57,377.467
1868.02,377.033
1869.47,369.323
1870.92,371.437
1872.37,376.597
1873.82,377.791
1875.27,381.175
1876.72,371.487
1878.17,365.381
1879.62,366.595
1881.07,370.237
1882.52,372.785
1883.97,365.779
1885.42,369.342
1886.87,359.429
1888.32,366.7
1889.78,372.983
1891.23,349.612
1892.68,354.427
1894.13,354.421
1895.58,357.353
1897.03,355.63
1898.48,359.194
1899.93,351.467
1901.38,347.327
1902.83,348.193
1904.28,349.769
1905.73,346.112
1907.18,353.247
1908.63,351.259
1910.08,357.942
1911.53,352.685
1912.98,343.311
1914.43,348.509
1915.88,349.849
1917.33,346.91
1918.78,347.317
1920.23,347.795
1921.68,347.085
1923.13,342.834
1924.58,344.557
1926.03,346.914
1927.48,344.629
1928.93,350.265
1930.38,343.553
1931.83,353.063
1933.29,338.96
1934.74,344.726
1936.19,344.218
1937.64,339.065
1939.09,341.962
1940.54,340.659
1941.99,349.992
1943.44,341.868
1944.89,344.935
1946.34,346.258
1947.79,347.872
1949.24,337.572
1950.69,349.694
1952.14,352.409
1953.59,358.127
1955.04,361.867
1956.49,348.466
1957.94,351.287
1959.39,348.789
1960.84,340.373
1962.29,355.6
1963.74,349.975
1965.19,356.311
1966.64,358.236
1968.09,348.281
1969.54,347.272
1970.99,346.021
1972.44,348.188
1973.89,352.556
1975.34,358.156
1976.79,365.186
1978.25,366.005
1979.7,361.641
1981.15,360.4
1982.6,363.609
1984.05,364.679
1985.5,357.525
1986.95,355.768
1988.4,361.278
1989.85,357.384
1991.3,360.98
1992.75,361.643
1994.2,354.329
1995.65,363.342
1997.1,351.338
1998.55,354.373
2000,351.954
2001.45,359.662
2002.9,361.202
2004.35,369.593
2005.8,363.635
2007.25,355.789
2008.7,358.718
2010.15,355.453
2011.6,350.016
2013.05,346.352
2014.5,347.795
2015.95,354.61
2017.4,350.73
2018.85,347.559
2020.3,356.821
2021.75,362.13
2023.21,363.287
2024.66,358.615
2026.11,341.398
2027.56,366.514
2029.01,345.247
2030.46,349.999
2031.91,341.013
2033.36,354.011
2034.81,337.379
2036.26,363.632
2037.71,344.19
2039.16,350.118
2040.61,348.168
2042.06,336.498
2043.51,349.475
2044.96,349.156
2046.41,334.66
2047.86,334.852
2049.31,351.079
2050.76,332.525
2052.21,334.53
2053.66,328.982
2055.11,334.175
2056.56,341.292
2058.01,341.211
2059.46,339.011
2060.91,330.284
2062.36,328.576
2063.81,330.943
2065.26,331.142
2066.72,335.635
2068.17,334.167
2069.62,330.016
2071.07,336.064
2072.52,328.096
2073.97,328.78
2075.42,330.881
2076.87,331.669
2078.32,339.551
2079.77,336.515
2081.22,331.58
2082.67,325.114
2084.12,327.422
2085.57,328.534
2087.02,323.366
2088.47,328.18
2089.92,328.722
2091.37,329.102
2092.82,327.043
2094.27,330.365
2095.72,332.154
2097.17,328.987
2098.62,330.623
2100.07,323.848
2101.52,332.001
2102.97,333.136
2104.42,328.638
2105.87,332.619
2107.32,334.695
2108.77,335.627
2110.22,338.558
2111.68,340.708
2113.13,339.635
2114.58,333.739
2116.03,330.887
2117.48,331.003
2118.93,334.824
2120.38,339.078
2121.83,336.923
2123.28,338.889
2124.73,342.363
2126.18,343.171
2127.63,341.288
2129.08,339.941
2130.53,343.451
2131.98,344.855
2133.43,335.223
2134.88,336.902
2136.33,344.678
2137.78,339.933
2139.23,338.643
2140.68,340.37
2142.13,341.753
2143.58,350.792
2145.03,347.264
2146.48,345.393
2147.93,345.429
2149.38,345.146
2150.83,351.551
2152.28,349.233
2153.73,349.756
2155.18,353.195
2156.64,353.109
2158.09,349.183
2159.54,357.242
2160.99,356.251
2162.44,354.224
2163.89,362.138
2165.34,359.084
2166.79,357.29
2168.24,355.55
2169.69,356.735
2171.14,359.611
2172.59,355.801
2174.04,358.7
2175.49,368.286
2176.94,363.824
2178.39,367.025
2179.84,368.835
2181.29,365.282
2182.74,361.411
2184.19,365.452
2185.64,360.677
2187.09,360.725
2188.54,359.948
2189.99,361.781
2191.44,361.859
2192.89,363.023
2194.34,367.172
2195.79,373.876
2197.24,365.996
2198.69,369.391
2200.15,366.657
2201.6,367.556
2203.05,360.877
2204.5,362.352
2205.95,368.985
2207.4,371.573
2208.85,367.479
2210.3,369.75
2211.75,376.339
2213.2,384.875
2214.65,370.337
2216.1,379.502
2217.55,378.206
2219,370.024
2220.45,378.66
2221.9,377.373
2223.35,379.733
2224.8,385.138
2226.25,392.325
2227.7,378.011
2229.15,384.378
2230.6,390.958
2232.05,380.07
2233.5,376.041
2234.95,371.09
2236.4,388.722
2237.85,393.76
2239.3,383.012
2240.75,386.325
2242.2,389.53
2243.65,378.747
2245.11,390.145
2246.56,396.203
2248.01,391.84
2249.46,386.628
2250.91,396.462
2252.36,396.571
2253.81,408.034
2255.26,397.373
2256.71,390.304
2258.16,397.071
2259.61,406.644
2261.06,399.929
2262.51,389.548
2263.96,398.008
2265.41,408.325
2266.86,402.043
2268.31,409.583
2269.76,405.547
2271.21,399.884
2272.66,410.311
2274.11,408.431
2275.56,401.898
2277.01,406.061
2278.46,407.042
2279.91,407.042
2281.36,404.977
2282.81,414.397
2284.26,417.838
2285.71,413.488
2287.16,407.893
2288.61,417.136
2290.07,421.867
2291.52,428.982
2292.97,425.647
2294.42,427.436
2295.87,426.967
2297.32,419.715
2298.77,421.635
2300.22,423.425
2301.67,414.362
2303.12,431.817
2304.57,433.603
2306.02,432.836
2307.47,421.851
2308.92,426.843
2310.37,441.878
2311.82,438.98
2313.27,433.582
2314.72,426.458
2316.17,434.632
2317.62,435.428
2319.07,460.199
2320.52,450.622
2321.97,445.595
2323.42,460.367
2324.87,450.642
2326.32,455.414
2327.77,460.037
2329.22,456.853
2330.67,456.583
2332.12,466.905
2333.57,467.408
2335.03,474.527
2336.48,456.07
2337.93,464.761
2339.38,473.622
2340.83,472.948
2342.28,480.404
2343.73,481.816
2345.18,479.19
2346.63,488.358
2348.08,480.993
2349.53,481.285
2350.98,499.098
2352.43,500.043
2353.88,507.219
2355.33,505.739
2356.78,508.01
2358.23,519.431
2359.68,518.544
2361.13,512.697
2362.58,514.552
2364.03,531.529
2365.48,533.396
2366.93,559.207
2368.38,531.456
2369.83,544.198
2371.28,542.209
2372.73,562.069
2374.18,565.37
2375.63,572.412
2377.08,582.007
2378.54,584.821
2379.99,592.273
2381.44,601.607
2382.89,606.285
2384.34,610.094
2385.79,610.636
2387.24,622.677
2388.69,628.038
2390.14,640.584
2391.59,656.35
2393.04,654.761
2394.49,645.2
2395.94,653.257
2397.39,676.52
2398.84,699.994
2400.29,687.099
2401.74,703.201
2403.19,704.356
2404.64,725.375
2406.09,734.828
2407.54,720.79
2408.99,726.747
2410.44,733.625
2411.89,725.923
2413.34,747.26
2414.79,758.747
2416.24,747.675
2417.69,740.467
2419.14,749.378
2420.59,747.266
2422.04,727.216
2423.5,741.098
2424.95,748.578
2426.4,736.543
2427.85,728.54
2429.3,732.867
2430.75,739.75
2432.2,739.119
2433.65,730.201
2435.1,714.219
2436.55,730.111
2438,717.853
2439.45,717.907
2440.9,724.298
2442.35,714.285
2443.8,715.717
2445.25,704.651
2446.7,715.904
2448.15,706.414
2449.6,700.788
2451.05,691.172
2452.5,695.577
2453.95,681.731
2455.4,698.032
2456.85,683.723
2458.3,684.084
2459.75,690.595
2461.2,693.537
2462.65,686.365
2464.1,686.19
2465.55,680.774
2467.01,679.998
2468.46,683.633
2469.91,683.741
2471.36,680.221
2472.81,683.284
2474.26,686.665
2475.71,679.469
2477.16,691.642
2478.61,695.162
2480.06,704.2
2481.51,700.77
2482.96,701.372
2484.41,687.255
2485.86,704.128
2487.31,712.281
2488.76,709.224
2490.21,705.831
2491.66,703.791
2493.11,702.858
2494.56,710.013
2496.01,698.128
2497.46,696.817
2498.91,704.128
2500.36,705.993
2501.81,701.733
2503.26,721.981
2504.71,724.256
2506.16,732.361
2507.61,747.002
2509.06,719.863
2510.51,754.908
2511.97,741.929
2513.42,749.751
2514.87,760.324
2516.32,770.379
2517.77,769.488
2519.22,774.615
2520.67,788.708
2522.12,795.447
2523.57,807.608
2525.02,805.622
2526.47,814.546
2527.92,818.752
2529.37,805.785
2530.82,825.624
2532.27,842.828
2533.72,838.086
2535.17,844.392
2536.62,858.63
2538.07,880.876
2539.52,868.492
2540.97,894.024
2542.42,896.99
2543.87,936.933
2545.32,943.757
2546.77,939.732
2548.22,960.973
2549.67,973.435
2551.12,982.864
2552.57,984.531
2554.02,1006.91
2555.48,1028.2
2556.93,1054.63
2558.38,1067.41
2559.83,1079.27
2561.28,1096.66
2562.73,1137.03
2564.18,1149.36
2565.63,1170.97
2567.08,1199.74
2568.53,1215.27
2569.98,1249.87
2571.43,1296.02
2572.88,1320.55
2574.33,1319.67
2575.78,1361.13
2577.23,1397.01
2578.68,1425.49
2580.13,1465.85
2581.58,1498.67
2583.03,1525.65
2584.48,1569.74
2585.93,1607.71
2587.38,1639.91
2588.83,1704.77
2590.28,1769.22
2591.73,1835.87
2593.18,1858.32
2594.63,1907.46
2596.08,1975.89
2597.53,2028.55
2598.98,2117.76
2600.44,2178
2601.89,2257.68
2603.34,2338.53
2604.79,2406.61
2606.24,2498.04
2607.69,2560.87
2609.14,2666.33
2610.59,2720.26
2612.04,2832.76
2613.49,2908.09
2614.94,3024.15
2616.39,3116.06
2617.84,3186.12
2619.29,3285.56
2620.74,3379.09
2622.19,3473.59
2623.64,3593.62
2625.09,3652.18
2626.54,3744.55
2627.99,3838.05
2629.44,3948.8
2630.89,4051.78
2632.34,4147.37
2633.79,4218.24
2635.24,4343.66
2636.69,4371.56
2638.14,4439.8
2639.59,4529.85
2641.04,4556.85
2642.49,4614.35
2643.94,4647.71
2645.4,4661.14
2646.85,4680.82
2648.3,4690.93
2649.75,4658.82
2651.2,4665.39
2652.65,4607.61
2654.1,4630.01
2655.55,4563.68
2657,4523.57
2658.45,4446.5
2659.9,4368.81
2661.35,4288.14
2662.8,4217.71
2664.25,4119.73
2665.7,4060.85
2667.15,3989.18
2668.6,3864.81
2670.05,3785.54
2671.5,3697.42
2672.95,3540.85
2674.4,3478.35
2675.85,3371.28
2677.3,3248.98
2678.75,3160.09
2680.2,3090.79
2681.65,2946.82
2683.1,2865.35
2684.55,2768.88
2686,2696.65
2687.45,2597.5
2688.91,2491.55
2690.36,2402.85
2691.81,2330.11
2693.26,2253.41
2694.71,2138.79
2696.16,2073.35
2697.61,2046.11
2699.06,1941.93
2700.51,1892.35
2701.96,1860.3
2703.41,1791.94
2704.86,1709.47
2706.31,1662.46
2707.76,1592.98
2709.21,1570.56
2710.66,1520.55
2712.11,1465.07
2713.56,1428.04
2715.01,1403.77
2716.46,1359.1
2717.91,1326.86
2719.36,1285.24
2720.81,1265.48
2722.26,1240.76
2723.71,1198.91
2725.16,1161.4
2726.61,1139.01
2728.06,1123.66
2729.51,1107.46
2730.96,1078.87
2732.41,1041.76
2733.87,1042.27
2735.32,1006.76
2736.77,996.283
2738.22,978.086
2739.67,965.612
2741.12,952.47
2742.57,922.107
2744.02,913.779
2745.47,912.611
2746.92,884.763
2748.37,885.208
2749.82,862.12
2751.27,864.514
2752.72,840.698
2754.17,843.604
2755.62,822.399
2757.07,801.176
2758.52,795.574
2759.97,792.222
2761.42,772.75
2762.87,767.051
2764.32,770.337
2765.77,757.911
2767.22,730.737
2768.67,758.693
2770.12,739.961
2771.57,734.973
2773.02,724.539
2774.47,725.971
2775.92,722.108
2777.38,710.157
2778.83,709.507
2780.28,699.939
2781.73,694.175
2783.18,683.909
2784.63,684.824
2786.08,678.807
2787.53,657.204
2788.98,668.15
2790.43,675.323
2791.88,665.593
2793.33,656.482
2794.78,646.223
2796.23,644.448
2797.68,650.892
2799.13,642.161
2800.58,642.865
2802.03,634.549
2803.48,629.741
2804.93,636.101
2806.38,625.908
2807.83,613.53
2809.28,618.212
2810.73,610.991
2812.18,616.455
2813.63,616.876
2815.08,621.882
2816.53,605.395
2817.98,610.221
2819.43,616.87
2820.88,605.684
2822.33,596.418
2823.79,601.716
2825.24,594.405
2826.69,589.088
2828.14,585.137
2829.59,586.402
2831.04,595.06
2832.49,599.389
2833.94,572.269
2835.39,570.749
2836.84,572.511
2838.29,567.5
2839.74,567.503
2841.19,571.016
2842.64,581.076
2844.09,578.939
2845.54,572.372
2846.99,569.064
2848.44,567.496
2849.89,559.019
2851.34,568.258
2852.79,562.093
2854.24,555.85
2855.69,563.778
2857.14,577.505
2858.59,562.356
2860.04,554.761
2861.49,562.703
2862.94,551.565
2864.39,552.931
2865.84,565.019
2867.3,562.152
2868.75,561.044
2870.2,560.918
2871.65,550.852
2873.1,554.689
2874.55,566.141
2876,560.508
2877.45,562.238
2878.9,563.546
2880.35,560.278
2881.8,547.716
2883.25,552.331
2884.7,553.287
2886.15,553.184
2887.6,551.665
2889.05,546.506
2890.5,555.484
2891.95,560.724
2893.4,555.594
2894.85,558.952
2896.3,558.695
2897.75,550.749
2899.2,549.519
2900.65,548.722
2902.1,545.229
2903.55,542.922
2905,543.538
2906.45,545.17
2907.9,546.706
2909.35,541.983
2910.8,532.304
2912.26,531.875
2913.71,537.227
2915.16,518.732
2916.61,540.276
2918.06,532.557
2919.51,520.537
2920.96,532.206
2922.41,529.737
2923.86,528.41
2925.31,523.763
2926.76,515.624
2928.21,511.962
2929.66,510.7
2931.11,507.8
2932.56,502.201
2934.01,513.511
2935.46,502.995
2936.91,502.991
2938.36,500.925
2939.81,495.049
2941.26,489.608
2942.71,494.224
2944.16,496.45
2945.61,494.71
2947.06,493.919
2948.51,495.718
2949.96,484.844
2951.41,483.455
2952.86,491.324
2954.31,482.931
2955.77,479.703
2957.22,485.871
2958.67,480.34
2960.12,472.516
2961.57,494.654
2963.02,479.176
2964.47,476.965
2965.92,475.112
2967.37,477.975
2968.82,476.67
2970.27,481.026
2971.72,469.277
2973.17,470.61
2974.62,470.067
2976.07,464.737
2977.52,465.18
2978.97,469.056
2980.42,464.392
2981.87,471.898
2983.32,475.938
2984.77,470.485
2986.22,462.751
2987.67,468.009
2989.12,471.861
2990.57,474.275
2992.02,469.532
2993.47,461.812
2994.92,465.952
2996.37,473.983
2997.82,471.858
2999.27,476.319
3000.73,459.645
3002.18,469.978
3003.63,460.984
3005.08,467.048
3006.53,464.72
3007.98,453.502
3009.43,451.255
3010.88,457.359
3012.33,465.28
3013.78,475.183
3015.23,454.31
3016.68,462.453
3018.13,455.719
3019.58,462.139
3021.03,463.139
3022.48,455.116
3023.93,464.86
3025.38,473.805
3026.83,459.969
3028.28,466.167
3029.73,478.31
3031.18,479.547
3032.63,471.501
3034.08,480.013
3035.53,482.546
3036.98,454.157
3038.43,474.399
3039.88,476.969
3041.33,473.371
3042.78,472.486
3044.23,465.699
3045.69,465.584
3047.14,462.641
3048.59,472.525
3050.04,478.96
3051.49,465.541
3052.94,464.219
3054.39,473.814
3055.84,481.862
3057.29,479.307
3058.74,471.833
3060.19,483.61
3061.64,489.475
3063.09,493.143
3064.54,496.037
3065.99,493.823
3067.44,481.349
3068.89,491.756
3070.34,500.976
3071.79,515.497
3073.24,493.551
3074.69,504.812
3076.14,503.931
3077.59,507.278
3079.04,522.387
3080.49,521.593
3081.94,532.468
3083.39,528.241
3084.84,541.164
3086.29,533.155
3087.74,538.275
3089.2,540.958
3090.65,550.065
3092.1,553.381
3093.55,555.815
3095,553.9
3096.45,557.677
3097.9,566.454
3099.35,579.732
3100.8,585.29
3102.25,579.445
3103.7,597.193
3105.15,600.829
3106.6,594.236
3108.05,609.252
3109.5,597.451
3110.95,609.083
3112.4,612.243
3113.85,630.373
3115.3,627.569
3116.75,634.663
3118.2,629.898
3119.65,640.025
3121.1,644.586
3122.55,646.09
3124,649.514
3125.45,646.909
3126.9,653.606
3128.35,663.811
3129.8,654.701
3131.25,655.838
3132.7,665.966
3134.16,660.983
3135.61,660.767
3137.06,672.47
3138.51,655.802
3139.96,666.465
3141.41,670.473
3142.86,662.704
3144.31,675.112
3145.76,675.323
3147.21,677.519
3148.66,667.669
3150.11,666.82
3151.56,656.795
3153.01,663.294
3154.46,675.13
3155.91,679.396
3157.36,686.473
3158.81,694.145
3160.26,673.481
3161.71,686.316
3163.16,693.531
3164.61,691.798
3166.06,684.86
3167.51,705.145
3168.96,699.705
3170.41,699.151
3171.86,709.814
3173.31,715.519
3174.76,719.388
3176.21,707.112
3177.67,718.63
3179.12,713.93
3180.57,724.184
3182.02,741.171
3183.47,731.471
3184.92,716.138
3186.37,727.006
3187.82,723.799
3189.27,711.944
3190.72,727.969
3192.17,714.616
3193.62,709.91
3195.07,706.366
3196.52,705.066
3197.97,688.332
3199.42,660.345
3200.87,673.993
3202.32,668.481
3203.77,658.221
3205.22,657.421
3206.67,647.607
3208.12,640.295
3209.57,626.805
3211.02,611.412
3212.47,625.198
3213.92,604.005
3215.37,587.136
3216.82,587.969
3218.27,576.038
3219.72,564.886
3221.17,566.155
3222.63,561.865
3224.08,560.626
3225.53,550.953
3226.98,546.811
3228.43,520.711
3229.88,537.2
3231.33,523.97
3232.78,510.34
3234.23,499.48
3235.68,504.004
3237.13,501.53
3238.58,499.818
3240.03,484.849
3241.48,478.182
3242.93,481.745
3244.38,487.841
3245.83,484.838
3247.28,486.051
3248.73,474.231
3250.18,478.803
3251.63,476.822
3253.08,476.292
3254.53,469.943
3255.98,452.757
3257.43,462.513
3258.88,462.292
3260.33,457.657
3261.78,457.236
3263.23,455.182
3264.68,465.787
3266.13,459.211
3267.59,448.526
3269.04,454.861
3270.49,462.931
3271.94,459.256
3273.39,446.691
3274.84,454.894
3276.29,450.427
3277.74,447.296
3279.19,458.62
3280.64,445.787
3282.09,451.821
3283.54,447.014
3284.99,453.15
3286.44,450.129
3287.89,445.983
3289.34,456.291
3290.79,456.355
3292.24,440.81
3293.69,459.739
3295.14,459.089
3296.59,451.399
3298.04,447.632
3299.49,446.508
3300.94,442.767
3302.39,449.25
3303.84,438.921
3305.29,445.58
3306.74,456.981
3308.19,448.464
3309.64,440.355
3311.09,444.232
3312.55,452.953
3314,449.992
3315.45,434.919
3316.9,442.041
3318.35,453.11
3319.8,436.797
3321.25,451.79
3322.7,443.042
3324.15,446.082
3325.6,451.742
3327.05,453.162
3328.5,441.254
3329.95,450.875
3331.4,455.945
3332.85,441.33
3334.3,437.485
3335.75,442.354
3337.2,445.628
3338.65,443.759
3340.1,445.263
3341.55,449.854
3343,449.247
3344.45,443.08
3345.9,448.112
3347.35,441.093
3348.8,434.04
3350.25,449.377
3351.7,444.415
3353.15,442.93
3354.6,449.136
3356.06,442.54
3357.51,446.462
3358.96,446.344
3360.41,442.758
3361.86,443.933
3363.31,440.505
3364.76,441.068
3366.21,445.167
3367.66,447.464
3369.11,447.991
3370.56,457.901
3372.01,454.388
3373.46,469.016
3374.91,449.567
3376.36,448.197
3377.81,444.486
3379.26,449.488
3380.71,439.026
3382.16,450.752
3383.61,447.02
3385.06,457.853
3386.51,450.38
3387.96,443.325
3389.41,432.958
3390.86,446.393
3392.31,450.031
3393.76,442.866
3395.21,449.466
3396.66,449.297
3398.11,460.771
3399.56,455.283
3401.02,456.105
3402.47,452.619
3403.92,443.762
3405.37,435.807
3406.82,454.621
3408.27,440.538
3409.72,443.832
3411.17,450.002
3412.62,451.775
3414.07,450.237
3415.52,453.266
3416.97,443.297
3418.42,454.005
3419.87,444.191
3421.32,446.823
3422.77,450.876
3424.22,456.942
3425.67,460.186
3427.12,462.485
3428.57,459.574
3430.02,450.04
3431.47,455.774
3432.92,460.172
3434.37,445.511
3435.82,453.464
3437.27,454.899
3438.72,453.645
3440.17,455.824
3441.62,447.605
3443.07,448.883
3444.52,453.969
3445.98,432.539
3447.43,457.992
3448.88,456.866
3450.33,453.405
3451.78,451.819
3453.23,455.943
3454.68,456.124
3456.13,454.043
3457.58,454.221
3459.03,449.832
3460.48,446.722
3461.93,465.185
3463.38,457.222
3464.83,461.686
3466.28,466.585
3467.73,466.929
3469.18,460.745
3470.63,453.696
3472.08,460.429
3473.53,468.228
3474.98,463.772
3476.43,446.242
3477.88,467.563
3479.33,465.026
3480.78,465.277
3482.23,458.898
3483.68,471.121
3485.13,442.153
3486.58,461.137
3488.03,469.677
3489.49,465.562
3490.94,452.381
3492.39,453.902
3493.84,459.899
3495.29,468.811
3496.74,468.633
3498.19,456.031
3499.64,463.974
3501.09,463.149
3502.54,470.297
3503.99,460.962
3505.44,463.263
3506.89,468.153
3508.34,471.87
3509.79,463.886
3511.24,466.76
3512.69,466.651
3514.14,463.728
3515.59,483.649
3517.04,469.781
3518.49,472.774
3519.94,471.842
3521.39,466.69
3522.84,474.024
3524.29,472.335
3525.74,470.752
3527.19,478.605
3528.64,463.061
3530.09,470.453
3531.54,474.595
3532.99,481.314
3534.45,478.069
3535.9,457.993
3537.35,473.573
3538.8,472.34
3540.25,469.688
3541.7,470.274
3543.15,466.902
3544.6,479.982
3546.05,468.11
3547.5,468.443
3548.95,473.533
3550.4,479.126
3551.85,475.19
3553.3,470.591
3554.75,464.062
3556.2,462.771
3557.65,475.084
3559.1,465.483
3560.55,471.549
3562,472.09
3563.45,472.644
3564.9,466.213
3566.35,474.805
3567.8,483.995
3569.25,477.704
3570.7,481.837
3572.15,478.736
3573.6,471.666
3575.05,469.076
3576.5,472.311
3577.96,476.057
3579.41,485.173
3580.86,473.497
3582.31,480.754
3583.76,482.407
3585.21,476.462
3586.66,470.501
3588.11,478.285
3589.56,480.303
3591.01,476.389
3592.46,494.584
3593.91,463.329
3595.36,464.964
3596.81,472.914
3598.26,482.769
3599.71,480.035
3601.16,477.813
3602.61,478.167
3604.06,483.098
3605.51,479.586
3606.96,488.569
3608.41,481.266
3609.86,492.862
3611.31,487.381
3612.76,481.539
3614.21,485.449
3615.66,486.087
3617.11,492.229
3618.56,478.35
3620.01,489.171
3621.46,500.367
3622.92,498.742
3624.37,489.222
3625.82,478.995
3627.27,488.428
3628.72,490.676
3630.17,484.643
3631.62,487.549
3633.07,480.994
3634.52,495.415
3635.97,480.174
3637.42,491.618
3638.87,493.243
3640.32,508.708
3641.77,490.409
3643.22,482.23
3644.67,500.207
3646.12,487.5
3647.57,498.997
3649.02,496.08
3650.47,492.282
3651.92,503.983
3653.37,498.08
3654.82,493.926
3656.27,492.904
3657.72,491.619
3659.17,491.14
3660.62,499.197
3662.07,498.844
3663.52,499.066
3664.97,492.557
3666.43,497.672
3667.88,512.683
3669.33,502.15
3670.78,501.276
3672.23,500.928
3673.68,505.638
3675.13,501.411
3676.58,498.05
3678.03,494.166
3679.48,495.428
3680.93,506.532
3682.38,502.881
3683.83,503.315
3685.28,493.917
3686.73,512.13
3688.18,503.561
3689.63,506.232
3691.08,500.024
3692.53,502.262
3693.98,504.701
3695.43,491.385
3696.88,508.954
3698.33,524.387
3699.78,509.711
3701.23,507.073
3702.68,505.739
3704.13,499.59
3705.58,498.983
3707.03,506.469
3708.48,500.237
3709.93,505.309
3711.39,508.663
3712.84,506.459
3714.29,519.265
3715.74,513.143
3717.19,511.664
3718.64,505.708
3720.09,510.814
3721.54,510.719
3722.99,514.114
3724.44,521.671
3725.89,517.376
3727.34,528.501
3728.79,525.671
3730.24,514.306
3731.69,508.818
3733.14,510.666
3734.59,508.1
3736.04,515.9
3737.49,508.644
3738.94,511.345
3740.39,511.862
3741.84,527.134
3743.29,528.522
3744.74,514.88
3746.19,519.397
3747.64,522.569
3749.09,518.774
3750.54,526.892
3751.99,525.046
3753.44,515.834
3754.89,522.253
3756.35,519.243
3757.8,518.192
3759.25,520.581
3760.7,515.989
3762.15,539.767
3763.6,528.921
3765.05,530.972
3766.5,529.983
3767.95,518.289
3769.4,527.879
3770.85,516.692
3772.3,526.073
3773.75,526.006
3775.2,529.615
3776.65,533.139
3778.1,535.874
3779.55,523.092
3781,523.28
3782.45,542.329
3783.9,533.369
3785.35,532.902
3786.8,535.506
3788.25,534.786
3789.7,551.612
3791.15,541.836
3792.6,528.824
3794.05,528.044
3795.5,539.98
3796.95,542.769
3798.4,525.391
3799.85,539.479
3801.31,541.718
3802.76,534.315
3804.21,534.345
3805.66,540.188
3807.11,540.164
3808.56,531.865
3810.01,529.494
3811.46,544.786
3812.91,533.531
3814.36,536.722
3815.81,553.939
3817.26,543.476
3818.71,547.31
3820.16,553.071
3821.61,547.155
3823.06,546.874
3824.51,543.951
3825.96,543.51
3827.41,542.642
3828.86,551.855
3830.31,550.357
3831.76,551.347
3833.21,560.821
3834.66,541.042
3836.11,539.771
3837.56,536.763
3839.01,546.207
3840.46,547.644
3841.91,552.066
3843.36,557.268
3844.82,551.198
3846.27,560.431
3847.72,558.963
3849.17,558.965
3850.62,560.603
3852.07,556.303
3853.52,554.132
3854.97,559.425
3856.42,545.935
3857.87,571.337
3859.32,563.435
3860.77,570.46
3862.22,558.761
3863.67,560.251
3865.12,550.267
3866.57,568.279
3868.02,564.483
3869.47,564.131
3870.92,573.435
3872.37,555.016
3873.82,572.524
3875.27,569.491
3876.72,574.949
3878.17,573.552
3879.62,561.641
3881.07,565.444
3882.52,579.391
3883.97,570.34
3885.42,577.737
3886.87,573.683
3888.32,572.991
3889.78,578.795
3891.23,579.016
3892.68,567.433
3894.13,567.433
3895.58,568.014
3897.03,582.297
3898.48,584.804
3899.93,587.622
3901.38,580.303
3902.83,588.589
3904.28,593.531
3905.73,582.898
3907.18,590.558
3908.63,586.43
3910.08,576.103
3911.53,583.052
3912.98,598.859
3914.43,588.327
3915.88,596.246
3917.33,593.051
3918.78,596.38
3920.23,587.183
3921.68,603.704
3923.13,588.986
3924.58,593.052
3926.03,605.106
3927.48,606.695
3928.93,590.648
3930.38,600.282
3931.83,619.084
3933.28,597.687
3934.74,612.441
3936.19,618.97
3937.64,613.765
3939.09,606.171
3940.54,595.233
3941.99,610.389
3943.44,616.599
3944.89,603.578
3946.34,604.215
3947.79,609.071
3949.24,601.372
3950.69,628.309
3952.14,617.153
3953.59,604.534
3955.04,622.243
3956.49,630.361
3957.94,620.914
3959.39,626.48
3960.84,645.031
3962.29,615.173
3963.74,635.481
3965.19,611.647
3966.64,639.441
3968.09,640.891
3969.54,632.708
3970.99,629.693
3972.44,627.238
3973.89,631.901
3975.34,641.487
3976.79,613.602
3978.25,641.992
3979.7,648.19
3981.15,634.489
3982.6,648.804
3984.05,651.723
3985.5,629.29
3986.95,650.459
3988.4,666.67
3989.85,646.692
3991.3,646.644
3992.75,649.177
3994.2,640.332
3995.65,651.554
3997.1,639.796
3998.55,657.583
4000,646.59
