-12.7411,22.9348
-11.2893,24.6167
-9.83749,26.1316
-8.3857,32.0795
-6.93391,42.2852
-5.48212,132.817
-4.03034,1448.41
-2.57855,5630.72
-1.12676,20175.6
0.325027,29429.8
1.77681,30427.7
3.2286,20802.8
4.68039,7542.68
6.13218,2117.78
7.58397,255.898
9.03575,55.1606
10.4875,47.8868
11.9393,48.9069
13.3911,51.3683
14.8429,50.7546
16.2947,48.1542
17.7465,45.2182
19.1983,38.1329
20.6501,32.7958
22.1018,29.112
23.5536,26.1677
25.0054,23.1854
26.4572,21.0936
27.909,19.4109
29.3608,18.2654
30.8126,16.4293
32.2644,16.1937
33.7161,14.8192
35.1679,14.2543
36.6197,14.8091
38.0715,16.6783
39.5233,16.7207
40.9751,17.3762
42.4269,19.0912
43.8787,20.7745
45.3304,24.8089
46.7822,28.7598
48.234,40.4133
49.6858,66.1896
51.1376,109.412
52.5894,179.05
54.0412,284.346
55.493,428.332
56.9447,602.303
58.3965,786.909
59.8483,969.303
61.3001,1094.99
62.7519,1191.18
64.2037,1278.8
65.6555,1321.31
67.1073,1363.93
68.559,1387.92
70.0108,1406.53
71.4626,1449.64
72.9144,1477.93
74.3662,1496.03
75.818,1514.15
77.2698,1543.9
78.7216,1604.76
80.1733,1649.84
81.6251,1691.08
83.0769,1712.56
84.5287,1722.91
85.9805,1734.06
87.4323,1703.12
88.8841,1653.36
90.3359,1606.29
91.7877,1546.63
93.2394,1485.36
94.6912,1407.23
96.143,1351.4
97.5948,1303.43
99.0466,1230.07
100.498,1204.43
101.95,1152.65
103.402,1113.37
104.854,1088.37
106.306,1076.31
107.757,1064.14
109.209,1056.64
110.661,1042.02
112.113,1019.77
113.564,1009.61
115.016,1001.31
116.468,982.431
117.92,965.405
119.372,954.078
120.823,937.44
122.275,906.662
123.727,880.939
125.179,857.968
126.631,848.626
128.082,849.132
129.534,816.108
130.986,800.977
132.438,793.738
133.889,775.293
135.341,762.342
136.793,756.237
138.245,741.59
139.697,729.462
141.148,712.658
142.6,709.417
144.052,692.746
145.504,677.015
146.956,668.785
148.407,664.898
149.859,665.593
151.311,647.744
152.763,633.375
154.215,632.397
155.666,632.619
157.118,619.324
158.57,639.931
160.022,645.564
161.473,641.499
162.925,645.659
164.377,671.276
165.829,680.307
167.281,686.507
168.732,695.237
170.184,683.66
171.636,653.249
173.088,629.939
174.54,607.858
175.991,580.878
177.443,573.326
178.895,566.915
180.347,568.455
181.798,560.131
183.25,550.555
184.702,545.662
186.154,544.848
187.606,539.533
189.057,533.464
190.509,528.119
191.961,521.774
193.413,538.238
194.865,534.444
196.316,527.409
197.768,519.841
199.22,528.125
200.672,519.541
202.124,520.628
203.575,522.828
205.027,510.674
206.479,514.214
207.931,516.694
209.382,522.896
210.834,520.43
212.286,508.719
213.738,506.55
215.19,517.935
216.641,517.682
218.093,517.85
219.545,515.716
220.997,504.5
222.449,501.908
223.9,498.622
225.352,504.52
226.804,508.157
228.256,499.971
229.707,497.07
231.159,502.708
232.611,507.317
234.063,508.895
235.515,518.536
236.966,501.612
238.418,503.056
239.87,509.752
241.322,506.033
242.774,496.455
244.225,492.889
245.677,495.925
247.129,495.607
248.581,493.684
250.033,479.557
251.484,490.457
252.936,486.494
254.388,479.905
255.84,478.799
257.291,494.457
258.743,493.136
260.195,477.702
261.647,480.461
263.099,481.478
264.55,462.255
266.002,457.948
267.454,466.85
268.906,470.409
270.358,466.718
271.809,467.848
273.261,470.035
274.713,460.268
276.165,463.375
277.616,460.345
279.068,445.123
280.52,442.552
281.972,454.728
283.424,448.238
284.875,442.666
286.327,439.861
287.779,445.052
289.231,446.315
290.683,438.414
292.134,429.599
293.586,425.266
295.038,433.595
296.49,426.453
297.941,416.871
299.393,425.755
300.845,425.22
302.297,403.177
303.749,403.758
305.2,404.405
306.652,405.963
308.104,404.513
309.556,401.13
311.008,397.461
312.459,399.442
313.911,391.914
315.363,395.662
316.815,404.727
318.267,383.071
319.718,379.525
321.17,381.599
322.622,382.061
324.074,384.461
325.525,381.872
326.977,382.913
328.429,378.736
329.881,383.3
331.333,386.23
332.784,377.389
334.236,380.992
335.688,368.765
337.14,374.088
338.592,372.512
340.043,360.079
341.495,365.457
342.947,384.595
344.399,371.602
345.85,363.852
347.302,370.093
348.754,378.189
350.206,376.363
351.658,375.561
353.109,368.378
354.561,364.09
356.013,364.593
357.465,355.774
358.917,361.279
360.368,367.44
361.82,365.545
363.272,358.496
364.724,354.762
366.176,357.806
367.627,362.059
369.079,360.799
370.531,359.835
371.983,368.942
373.434,360.019
374.886,359.9
376.338,356.554
377.79,354.66
379.242,358.518
380.693,362.578
382.145,352.486
383.597,345.791
385.049,340.638
386.501,343.502
387.952,349.18
389.404,351.989
390.856,350.856
392.308,350.894
393.759,352.82
395.211,352.831
396.663,354.864
398.115,345.719
399.567,353.283
401.018,356.388
402.47,352.24
403.922,349.242
405.374,358.972
406.826,350.163
408.277,355.837
409.729,357.771
411.181,349.15
412.633,353.534
414.085,354.599
415.536,346.346
416.988,341.203
418.44,344.936
419.892,354.675
421.343,354.233
422.795,352.828
424.247,346.733
425.699,340.154
427.151,339.218
428.602,353.822
430.054,353.944
431.506,354.028
432.958,347.707
434.41,345.145
435.861,355.334
437.313,344.154
438.765,350.22
440.217,352.055
441.668,346.524
443.12,342.162
444.572,354.832
446.024,352.184
447.476,348.463
448.927,346.945
450.379,343.505
451.831,342.428
453.283,332.818
454.735,335.772
456.186,336.392
457.638,339.29
459.09,343.64
460.542,340.105
461.993,316.259
463.445,333.941
464.897,339.037
466.349,338.784
467.801,339.104
469.252,332.271
470.704,344.076
472.156,341.513
473.608,341.531
475.06,341.384
476.511,339.379
477.963,336.334
479.415,337.942
480.867,343.912
482.319,337.332
483.77,331.107
485.222,338.04
486.674,348.151
488.126,334.814
489.577,337.773
491.029,343.986
492.481,343.125
493.933,334.706
495.385,328.694
496.836,338.135
498.288,339.168
499.74,337.909
501.192,337.464
502.644,328.61
504.095,329.895
505.547,329.143
506.999,332.624
508.451,336.321
509.902,337.875
511.354,333.719
512.806,326.747
514.258,328.545
515.71,339.925
517.161,345.294
518.613,337.474
520.065,322.211
521.517,324.959
522.969,327.188
524.42,327.551
525.872,326.647
527.324,327.576
528.776,333.607
530.228,333.918
531.679,340.084
533.131,339.571
534.583,333.522
536.035,333.55
537.486,323.437
538.938,312.216
540.39,321.504
541.842,328.729
543.294,327.965
544.745,330.43
546.197,332.799
547.649,331.636
549.101,329.402
550.553,329.602
552.004,329.903
553.456,333.117
554.908,331.88
556.36,331.949
557.811,331.6
559.263,337.576
560.715,334.487
562.167,324.696
563.619,332.6
565.07,329.618
566.522,327.995
567.974,322.125
569.426,320.408
570.878,331.4
572.329,318.322
573.781,334.182
575.233,338.197
576.685,333.923
578.137,329.254
579.588,329.192
581.04,325.682
582.492,323.929
583.944,329.471
585.395,330.392
586.847,325.709
588.299,322.025
589.751,325.006
591.203,337.321
592.654,326.848
594.106,320.109
595.558,326.147
597.01,324.103
598.462,324.63
599.913,323.688
601.365,333.75
602.817,335.398
604.269,330.866
605.72,335.285
607.172,334.508
608.624,320.68
610.076,327.014
611.528,328.858
612.979,327.663
614.431,326.962
615.883,331.955
617.335,331.539
618.787,335.259
620.238,335.763
621.69,328.489
623.142,326.691
624.594,336.55
626.046,326.624
627.497,327.154
628.949,332.366
630.401,331.167
631.853,323.113
633.304,328.903
634.756,337.519
636.208,329.441
637.66,338.251
639.112,343.822
640.563,338.663
642.015,339.845
643.467,344.993
644.919,335.913
646.371,333.416
647.822,334.907
649.274,339.142
650.726,341.118
652.178,356.837
653.629,346.541
655.081,349.728
656.533,346.893
657.985,342.522
659.437,341.758
660.888,351.752
662.34,345.022
663.792,345.265
665.244,342.957
666.696,340.878
668.147,344.368
669.599,345.861
671.051,342.83
672.503,343.103
673.954,347.153
675.406,347.485
676.858,346.703
678.31,348.51
679.762,346.134
681.213,352.773
682.665,352.103
684.117,351.893
685.569,348.042
687.021,342.405
688.472,349.81
689.924,342.323
691.376,345.045
692.828,339.647
694.28,339.452
695.731,346.606
697.183,342.816
698.635,339.215
700.087,346.118
701.538,350.925
702.99,349.118
704.442,351.774
705.894,355.974
707.346,349.331
708.797,358.773
710.249,350.213
711.701,358.694
713.153,363.926
714.605,361.465
716.056,358.055
717.508,349.459
718.96,354.792
720.412,347.953
721.863,352.51
723.315,358.9
724.767,360.483
726.219,357.327
727.671,350.095
729.122,353.231
730.574,356.48
732.026,353.051
733.478,348.236
734.93,350.891
736.381,352.736
737.833,356.024
739.285,359.667
740.737,357.606
742.189,359.736
743.64,364.393
745.092,359.762
746.544,344.656
747.996,351.316
749.447,365.239
750.899,361.171
752.351,351.855
753.803,349.108
755.255,350.394
756.706,352.273
758.158,346.486
759.61,351.332
761.062,356.859
762.514,355.839
763.965,356.013
765.417,365.072
766.869,359.082
768.321,346.689
769.772,356.013
771.224,355.523
772.676,353.359
774.128,369.502
775.58,353.873
777.031,359.732
778.483,352.885
779.935,362.027
781.387,367.345
782.839,363.973
784.29,372.106
785.742,372.751
787.194,357.953
788.646,361.234
790.098,365.896
791.549,360.246
793.001,362.924
794.453,362.411
795.905,367.049
797.356,363.026
798.808,362.297
800.26,361.708
801.712,363.939
803.164,370.859
804.615,378.513
806.067,361.979
807.519,367.672
808.971,370.647
810.423,369.585
811.874,369.525
813.326,374.01
814.778,360.203
816.23,372.771
817.681,368.391
819.133,377.023
820.585,387.285
822.037,382.077
823.489,374.937
824.94,373.959
826.392,374.506
827.844,380.581
829.296,384.282
830.748,374.974
832.199,367.775
833.651,368.366
835.103,389.933
836.555,383.463
838.007,386.399
839.458,394.92
840.91,393.966
842.362,383.808
843.814,380.815
845.265,378.422
846.717,380.372
848.169,386.353
849.621,404.797
851.073,398.229
852.524,392.203
853.976,401.004
855.428,398.968
856.88,403.283
858.332,403.549
859.783,402.824
861.235,395.945
862.687,403.955
864.139,407.268
865.59,405.927
867.042,408.811
868.494,390.357
869.946,387.139
871.398,388.214
872.849,397.346
874.301,398.49
875.753,396.035
877.205,395.62
878.657,398.487
880.108,390.201
881.56,392.206
883.012,391.739
884.464,392.927
885.915,390.623
887.367,387.462
888.819,392.799
890.271,389.676
891.723,393.131
893.174,403.401
894.626,408.292
896.078,411.84
897.53,409.117
898.982,402.591
900.433,399.092
901.885,394.428
903.337,404.56
904.789,410.484
906.241,411.529
907.692,413.202
909.144,409.109
910.596,411.976
912.048,407.429
913.499,416.693
914.951,413.491
916.403,409.808
917.855,402.484
919.307,393.758
920.758,404.563
922.21,419.656
923.662,414.789
925.114,416.965
926.566,415.542
928.017,415.644
929.469,425.744
930.921,421.05
932.373,417.591
933.824,398.449
935.276,417.424
936.728,426.288
938.18,421.304
939.632,424.548
941.083,424.338
942.535,416.141
943.987,419.357
945.439,429.334
946.891,421.8
948.342,416.521
949.794,418.432
951.246,419.422
952.698,423.436
954.15,433.454
955.601,419.655
957.053,413.686
958.505,418.61
959.957,421.091
961.408,416.374
962.86,414.335
964.312,432.489
965.764,433.478
967.216,427.733
968.667,419.101
970.119,428.295
971.571,424.933
973.023,425.422
974.475,430.272
975.926,422.188
977.378,426.655
978.83,425.683
980.282,429.264
981.733,428.963
983.185,434.406
984.637,433.19
986.089,429.24
987.541,428.348
988.992,439.041
990.444,434.011
991.896,444.708
993.348,433.531
994.8,438.101
996.251,444.315
997.703,435.752
999.155,449.957
1000.61,438.608
1002.06,442.709
1003.51,446.263
1004.96,444.172
1006.41,439.653
1007.87,444.394
1009.32,451.741
1010.77,453.557
1012.22,458.231
1013.67,457.424
1015.12,452.029
1016.58,456.659
1018.03,451.586
1019.48,452.661
1020.93,465
1022.38,472.264
1023.84,477.871
1025.29,481.824
1026.74,476.202
1028.19,478.049
1029.64,485.896
1031.09,487.666
1032.55,479.681
1034,486.618
1035.45,493.29
1036.9,497.174
1038.35,506.362
1039.8,506.518
1041.26,508.967
1042.71,521.152
1044.16,525.616
1045.61,507.258
1047.06,510.003
1048.52,519.476
1049.97,526.559
1051.42,530.825
1052.87,538.297
1054.32,534.762
1055.77,537.242
1057.23,550.096
1058.68,556.689
1060.13,565.769
1061.58,559.03
1063.03,564.096
1064.49,575.378
1065.94,580.494
1067.39,568.817
1068.84,566.131
1070.29,589.936
1071.74,594.173
1073.2,595.841
1074.65,603.47
1076.1,610.438
1077.55,615.731
1079,609.231
1080.46,605.745
1081.91,611.166
1083.36,606.885
1084.81,633.776
1086.26,636.606
1087.71,642.228
1089.17,633.909
1090.62,610.026
1092.07,622.955
1093.52,637.746
1094.97,623.911
1096.42,617.678
1097.88,628.321
1099.33,612.284
1100.78,610.538
1102.23,614.297
1103.68,614.202
1105.14,604.349
1106.59,602.936
1108.04,606.278
1109.49,600.634
1110.94,602.764
1112.39,587.233
1113.85,592.616
1115.3,590.242
1116.75,589.146
1118.2,588.696
1119.65,581.456
1121.11,579.248
1122.56,573.565
1124.01,579.282
1125.46,579.543
1126.91,570.296
1128.36,572.07
1129.82,570.557
1131.27,562.505
1132.72,564.09
1134.17,552.997
1135.62,561.766
1137.07,552.353
1138.53,549.078
1139.98,560.598
1141.43,561.054
1142.88,546.917
1144.33,549.953
1145.79,558.852
1147.24,567.704
1148.69,554.104
1150.14,547.624
1151.59,556.344
1153.04,541.599
1154.5,542.631
1155.95,548.812
1157.4,554.495
1158.85,554.125
1160.3,552.098
1161.76,551.696
1163.21,547.795
1164.66,546.741
1166.11,540.426
1167.56,550.012
1169.01,552.686
1170.47,557.79
1171.92,560.982
1173.37,555.335
1174.82,568.967
1176.27,558.813
1177.72,558.752
1179.18,578.548
1180.63,561.638
1182.08,560.487
1183.53,569.584
1184.98,567.388
1186.44,565.636
1187.89,562.339
1189.34,563.968
1190.79,565.897
1192.24,556.839
1193.69,572.648
1195.15,579.899
1196.6,575.261
1198.05,567.287
1199.5,571.141
1200.95,582.974
1202.41,583.747
1203.86,579.916
1205.31,578.047
1206.76,596.725
1208.21,592.805
1209.66,584.42
1211.12,576.585
1212.57,584.826
1214.02,584.158
1215.47,573.004
1216.92,583.669
1218.37,589.73
1219.83,590.664
1221.28,593.533
1222.73,593.456
1224.18,591.02
1225.63,598.983
1227.09,601.774
1228.54,592.738
1229.99,585.026
1231.44,595.068
1232.89,585.193
1234.34,604.021
1235.8,602.175
1237.25,597.871
1238.7,587.817
1240.15,601.235
1241.6,618.328
1243.06,612.795
1244.51,611.689
1245.96,616.621
1247.41,639.52
1248.86,628.682
1250.31,616.977
1251.77,632.536
1253.22,640.932
1254.67,641.405
1256.12,637.651
1257.57,640.065
1259.02,651.647
1260.48,658.52
1261.93,678.928
1263.38,667.884
1264.83,679.639
1266.28,681.48
1267.74,695.537
1269.19,701.487
1270.64,704.896
1272.09,722.912
1273.54,744.971
1274.99,747.04
1276.45,744.532
1277.9,736.802
1279.35,758.027
1280.8,783.695
1282.25,787.788
1283.71,795.617
1285.16,797.396
1286.61,803.958
1288.06,828.319
1289.51,845.696
1290.96,847.286
1292.42,873.171
1293.87,908.403
1295.32,916.716
1296.77,951.18
1298.22,981.147
1299.67,1001.25
1301.13,1016.3
1302.58,1048.32
1304.03,1089.02
1305.48,1111.45
1306.93,1144.66
1308.39,1193.01
1309.84,1237.55
1311.29,1282.15
1312.74,1338.92
1314.19,1413.68
1315.64,1476.63
1317.1,1532.83
1318.55,1589.69
1320,1645.07
1321.45,1714.94
1322.9,1807.38
1324.36,1852.17
1325.81,1924.74
1327.26,1986.06
1328.71,2049.52
1330.16,2098.88
1331.61,2136.18
1333.07,2167.32
1334.52,2210.52
1335.97,2234.36
1337.42,2199.05
1338.87,2201.04
1340.33,2163.53
1341.78,2124.02
1343.23,2089.49
1344.68,2029.03
1346.13,1985.17
1347.58,1925.95
1349.04,1838.33
1350.49,1756.82
1351.94,1683.33
1353.39,1594.49
1354.84,1525.68
1356.29,1490.87
1357.75,1423.31
1359.2,1363.81
1360.65,1323.76
1362.1,1254.16
1363.55,1196.18
1365.01,1157.42
1366.46,1121.28
1367.91,1087.31
1369.36,1063.25
1370.81,1038.87
1372.26,1015.02
1373.72,994.014
1375.17,975.881
1376.62,933.553
1378.07,924.373
1379.52,905.089
1380.98,895.73
1382.43,891.437
1383.88,874.394
1385.33,851.534
1386.78,851.69
1388.23,854.009
1389.69,832.239
1391.14,826.512
1392.59,850.028
1394.04,853.464
1395.49,821.874
1396.94,820.373
1398.4,806.955
1399.85,808.417
1401.3,812.799
1402.75,803.391
1404.2,799.726
1405.66,797.93
1407.11,809.669
1408.56,820.289
1410.01,811.587
1411.46,815.446
1412.91,795.183
1414.37,808.69
1415.82,810.747
1417.27,804.297
1418.72,798.976
1420.17,800.277
1421.63,809.241
1423.08,804.041
1424.53,814.851
1425.98,801.027
1427.43,807.205
1428.88,805.47
1430.34,828.514
1431.79,833.385
1433.24,830.51
1434.69,836.432
1436.14,843.822
1437.59,856.222
1439.05,851.746
1440.5,852.302
1441.95,868.639
1443.4,878.275
1444.85,877.708
1446.31,858.018
1447.76,873.805
1449.21,883.947
1450.66,895.435
1452.11,892.171
1453.56,890.831
1455.02,899.889
1456.47,915.654
1457.92,926.909
1459.37,940.02
1460.82,935.65
1462.28,940.398
1463.73,982.414
1465.18,992.012
1466.63,997.3
1468.08,993.48
1469.53,999.53
1470.99,1006.54
1472.44,1015.46
1473.89,1041.58
1475.34,1064.08
1476.79,1068.98
1478.24,1086.93
1479.7,1087.2
1481.15,1129.58
1482.6,1127.57
1484.05,1152.52
1485.5,1168.07
1486.96,1172.82
1488.41,1193.91
1489.86,1222.02
1491.31,1234.46
1492.76,1261.63
1494.21,1288.75
1495.67,1317.16
1497.12,1334.32
1498.57,1368.24
1500.02,1388.68
1501.47,1437.31
1502.93,1447.4
1504.38,1493.49
1505.83,1540.91
1507.28,1601.63
1508.73,1647.93
1510.18,1700.17
1511.64,1752.64
1513.09,1814.15
1514.54,1892.44
1515.99,1964.22
1517.44,2037
1518.89,2091.51
1520.35,2180.55
1521.8,2268.33
1523.25,2401.09
1524.7,2518.61
1526.15,2698.55
1527.61,2826.52
1529.06,3027.64
1530.51,3238.14
1531.96,3476.52
1533.41,3751.43
1534.86,4014.43
1536.32,4332.71
1537.77,4731.11
1539.22,5168.4
1540.67,5665.42
1542.12,6177.67
1543.58,6749.46
1545.03,7363.02
1546.48,8033.8
1547.93,8770.74
1549.38,9546.78
1550.83,10366
1552.29,11248.7
1553.74,12130.2
1555.19,12969.2
1556.64,13825.1
1558.09,14718.1
1559.54,15504.3
1561,16309.3
1562.45,16966.3
1563.9,17446.4
1565.35,17725.8
1566.8,18465.8
1568.26,17736.6
1569.71,17440.1
1571.16,17046.3
1572.61,16430
1574.06,15631.8
1575.51,14678.4
1576.97,13715.1
1578.42,12736.3
1579.87,11774.2
1581.32,10821.1
1582.77,9894.15
1584.23,9054.33
1585.68,8182.99
1587.13,7437.75
1588.58,6827.03
1590.03,6224.32
1591.48,5684.33
1592.94,5271.08
1594.39,4921.39
1595.84,4558.93
1597.29,4272.53
1598.74,3993.7
1600.2,3750.53
1601.65,3579.07
1603.1,3406.33
1604.55,3222.05
1606,3082.13
1607.45,2935.12
1608.91,2785.71
1610.36,2645.89
1611.81,2493.31
1613.26,2428.1
1614.71,2304.4
1616.16,2205.9
1617.62,2086.8
1619.07,1992.97
1620.52,1921.85
1621.97,1831.76
1623.42,1745.45
1624.88,1695.68
1626.33,1639.08
1627.78,1573.17
1629.23,1495.37
1630.68,1446.9
1632.13,1420.54
1633.59,1389.65
1635.04,1342.22
1636.49,1307.86
1637.94,1278.11
1639.39,1250.89
1640.85,1227.6
1642.3,1223.18
1643.75,1188.79
1645.2,1152.37
1646.65,1137.89
1648.1,1117.13
1649.56,1081.64
1651.01,1064.7
1652.46,1053.71
1653.91,1029.42
1655.36,1011.37
1656.81,1003.74
1658.27,996.549
1659.72,990.761
1661.17,973.718
1662.62,944.73
1664.07,938.597
1665.53,920.519
1666.98,921.353
1668.43,920.458
1669.88,892.132
1671.33,879.632
1672.78,871.119
1674.24,859.781
1675.69,854.76
1677.14,838.767
1678.59,837.032
1680.04,834.741
1681.5,830.493
1682.95,815.385
1684.4,808.356
1685.85,794.672
1687.3,800.816
1688.75,783.089
1690.21,782.399
1691.66,769.482
1693.11,769.232
1694.56,759.312
1696.01,752.756
1697.46,755.18
1698.92,751.722
1700.37,753.245
1701.82,753.295
1703.27,744.999
1704.72,740.078
1706.18,740.167
1707.63,742.424
1709.08,735.929
1710.53,726.176
1711.98,730.563
1713.43,734.4
1714.89,729.168
1716.34,715.088
1717.79,706.408
1719.24,699.691
1720.69,710.351
1722.15,709.177
1723.6,718.497
1725.05,705.813
1726.5,701.865
1727.95,701.432
1729.4,700.653
1730.86,714.527
1732.31,710.712
1733.76,703.839
1735.21,700.447
1736.66,700.041
1738.11,695.187
1739.57,698.434
1741.02,687.33
1742.47,689.493
1743.92,692.94
1745.37,686.685
1746.83,688.447
1748.28,683.309
1749.73,675.597
1751.18,691.094
1752.63,671.916
1754.08,652.103
1755.54,665.499
1756.99,677.298
1758.44,668.763
1759.89,648.311
1761.34,656.808
1762.8,665.338
1764.25,659.605
1765.7,654.089
1767.15,656.429
1768.6,646.076
1770.05,633.097
1771.51,638.33
1772.96,641.438
1774.41,634.27
1775.86,640.927
1777.31,634.682
1778.76,624.773
1780.22,631.829
1781.67,623.266
1783.12,617.133
1784.57,612.167
1786.02,600.212
1787.48,626.158
1788.93,596.002
1790.38,613.279
1791.83,607.696
1793.28,615.237
1794.73,602.987
1796.19,601.507
1797.64,605.984
1799.09,600.24
1800.54,595.624
1801.99,605.806
1803.45,604.466
1804.9,586.9
1806.35,585.776
1807.8,589.875
1809.25,586.321
1810.7,598.238
1812.16,596.247
1813.61,583.975
1815.06,583.43
1816.51,581.689
1817.96,576.168
1819.41,583.063
1820.87,593.823
1822.32,595.196
1823.77,597.887
1825.22,605.745
1826.67,603.865
1828.13,601.752
1829.58,619.629
1831.03,589.28
1832.48,585.632
1833.93,586.399
1835.38,592.371
1836.84,587.773
1838.29,604.293
1839.74,607.185
1841.19,609.921
1842.64,614.53
1844.1,605.984
1845.55,608.553
1847,615.909
1848.45,624.845
1849.9,641.394
1851.35,644.33
1852.81,635.533
1854.26,628.571
1855.71,630.684
1857.16,633.714
1858.61,632.174
1860.07,630.589
1861.52,638.702
1862.97,640.582
1864.42,636.656
1865.87,637.902
1867.32,639.648
1868.78,640.899
1870.23,636.978
1871.68,647.193
1873.13,630.311
1874.58,634.554
1876.03,627.431
1877.49,618.523
1878.94,615.726
1880.39,606.356
1881.84,607.252
1883.29,616.388
1884.75,626.908
1886.2,595.941
1887.65,607.368
1889.1,615.053
1890.55,603.164
1892,598.666
1893.46,598.744
1894.91,593.105
1896.36,584.659
1897.81,573.271
1899.26,563.195
1900.72,576.879
1902.17,582.112
1903.62,574.822
1905.07,574.305
1906.52,568.138
1907.97,569.678
1909.43,563.05
1910.88,567.832
1912.33,561.577
1913.78,559.781
1915.23,558.846
1916.68,552.268
1918.14,541.304
1919.59,546.85
1921.04,554.084
1922.49,555.273
1923.94,566.203
1925.4,559.341
1926.85,547.617
1928.3,530.162
1929.75,553.32
1931.2,551.764
1932.65,544.996
1934.11,556.166
1935.56,557.979
1937.01,550.664
1938.46,541.01
1939.91,532.122
1941.37,538.968
1942.82,552.305
1944.27,560.287
1945.72,561.549
1947.17,555.573
1948.62,558.518
1950.08,558.318
1951.53,547.677
1952.98,563.629
1954.43,560.47
1955.88,556.589
1957.33,558.085
1958.79,556.539
1960.24,556.327
1961.69,556.806
1963.14,563.067
1964.59,562.961
1966.05,554.169
1967.5,557.267
1968.95,570.179
1970.4,564.752
1971.85,556.644
1973.3,554.04
1974.76,551.859
1976.21,553.68
1977.66,568.839
1979.11,579.638
1980.56,577.191
1982.02,570.257
1983.47,570.346
1984.92,574.7
1986.37,570.713
1987.82,584.397
1989.27,580.822
1990.73,577.33
1992.18,583.024
1993.63,581.812
1995.08,574.566
1996.53,590.653
1997.98,584.336
1999.44,587.628
2000.89,585.454
2002.34,571.219
2003.79,595.63
2005.24,588.557
2006.7,575.99
2008.15,573.699
2009.6,569.701
2011.05,560.809
2012.5,569.929
2013.95,569.245
2015.41,542.424
2016.86,596.72
2018.31,562.605
2019.76,551.35
2021.21,569.729
2022.67,563.323
2024.12,557.918
2025.57,557.206
2027.02,567.51
2028.47,561.949
2029.92,596.041
2031.38,563.84
2032.83,554.279
2034.28,541.25
2035.73,542.532
2037.18,551.966
2038.63,532.417
2040.09,539
2041.54,543.558
2042.99,535.573
2044.44,532.333
2045.89,536.52
2047.35,529.169
2048.8,535.673
2050.25,523.812
2051.7,519.587
2053.15,519.282
2054.6,517.478
2056.06,518.263
2057.51,522.671
2058.96,521.431
2060.41,506.191
2061.86,507.826
2063.32,509.205
2064.77,525.562
2066.22,516.323
2067.67,511.308
2069.12,515.373
2070.57,512.743
2072.03,507.277
2073.48,504.021
2074.93,496.688
2076.38,497.171
2077.83,497.874
2079.28,500.278
2080.74,496.98
2082.19,500.952
2083.64,498.383
2085.09,494.668
2086.54,499.352
2088,503.425
2089.45,500.165
2090.9,498.507
2092.35,497.918
2093.8,494.998
2095.25,490.003
2096.71,492.635
2098.16,492.573
2099.61,493.129
2101.06,487.023
2102.51,488.672
2103.97,502.679
2105.42,511.131
2106.87,501.449
2108.32,499.208
2109.77,495.243
2111.22,490.522
2112.68,501.165
2114.13,511.576
2115.58,498.165
2117.03,497.597
2118.48,516.027
2119.94,516.589
2121.39,508.373
2122.84,502.907
2124.29,505.707
2125.74,513.256
2127.19,515.17
2128.65,496.658
2130.1,504.223
2131.55,520.42
2133,509.846
2134.45,504.45
2135.9,513.099
2137.36,505.178
2138.81,500.689
2140.26,509.554
2141.71,521.335
2143.16,509.174
2144.62,515.688
2146.07,516.075
2147.52,513.551
2148.97,520.406
2150.42,518.233
2151.87,523.872
2153.33,530.904
2154.78,522.758
2156.23,520.371
2157.68,522.247
2159.13,527.092
2160.58,528.433
2162.04,529.867
2163.49,521.675
2164.94,518.837
2166.39,524.431
2167.84,533.158
2169.3,528.839
2170.75,522.611
2172.2,520.69
2173.65,535.643
2175.1,532.808
2176.55,527.745
2178.01,535.504
2179.46,537.119
2180.91,527.567
2182.36,528.317
2183.81,531.853
2185.27,530.8
2186.72,551.099
2188.17,556.004
2189.62,555.174
2191.07,550.226
2192.52,534.465
2193.98,543.493
2195.43,529.297
2196.88,536.418
2198.33,556.633
2199.78,553.173
2201.24,569.15
2202.69,549.939
2204.14,547.167
2205.59,550.96
2207.04,558.891
2208.49,539.972
2209.95,544.935
2211.4,557.306
2212.85,540.115
2214.3,550.187
2215.75,526.548
2217.2,539.844
2218.66,549.398
2220.11,542.515
2221.56,554.605
2223.01,555.551
2224.46,551.27
2225.92,534.037
2227.37,534.038
2228.82,536.793
2230.27,557.362
2231.72,559.308
2233.17,547.344
2234.63,562.705
2236.08,558.129
2237.53,546.062
2238.98,557.829
2240.43,560.042
2241.89,566.57
2243.34,563.406
2244.79,563.022
2246.24,572.031
2247.69,574.121
2249.14,569.712
2250.6,567.232
2252.05,564.068
2253.5,568.077
2254.95,565.842
2256.4,560.17
2257.85,575.005
2259.31,584.97
2260.76,571.597
2262.21,574.027
2263.66,571.769
2265.11,574.216
2266.57,582.818
2268.02,579.771
2269.47,576.14
2270.92,574.527
2272.37,569.145
2273.82,587.111
2275.28,579.415
2276.73,574.878
2278.18,577.43
2279.63,578.192
2281.08,587.467
2282.54,593.912
2283.99,588.724
2285.44,607.719
2286.89,602.892
2288.34,600.924
2289.79,605.328
2291.25,608.642
2292.7,602.998
2294.15,596.425
2295.6,606.278
2297.05,601.135
2298.5,610.705
2299.96,617.733
2301.41,625.64
2302.86,609.887
2304.31,598.688
2305.76,635.182
2307.22,638.302
2308.67,622.293
2310.12,617.928
2311.57,616.06
2313.02,638.825
2314.47,650.513
2315.93,631.234
2317.38,632.124
2318.83,641.416
2320.28,619.924
2321.73,625.04
2323.19,639.308
2324.64,650.608
2326.09,653.388
2327.54,655.74
2328.99,649.151
2330.44,652.025
2331.9,656.991
2333.35,656.552
2334.8,664.209
2336.25,666.628
2337.7,668.646
2339.16,666.594
2340.61,666.705
2342.06,679.901
2343.51,685.473
2344.96,684.316
2346.41,693.213
2347.87,682.32
2349.32,687.43
2350.77,709.044
2352.22,712.525
2353.67,715.066
2355.12,716.573
2356.58,718.197
2358.03,712.33
2359.48,728.028
2360.93,711.096
2362.38,723.318
2363.84,733.488
2365.29,735.551
2366.74,734.083
2368.19,746.061
2369.64,763.199
2371.09,777.095
2372.55,791.886
2374,792.842
2375.45,810.747
2376.9,810.525
2378.35,817.526
2379.8,839.657
2381.26,837.683
2382.71,844.784
2384.16,846.408
2385.61,860.292
2387.06,873.36
2388.52,869.301
2389.97,903.409
2391.42,919.897
2392.87,937.763
2394.32,952.015
2395.77,982.008
2397.23,968.074
2398.68,975.08
2400.13,1008.09
2401.58,1033.46
2403.03,1057.98
2404.49,1062.87
2405.94,1082.13
2407.39,1110.98
2408.84,1123.55
2410.29,1140.26
2411.74,1152.94
2413.2,1168.75
2414.65,1179.04
2416.1,1217.53
2417.55,1241.74
2419,1240.57
2420.46,1242.57
2421.91,1248.6
2423.36,1230.86
2424.81,1242.84
2426.26,1280.84
2427.71,1274.46
2429.17,1278.09
2430.62,1308.84
2432.07,1292.1
2433.52,1295.32
2434.97,1259.33
2436.42,1270.71
2437.88,1286.06
2439.33,1270.79
2440.78,1266.42
2442.23,1249.99
2443.68,1236.6
2445.14,1248.41
2446.59,1230.82
2448.04,1237.66
2449.49,1236.6
2450.94,1222.02
2452.39,1200.83
2453.85,1197.26
2455.3,1186.48
2456.75,1180.49
2458.2,1171.19
2459.65,1165.3
2461.1,1156.09
2462.56,1143.6
2464.01,1150.61
2465.46,1138.68
2466.91,1113.66
2468.36,1123.25
2469.82,1099.38
2471.27,1134.38
2472.72,1128.65
2474.17,1105.5
2475.62,1094.98
2477.07,1083.03
2478.53,1078.64
2479.98,1068.31
2481.43,1073.11
2482.88,1096.16
2484.33,1097.32
2485.79,1098.89
2487.24,1077.01
2488.69,1076.63
2490.14,1073.55
2491.59,1087.73
2493.04,1085.17
2494.5,1084.15
2495.95,1072.77
2497.4,1088.39
2498.85,1076.71
2500.3,1096.23
2501.76,1104.64
2503.21,1099.62
2504.66,1116.94
2506.11,1105.39
2507.56,1095.51
2509.01,1088.29
2510.47,1128.07
2511.92,1117.45
2513.37,1117.87
2514.82,1141.44
2516.27,1146.9
2517.72,1155.66
2519.18,1151.56
2520.63,1140.72
2522.08,1157.13
2523.53,1173.18
2524.98,1182.73
2526.44,1168.74
2527.89,1184.94
2529.34,1205.96
2530.79,1227.33
2532.24,1234.87
2533.69,1238.46
2535.15,1256.62
2536.6,1251.26
2538.05,1304.78
2539.5,1290.02
2540.95,1303.96
2542.41,1319.89
2543.86,1339.75
2545.31,1355.89
2546.76,1370.18
2548.21,1360.79
2549.66,1387.19
2551.12,1411.5
2552.57,1454.24
2554.02,1478.33
2555.47,1481.28
2556.92,1495.88
2558.37,1516.87
2559.83,1548.86
2561.28,1564.81
2562.73,1581.71
2564.18,1642.13
2565.63,1680.17
2567.09,1692.31
2568.54,1719.45
2569.99,1749.48
2571.44,1788.58
2572.89,1812
2574.34,1852.09
2575.8,1859.3
2577.25,1953.89
2578.7,2016.35
2580.15,2048.19
2581.6,2083.53
2583.06,2125.12
2584.51,2172.53
2585.96,2241.7
2587.41,2326.72
2588.86,2383.54
2590.31,2437.87
2591.77,2489.73
2593.22,2586.2
2594.67,2655.61
2596.12,2737.92
2597.57,2847
2599.02,2932.3
2600.48,3020.91
2601.93,3120.96
2603.38,3221.65
2604.83,3361.38
2606.28,3469.23
2607.74,3619.97
2609.19,3719.39
2610.64,3872.46
2612.09,3983.25
2613.54,4159.06
2614.99,4332.76
2616.45,4508.96
2617.9,4698.03
2619.35,4890.41
2620.8,5071.58
2622.25,5289.47
2623.71,5500.93
2625.16,5746.22
2626.61,5966.64
2628.06,6185.01
2629.51,6490.51
2630.96,6710.26
2632.42,7018.32
2633.87,7262.48
2635.32,7534.62
2636.77,7798.53
2638.22,8097.91
2639.68,8351.47
2641.13,8562.11
2642.58,8810.5
2644.03,9090.76
2645.48,9324.25
2646.93,9604.33
2648.39,9741.24
2649.84,10002.5
2651.29,10182.6
2652.74,10321.4
2654.19,10444.4
2655.64,10629.5
2657.1,10690.3
2658.55,10762.9
2660,10830.9
2661.45,10811.6
2662.9,10738
2664.36,10679.3
2665.81,10616.6
2667.26,10472.8
2668.71,10400.1
2670.16,10288.4
2671.61,10140.3
2673.07,9895.49
2674.52,9681.79
2675.97,9369.9
2677.42,9163.54
2678.87,8901.64
2680.32,8675.49
2681.78,8377.89
2683.23,8080
2684.68,7791.91
2686.13,7526.84
2687.58,7220.95
2689.04,6993.63
2690.49,6692.91
2691.94,6440.29
2693.39,6162.32
2694.84,5892.52
2696.29,5646.74
2697.75,5397.59
2699.2,5201.44
2700.65,4973.56
2702.1,4736.29
2703.55,4530.9
2705.01,4318.69
2706.46,4171.6
2707.91,3976.04
2709.36,3820.9
2710.81,3649.08
2712.26,3476.2
2713.72,3366.5
2715.17,3245.11
2716.62,3109.8
2718.07,2964.39
2719.52,2873.55
2720.98,2778.31
2722.43,2657.26
2723.88,2570.36
2725.33,2492.88
2726.78,2394.48
2728.23,2304.15
2729.69,2267.44
2731.14,2174.75
2732.59,2102.85
2734.04,2055.59
2735.49,1996.42
2736.94,1930.46
2738.4,1880.61
2739.85,1828.74
2741.3,1759.86
2742.75,1739.26
2744.2,1726.11
2745.66,1644.03
2747.11,1606.2
2748.56,1576.65
2750.01,1555.09
2751.46,1529.84
2752.91,1508.76
2754.37,1463.13
2755.82,1438.76
2757.27,1407.73
2758.72,1387.29
2760.17,1331.97
2761.63,1330.53
2763.08,1315.57
2764.53,1275.71
2765.98,1278.86
2767.43,1257.55
2768.88,1214.11
2770.34,1216.69
2771.79,1188.75
2773.24,1166.93
2774.69,1150.68
2776.14,1139.91
2777.59,1153.71
2779.05,1113.39
2780.5,1102.8
2781.95,1096.85
2783.4,1102.45
2784.85,1089.46
2786.31,1065.15
2787.76,1047.46
2789.21,1046.74
2790.66,1030.85
2792.11,1017.81
2793.56,998.713
2795.02,996.85
2796.47,993.185
2797.92,991.751
2799.37,977.749
2800.82,978.144
2802.28,975.853
2803.73,951.72
2805.18,945.025
2806.63,946.448
2808.08,933.164
2809.53,912.974
2810.99,919.024
2812.44,917.022
2813.89,891.043
2815.34,894.679
2816.79,881.901
2818.24,890.781
2819.7,889.802
2821.15,881.884
2822.6,869.517
2824.05,864.19
2825.5,861.355
2826.96,870.035
2828.41,857.985
2829.86,866.075
2831.31,837.26
2832.76,827.468
2834.21,838.028
2835.67,843.588
2837.12,841.764
2838.57,840.875
2840.02,817.298
2841.47,831.6
2842.93,801.322
2844.38,812.827
2845.83,805.298
2847.28,796.051
2848.73,791.052
2850.18,803.919
2851.64,800.761
2853.09,805.076
2854.54,800.271
2855.99,793.042
2857.44,781.143
2858.9,800.06
2860.35,788.327
2861.8,781.665
2863.25,794.894
2864.7,782.911
2866.15,785.791
2867.61,793.393
2869.06,800.327
2870.51,795.016
2871.96,829.286
2873.41,803.83
2874.86,803.808
2876.32,783.061
2877.77,792.364
2879.22,786.336
2880.67,796.785
2882.12,810.203
2883.58,808.151
2885.03,805.687
2886.48,800.31
2887.93,778.151
2889.38,791.524
2890.83,784.307
2892.29,812.293
2893.74,799.86
2895.19,787.532
2896.64,784.535
2898.09,784.713
2899.54,787.554
2901,778.474
2902.45,779.191
2903.9,812.616
2905.35,780.22
2906.8,795.956
2908.26,796.746
2909.71,793.27
2911.16,780.17
2912.61,772.78
2914.06,762.442
2915.51,769.343
2916.97,760.035
2918.42,769.137
2919.87,763.454
2921.32,766.396
2922.77,754.274
2924.23,748.107
2925.68,738.888
2927.13,739.772
2928.58,754.502
2930.03,735.273
2931.48,734.578
2932.94,712.731
2934.39,722.373
2935.84,716.234
2937.29,710.862
2938.74,697.889
2940.2,701.932
2941.65,686.123
2943.1,666.077
2944.55,669.792
2946,673.145
2947.45,650.585
2948.91,640.732
2950.36,647.855
2951.81,654.806
2953.26,630.873
2954.71,636.295
2956.16,644.73
2957.62,631.106
2959.07,619.04
2960.52,623.967
2961.97,610.06
2963.42,608.703
2964.88,588.179
2966.33,590.091
2967.78,603.493
2969.23,593.906
2970.68,586.577
2972.13,589.869
2973.59,575.217
2975.04,571.73
2976.49,578.77
2977.94,574.572
2979.39,569.234
2980.84,566.109
2982.3,567.755
2983.75,556.466
2985.2,553.519
2986.65,542.742
2988.1,555.69
2989.56,556.177
2991.01,554.105
2992.46,558.179
2993.91,550.365
2995.36,543.825
2996.81,535.564
2998.27,538.926
2999.72,541.414
3001.17,529.167
3002.62,527.334
3004.07,523.072
3005.53,540.954
3006.98,535.559
3008.43,527.836
3009.88,528.865
3011.33,526.216
3012.78,528.3
3014.24,528.191
3015.69,508.471
3017.14,521.322
3018.59,516.77
3020.04,511.898
3021.5,521.406
3022.95,516.785
3024.4,515.497
3025.85,522.484
3027.3,520.609
3028.75,509.72
3030.21,534.388
3031.66,506.744
3033.11,517.973
3034.56,523.612
3036.01,511.655
3037.46,512.603
3038.92,515.719
3040.37,506.986
3041.82,514.667
3043.27,522.464
3044.72,503.81
3046.18,510.187
3047.63,513.789
3049.08,516.236
3050.53,517.802
3051.98,517.097
3053.43,514.076
3054.89,513.907
3056.34,515.238
3057.79,515.953
3059.24,526.087
3060.69,523.265
3062.15,521.539
3063.6,520.423
3065.05,524.023
3066.5,531.201
3067.95,525.373
3069.4,517.217
3070.86,523.424
3072.31,527.016
3073.76,527.582
3075.21,544.393
3076.66,526.702
3078.11,547.299
3079.57,546.001
3081.02,546.412
3082.47,546.242
3083.92,554.36
3085.37,556.372
3086.83,568.021
3088.28,559.124
3089.73,561.026
3091.18,561.243
3092.63,575.89
3094.08,591.448
3095.54,589.218
3096.99,592.894
3098.44,614.797
3099.89,608.158
3101.34,608.019
3102.8,634.087
3104.25,649.39
3105.7,657.803
3107.15,669.497
3108.6,665.36
3110.05,669.753
3111.51,679.228
3112.96,689.165
3114.41,721.377
3115.86,716.328
3117.31,722.25
3118.76,711.418
3120.22,738.704
3121.67,751.888
3123.12,751.277
3124.57,765.94
3126.02,786.253
3127.48,782.11
3128.93,827.101
3130.38,816.948
3131.83,810.564
3133.28,816.43
3134.73,833.724
3136.19,825.244
3137.64,829.731
3139.09,819.661
3140.54,847.153
3141.99,851.434
3143.45,857.089
3144.9,847.42
3146.35,856.884
3147.8,865.024
3149.25,880.511
3150.7,868.416
3152.16,893.7
3153.61,886.399
3155.06,868.266
3156.51,875.645
3157.96,880.266
3159.42,892.066
3160.87,864.624
3162.32,886.21
3163.77,890.548
3165.22,888.613
3166.67,902.242
3168.13,904.077
3169.58,888.09
3171.03,879.61
3172.48,899.194
3173.93,897.415
3175.38,915.226
3176.84,934.593
3178.29,933.609
3179.74,953.433
3181.19,954.984
3182.64,966.011
3184.1,993.33
3185.55,977.338
3187,997.055
3188.45,1003.59
3189.9,1000.05
3191.35,1026.55
3192.81,1019.32
3194.26,1020.26
3195.71,1036.94
3197.16,1037.94
3198.61,1027.33
3200.06,1058.61
3201.52,1053.8
3202.97,1056.43
3204.42,1033.31
3205.87,1044.28
3207.32,1049.15
3208.78,1030.79
3210.23,1046.09
3211.68,1000.18
3213.13,971.46
3214.58,964.354
3216.03,944.091
3217.49,937.941
3218.94,916.299
3220.39,897.587
3221.84,874.644
3223.29,859.108
3224.75,820.484
3226.2,802.668
3227.65,794.21
3229.1,770.366
3230.55,745.989
3232,731.464
3233.46,707.748
3234.91,687.413
3236.36,674.007
3237.81,675.664
3239.26,634.015
3240.72,607.352
3242.17,601.819
3243.62,601.619
3245.07,584.998
3246.52,566.937
3247.97,544.718
3249.43,560.971
3250.88,527.332
3252.33,512.972
3253.78,508.851
3255.23,501.829
3256.68,491.151
3258.14,510.848
3259.59,492.417
3261.04,483.365
3262.49,472.546
3263.94,471.944
3265.4,462.226
3266.85,447.834
3268.3,464.637
3269.75,463.413
3271.2,449.37
3272.65,453.6
3274.11,446.017
3275.56,443.743
3277.01,441.014
3278.46,438.31
3279.91,430.866
3281.37,431.563
3282.82,439.277
3284.27,442.885
3285.72,417.231
3287.17,427.867
3288.62,425.103
3290.08,421.553
3291.53,416.7
3292.98,407.513
3294.43,423.971
3295.88,413.77
3297.33,419.349
3298.79,418.779
3300.24,428.587
3301.69,418.735
3303.14,419.158
3304.59,411.093
3306.05,441.297
3307.5,419.219
3308.95,414.699
3310.4,416.433
3311.85,410.226
3313.3,409.932
3314.76,406.583
3316.21,414.984
3317.66,411.881
3319.11,402.921
3320.56,410.887
3322.02,404.581
3323.47,407.501
3324.92,410.993
3326.37,414.086
3327.82,413.866
3329.27,410.299
3330.73,406.967
3332.18,410.689
3333.63,415.501
3335.08,396.752
3336.53,394.227
3337.98,414.543
3339.44,400.173
3340.89,400.763
3342.34,404.818
3343.79,409.972
3345.24,404.693
3346.7,401.834
3348.15,397.824
3349.6,401.6
3351.05,403.743
3352.5,390.744
3353.95,405.929
3355.41,397.351
3356.86,382.674
3358.31,393.318
3359.76,408.458
3361.21,400.791
3362.67,404.658
3364.12,395.427
3365.57,398.874
3367.02,402.152
3368.47,392.807
3369.92,399.454
3371.38,405.571
3372.83,399.571
3374.28,381.921
3375.73,387.648
3377.18,398.768
3378.63,402.102
3380.09,406.093
3381.54,387.218
3382.99,386.905
3384.44,386.742
3385.89,383.331
3387.35,394.474
3388.8,385.262
3390.25,390.477
3391.7,384.581
3393.15,382.562
3394.6,388.498
3396.06,393.33
3397.51,395.905
3398.96,400.74
3400.41,388.711
3401.86,386.43
3403.32,391.613
3404.77,394.738
3406.22,404.427
3407.67,384.023
3409.12,389.418
3410.57,385.016
3412.03,381.341
3413.48,373.192
3414.93,395.03
3416.38,393.482
3417.83,386.373
3419.28,385.067
3420.74,403.559
3422.19,383.376
3423.64,396.947
3425.09,389.414
3426.54,381.961
3428,370.371
3429.45,389.104
3430.9,391.993
3432.35,395.204
3433.8,395.61
3435.25,378.025
3436.71,380.334
3438.16,380.312
3439.61,394.031
3441.06,391.3
3442.51,380.369
3443.97,375.755
3445.42,371.35
3446.87,389.679
3448.32,378.167
3449.77,374.769
3451.22,377.701
3452.68,395.744
3454.13,370.533
3455.58,372.375
3457.03,391.642
3458.48,381.663
3459.94,382.579
3461.39,374.19
3462.84,381.513
3464.29,384.692
3465.74,383.003
3467.19,383.192
3468.65,368.718
3470.1,387.421
3471.55,381.344
3473,370.632
3474.45,361.464
3475.9,383.532
3477.36,392.404
3478.81,395.098
3480.26,389.291
3481.71,371.748
3483.16,381.715
3484.62,363.823
3486.07,386.549
3487.52,375.901
3488.97,367.203
3490.42,378.921
3491.87,381.932
3493.33,387.16
3494.78,378.411
3496.23,378.487
3497.68,379.961
3499.13,379.259
3500.58,384.827
3502.04,392.98
3503.49,378.455
3504.94,369.265
3506.39,364.822
3507.84,382.992
3509.3,396.217
3510.75,397.895
3512.2,376.976
3513.65,378.128
3515.1,385.531
3516.55,380.053
3518.01,386.311
3519.46,382.169
3520.91,379.722
3522.36,378.634
3523.81,380.777
3525.27,381.322
3526.72,372.691
3528.17,384.301
3529.62,376.36
3531.07,382.981
3532.52,387.687
3533.98,384.714
3535.43,390.225
3536.88,383.548
3538.33,368.205
3539.78,380.685
3541.24,384.028
3542.69,374.042
3544.14,384.841
3545.59,387.123
3547.04,379.097
3548.49,374.748
3549.95,383.017
3551.4,375.326
3552.85,369.31
3554.3,371.358
3555.75,385.696
3557.2,389.912
3558.66,376.036
3560.11,373.099
3561.56,377.188
3563.01,377.92
3564.46,380.27
3565.92,380.212
3567.37,376.972
3568.82,378.53
3570.27,379.262
3571.72,370.104
3573.17,374.281
3574.63,382.009
3576.08,379.97
3577.53,389.226
3578.98,363.141
3580.43,373.447
3581.89,370.727
3583.34,371.787
3584.79,366.277
3586.24,383.508
3587.69,371.805
3589.14,382.114
3590.6,382.955
3592.05,372.913
3593.5,373.873
3594.95,370.701
3596.4,366.372
3597.85,366.766
3599.31,379.947
3600.76,381.682
3602.21,368.77
3603.66,380.996
3605.11,358.535
3606.57,380.388
3608.02,378.977
3609.47,375.46
3610.92,378.375
3612.37,389.631
3613.82,373.923
3615.28,376.128
3616.73,367.72
3618.18,389.841
3619.63,366.826
3621.08,383.006
3622.54,378.644
3623.99,382.313
3625.44,385.626
3626.89,380.916
3628.34,369.538
3629.79,372.314
3631.25,373.737
3632.7,377.955
3634.15,373.611
3635.6,371.022
3637.05,367.281
3638.5,377.532
3639.96,373.651
3641.41,378.836
3642.86,375.833
3644.31,369.016
3645.76,378.33
3647.22,373.744
3648.67,373.824
3650.12,367.413
3651.57,370.115
3653.02,363.429
3654.47,377.224
3655.93,392.826
3657.38,378.06
3658.83,382.281
3660.28,377.638
3661.73,377.51
3663.19,370.841
3664.64,382.22
3666.09,362.792
3667.54,375.533
3668.99,377.878
3670.44,387.406
3671.9,377.301
3673.35,372.891
3674.8,389.187
3676.25,383.712
3677.7,366.303
3679.16,377.179
3680.61,377.641
3682.06,387.036
3683.51,377.873
3684.96,381.516
3686.41,381.356
3687.87,376.833
3689.32,383.115
3690.77,368.701
3692.22,384.602
3693.67,373.866
3695.12,376.919
3696.58,380.351
3698.03,384.137
3699.48,384.41
3700.93,384.063
3702.38,377.01
3703.84,388.538
3705.29,380.795
3706.74,370.834
3708.19,381.125
3709.64,398.987
3711.09,389.318
3712.55,385.319
3714,375.805
3715.45,378.611
3716.9,382.026
3718.35,386.045
3719.8,390.368
3721.26,381.849
3722.71,373.522
3724.16,381.681
3725.61,388.013
3727.06,387.798
3728.52,381.329
3729.97,379.121
3731.42,387.718
3732.87,385.176
3734.32,382.086
3735.77,395.528
3737.23,393.423
3738.68,386.176
3740.13,372.225
3741.58,391.246
3743.03,376.34
3744.49,379.015
3745.94,397.649
3747.39,386.797
3748.84,390.743
3750.29,395.747
3751.74,383.306
3753.2,383.989
3754.65,383.952
3756.1,374.574
3757.55,386.538
3759,381.525
3760.46,389.411
3761.91,392.867
3763.36,395.05
3764.81,396.3
3766.26,398.734
3767.71,379.251
3769.17,385.774
3770.62,394.688
3772.07,375.52
3773.52,380.744
3774.97,388.69
3776.42,378.697
3777.88,386.777
3779.33,388.051
3780.78,397.529
3782.23,398.297
3783.68,399.371
3785.14,408.146
3786.59,389.127
3788.04,385.049
3789.49,379.381
3790.94,396.115
3792.39,396.42
3793.85,392.278
3795.3,398.813
3796.75,401.217
3798.2,397.386
3799.65,393.645
3801.1,394.981
3802.56,371.744
3804.01,400.582
3805.46,394.269
3806.91,392.493
3808.36,405.522
3809.82,401.509
3811.27,393.278
3812.72,391.056
3814.17,392.944
3815.62,408.192
3817.07,403.335
3818.53,402.897
3819.98,420.925
3821.43,389.38
3822.88,390.165
3824.33,390.542
3825.79,402.173
3827.24,425.141
3828.69,423.394
3830.14,393.958
3831.59,409.807
3833.04,394.915
3834.5,399.49
3835.95,402.01
3837.4,407.559
3838.85,402.281
3840.3,401.38
3841.76,427.547
3843.21,384.639
3844.66,399.192
3846.11,399.844
3847.56,390.396
3849.01,424.176
3850.47,389.348
3851.92,405.963
3853.37,387.36
3854.82,394.338
3856.27,410.109
3857.72,410.601
3859.18,417.116
3860.63,415.4
3862.08,395.124
3863.53,410.444
3864.98,416.349
3866.44,430.776
3867.89,407.884
3869.34,403.007
3870.79,413.596
3872.24,415.639
3873.69,409.388
3875.15,415.549
3876.6,400.752
3878.05,406.983
3879.5,421.007
3880.95,405.386
3882.41,412.584
3883.86,420.609
3885.31,411.625
3886.76,409.284
3888.21,416.779
3889.66,418.478
3891.12,414.788
3892.57,431.577
3894.02,429.913
3895.47,433.299
3896.92,426.406
3898.37,425.98
3899.83,422.531
3901.28,416.161
3902.73,428.67
3904.18,422.853
3905.63,434.595
3907.09,429.189
3908.54,430.592
3909.99,442.571
3911.44,435.844
3912.89,437.298
3914.34,436.49
3915.8,420.501
3917.25,431.784
3918.7,452.362
3920.15,445.948
3921.6,460.35
3923.06,446.259
3924.51,429.641
3925.96,453.923
3927.41,449.971
3928.86,444.058
3930.31,469.851
3931.77,456.69
3933.22,459.051
3934.67,461.021
3936.12,458.787
3937.57,461.362
3939.02,463.451
3940.48,458.611
3941.93,452.718
3943.38,457.13
3944.83,464.31
3946.28,461.859
3947.74,463.87
3949.19,462.15
3950.64,467.019
3952.09,456.698
3953.54,452.025
3954.99,471.16
3956.45,467.731
3957.9,462.64
3959.35,490.843
3960.8,470.222
3962.25,477.405
3963.71,469.822
3965.16,472.215
3966.61,479.56
3968.06,478.454
3969.51,482.699
3970.96,473.747
3972.42,481.345
3973.87,483.082
3975.32,488.749
3976.77,483.312
3978.22,488.543
3979.68,487.017
3981.13,484.493
3982.58,499.487
3984.03,491.561
3985.48,507.539
3986.93,486.357
3988.39,501.508
3989.84,517.919
3991.29,501.587
3992.74,499.286
3994.19,494.142
3995.64,507.86
3997.1,508.031
3998.55,512.564
4000,511.084
