0.325027,45219.5
1.77681,46752.8
3.2286,31963.9
4.68039,11589.5
6.13218,3254.02
7.58397,393.193
9.03575,84.7555
10.4875,73.5792
11.9393,75.1465
13.3911,78.9286
14.8429,77.9856
16.2947,73.99
17.7465,69.4788
19.1983,58.592
20.6501,50.3916
22.1018,44.7313
23.5536,40.2073
25.0054,35.6249
26.4572,32.4108
27.909,29.8252
29.3608,28.0652
30.8126,25.244
32.2644,24.8819
33.7161,22.77
35.1679,21.902
36.6197,22.7545
38.0715,25.6266
39.5233,25.6918
40.9751,26.6989
42.4269,29.3341
43.8787,31.9205
45.3304,38.1194
46.7822,44.1901
48.234,62.0959
49.6858,101.702
51.1376,168.113
52.5894,275.114
54.0412,436.904
55.493,658.142
56.9447,925.451
58.3965,1209.1
59.8483,1489.36
61.3001,1682.48
62.7519,1830.28
64.2037,1964.91
65.6555,2030.22
67.1073,2095.71
68.559,2132.56
70.0108,2161.17
71.4626,2227.4
72.9144,2270.87
74.3662,2298.68
75.818,2326.53
77.2698,2372.24
78.7216,2465.75
80.1733,2535.02
81.6251,2598.38
83.0769,2631.38
84.5287,2647.29
85.9805,2664.43
87.4323,2616.88
88.8841,2540.43
90.3359,2468.1
91.7877,2376.44
93.2394,2282.29
94.6912,2162.24
96.143,2076.46
97.5948,2002.75
99.0466,1890.03
100.498,1850.64
101.95,1771.08
103.402,1710.71
104.854,1672.31
106.306,1653.77
107.757,1635.07
109.209,1623.56
110.661,1601.09
112.113,1566.9
113.564,1551.29
115.016,1538.53
116.468,1509.53
117.92,1483.37
119.372,1465.96
120.823,1440.4
122.275,1393.11
123.727,1353.58
125.179,1318.29
126.631,1303.93
128.082,1304.71
129.534,1253.97
130.986,1230.72
132.438,1219.6
133.889,1191.26
135.341,1171.36
136.793,1161.98
138.245,1139.47
139.697,1120.84
141.148,1095.02
142.6,1090.03
144.052,1064.42
145.504,1040.25
146.956,1027.6
148.407,1021.63
149.859,1022.7
151.311,995.273
152.763,973.195
154.215,971.692
155.666,972.033
157.118,951.605
158.57,983.269
160.022,991.924
161.473,985.678
162.925,992.069
164.377,1031.43
165.829,1045.31
167.281,1054.83
168.732,1068.25
170.184,1050.46
171.636,1003.73
173.088,967.915
174.54,933.987
175.991,892.531
177.443,880.929
178.895,871.078
180.347,873.444
181.798,860.654
183.25,845.94
184.702,838.422
186.154,837.172
187.606,829.005
189.057,819.679
190.509,811.466
191.961,801.717
193.413,827.015
194.865,821.186
196.316,810.376
197.768,798.748
199.22,811.476
200.672,798.287
202.124,799.956
203.575,803.336
205.027,784.662
206.479,790.102
207.931,793.912
209.382,803.442
210.834,799.652
212.286,781.658
213.738,778.326
215.19,795.819
216.641,795.43
218.093,795.689
219.545,792.41
220.997,775.176
222.449,771.193
223.9,766.144
225.352,775.206
226.804,780.795
228.256,768.216
229.707,763.76
231.159,772.422
232.611,779.504
234.063,781.929
235.515,796.743
236.966,770.738
238.418,772.957
239.87,783.245
241.322,777.532
242.774,762.814
244.225,757.335
245.677,762
247.129,761.512
248.581,758.557
250.033,736.851
251.484,753.598
252.936,747.509
254.388,737.385
255.84,735.685
257.291,759.745
258.743,757.715
260.195,734
261.647,738.24
263.099,739.802
264.55,710.265
266.002,703.648
267.454,717.325
268.906,722.795
270.358,717.123
271.809,718.859
273.261,722.219
274.713,707.212
276.165,711.986
277.616,707.331
279.068,683.941
280.52,679.992
281.972,698.7
283.424,688.728
284.875,680.166
286.327,675.857
287.779,683.832
289.231,685.774
290.683,673.633
292.134,660.089
293.586,653.43
295.038,666.228
296.49,655.255
297.941,640.531
299.393,654.182
300.845,653.359
302.297,619.49
303.749,620.383
305.2,621.378
306.652,623.772
308.104,621.543
309.556,616.345
311.008,610.708
312.459,613.751
313.911,602.185
315.363,607.943
316.815,621.872
318.267,588.597
319.718,583.149
321.17,586.335
322.622,587.045
324.074,590.733
325.525,586.755
326.977,588.354
328.429,581.937
329.881,588.949
331.333,593.451
332.784,579.866
334.236,585.403
335.688,566.617
337.14,574.795
338.592,572.373
340.043,553.27
341.495,561.533
342.947,590.939
344.399,570.975
345.85,559.066
347.302,568.657
348.754,581.096
350.206,578.29
351.658,577.058
353.109,566.022
354.561,559.432
356.013,560.205
357.465,546.654
358.917,555.113
360.368,564.58
361.82,561.669
363.272,550.837
364.724,545.1
366.176,549.777
367.627,556.312
369.079,554.376
370.531,552.895
371.983,566.888
373.434,553.177
374.886,552.994
376.338,547.853
377.79,544.944
379.242,550.871
380.693,557.109
382.145,541.603
383.597,531.316
385.049,523.398
386.501,527.799
387.952,536.524
389.404,540.839
390.856,539.098
392.308,539.156
393.759,542.116
395.211,542.133
396.663,545.257
398.115,531.205
399.567,542.827
401.018,547.598
402.47,541.225
403.922,536.618
405.374,551.568
406.826,538.033
408.277,546.751
409.729,549.723
411.181,536.478
412.633,543.213
414.085,544.85
415.536,532.169
416.988,524.266
418.44,530.002
419.892,544.967
421.343,544.288
422.795,542.128
424.247,532.763
425.699,522.654
427.151,521.216
428.602,543.655
430.054,543.843
431.506,543.971
432.958,534.26
434.41,530.322
435.861,545.979
437.313,528.8
438.765,538.121
440.217,540.94
441.668,532.442
443.12,525.739
444.572,545.208
446.024,541.139
447.476,535.422
448.927,533.088
450.379,527.804
451.831,526.149
453.283,511.382
454.735,515.922
456.186,516.873
457.638,521.327
459.09,528.011
460.542,522.579
461.993,485.94
463.445,513.108
464.897,520.939
466.349,520.55
467.801,521.04
469.252,510.541
470.704,528.681
472.156,524.742
473.608,524.771
475.06,524.544
476.511,521.464
477.963,516.785
479.415,519.256
480.867,528.429
482.319,518.318
483.77,508.753
485.222,519.406
486.674,534.941
488.126,514.449
489.577,518.996
491.029,528.543
492.481,527.219
493.933,514.284
495.385,505.045
496.836,519.552
498.288,521.139
499.74,519.204
501.192,518.521
502.644,504.917
504.095,506.891
505.547,505.735
506.999,511.085
508.451,516.765
509.902,519.153
511.354,512.766
512.806,502.055
514.258,504.817
515.71,522.303
517.161,530.552
518.613,518.537
520.065,495.085
521.517,499.307
522.969,502.732
524.42,503.289
525.872,501.901
527.324,503.328
528.776,512.595
530.228,513.072
531.679,522.547
533.131,521.758
534.583,512.465
536.035,512.507
537.486,496.968
538.938,479.727
540.39,493.998
541.842,505.099
543.294,503.925
544.745,507.712
546.197,511.353
547.649,509.566
549.101,506.134
550.553,506.441
552.004,506.903
553.456,511.842
554.908,509.941
556.36,510.048
557.811,509.511
559.263,518.693
560.715,513.946
562.167,498.903
563.619,511.047
565.07,506.466
566.522,503.972
567.974,494.953
569.426,492.314
570.878,509.203
572.329,489.11
573.781,513.478
575.233,519.647
576.685,513.08
578.137,505.906
579.588,505.811
581.04,500.418
582.492,497.724
583.944,506.239
585.395,507.655
586.847,500.459
588.299,494.799
589.751,499.379
591.203,518.302
592.654,502.209
594.106,491.855
595.558,501.133
597.01,497.992
598.462,498.801
599.913,497.354
601.365,512.815
602.817,515.347
604.269,508.383
605.72,515.173
607.172,513.979
608.624,492.732
610.076,502.464
611.528,505.298
612.979,503.462
614.431,502.385
615.883,510.056
617.335,509.418
618.787,515.133
620.238,515.908
621.69,504.731
623.142,501.967
624.594,517.116
626.046,501.866
627.497,502.68
628.949,510.688
630.401,508.845
631.853,496.471
633.304,505.367
634.756,518.605
636.208,506.194
637.66,519.73
639.112,528.29
640.563,520.363
642.015,522.179
643.467,530.089
644.919,516.138
646.371,512.301
647.822,514.592
649.274,521.099
650.726,524.136
652.178,548.288
653.629,532.469
655.081,537.365
656.533,533.01
657.985,526.292
659.437,525.118
660.888,540.475
662.34,530.135
663.792,530.508
665.244,526.961
666.696,523.767
668.147,529.13
669.599,531.424
671.051,526.766
672.503,527.186
673.954,533.408
675.406,533.919
676.858,532.717
678.31,535.493
679.762,531.843
681.213,542.043
682.665,541.014
684.117,540.692
685.569,534.774
687.021,526.113
688.472,537.491
689.924,525.986
691.376,530.17
692.828,521.875
694.28,521.576
695.731,532.568
697.183,526.745
698.635,521.211
700.087,531.818
701.538,539.205
702.99,536.428
704.442,540.509
705.894,546.963
707.346,536.755
708.797,551.263
710.249,538.11
711.701,551.141
713.153,559.18
714.605,555.399
716.056,550.16
717.508,536.952
718.96,545.145
720.412,534.637
721.863,541.639
723.315,551.459
724.767,553.891
726.219,549.041
727.671,537.929
729.122,542.748
730.574,547.74
732.026,542.47
733.478,535.072
734.93,539.153
736.381,541.987
737.833,547.04
739.285,552.637
740.737,549.47
742.189,552.742
743.64,559.897
745.092,552.783
746.544,529.572
747.996,539.805
749.447,561.198
750.899,554.947
752.351,540.633
753.803,536.413
755.255,538.389
756.706,541.275
758.158,532.383
759.61,539.83
761.062,548.321
762.514,546.755
763.965,547.022
765.417,560.942
766.869,551.737
768.321,532.696
769.772,547.022
771.224,546.27
772.676,542.944
774.128,567.748
775.58,543.734
777.031,552.736
778.483,542.216
779.935,556.263
781.387,564.433
782.839,559.253
784.29,571.75
785.742,572.741
787.194,550.003
788.646,555.044
790.098,562.208
791.549,553.525
793.001,557.641
794.453,556.853
795.905,563.98
797.356,557.797
798.808,556.678
800.26,555.773
801.712,559.201
803.164,569.833
804.615,581.593
806.067,556.189
807.519,564.937
808.971,569.508
810.423,567.876
811.874,567.784
813.326,574.674
814.778,553.46
816.23,572.771
817.681,566.041
819.133,579.304
820.585,595.072
822.037,587.07
823.489,576.099
824.94,574.597
826.392,575.436
827.844,584.771
829.296,590.459
830.748,576.157
832.199,565.094
833.651,566.003
835.103,599.141
836.555,589.199
838.007,593.71
839.458,606.804
840.91,605.337
842.362,589.73
843.814,585.13
845.265,581.454
846.717,584.45
848.169,593.639
849.621,621.98
851.073,611.888
852.524,602.629
853.976,616.151
855.428,613.023
856.88,619.653
858.332,620.063
859.783,618.948
861.235,608.379
862.687,620.685
864.139,625.777
865.59,623.716
867.042,628.147
868.494,599.792
869.946,594.848
871.398,596.499
872.849,610.531
874.301,612.289
875.753,608.516
877.205,607.879
878.657,612.285
880.108,599.553
881.56,602.633
883.012,601.915
884.464,603.741
885.915,600.201
887.367,595.344
888.819,603.544
890.271,598.745
891.723,604.055
893.174,619.835
894.626,627.35
896.078,632.802
897.53,628.617
898.982,618.59
900.433,613.214
901.885,606.048
903.337,621.615
904.789,630.719
906.241,632.324
907.692,634.894
909.144,628.606
910.596,633.011
912.048,626.024
913.499,640.259
914.951,635.338
916.403,629.68
917.855,618.426
919.307,605.018
920.758,621.62
922.21,644.81
923.662,637.333
925.114,640.676
926.566,638.49
928.017,638.646
929.469,654.165
930.921,646.952
932.373,641.639
933.824,612.225
935.276,641.381
936.728,655.001
938.18,647.344
939.632,652.327
941.083,652.004
942.535,639.41
943.987,644.352
945.439,659.682
946.891,648.106
948.342,639.993
949.794,642.93
951.246,644.451
952.698,650.619
954.15,666.011
955.601,644.809
957.053,635.637
958.505,643.203
959.957,647.015
961.408,639.768
962.86,636.635
964.312,664.529
965.764,666.049
967.216,657.222
968.667,643.958
970.119,658.085
971.571,652.919
973.023,653.67
974.475,661.123
975.926,648.701
977.378,655.565
978.83,654.071
980.282,659.573
981.733,659.112
983.185,667.475
984.637,665.606
986.089,659.537
987.541,658.167
988.992,674.597
990.444,666.867
991.896,683.304
993.348,666.13
994.8,673.152
996.251,682.7
997.703,669.543
999.155,691.369
1000.61,673.932
1002.06,680.233
1003.51,685.693
1004.96,682.481
1006.41,675.537
1007.87,682.822
1009.32,694.11
1010.77,696.9
1012.22,704.082
1013.67,702.843
1015.12,694.553
1016.58,701.666
1018.03,693.872
1019.48,695.524
1020.93,714.483
1022.38,725.644
1023.84,734.259
1025.29,740.334
1026.74,731.696
1028.19,734.532
1029.64,746.591
1031.09,749.309
1032.55,737.041
1034,747.7
1035.45,757.952
1036.9,763.919
1038.35,778.037
1039.8,778.277
1041.26,782.04
1042.71,800.762
1044.16,807.621
1045.61,779.413
1047.06,783.631
1048.52,798.186
1049.97,809.07
1051.42,815.624
1052.87,827.105
1054.32,821.674
1055.77,825.484
1057.23,845.234
1058.68,855.365
1060.13,869.318
1061.58,858.962
1063.03,866.746
1064.49,884.081
1065.94,891.942
1067.39,874
1068.84,869.873
1070.29,906.45
1071.74,912.96
1073.2,915.523
1074.65,927.246
1076.1,937.951
1077.55,946.085
1079,936.097
1080.46,930.74
1081.91,939.071
1083.36,932.492
1084.81,973.811
1086.26,978.159
1087.71,986.797
1089.17,974.016
1090.62,937.319
1092.07,957.184
1093.52,979.911
1094.97,958.653
1096.42,949.076
1097.88,965.429
1099.33,940.788
1100.78,938.105
1102.23,943.881
1103.68,943.736
1105.14,928.596
1106.59,926.425
1108.04,931.561
1109.49,922.888
1110.94,926.161
1112.39,902.297
1113.85,910.568
1115.3,906.92
1116.75,905.236
1118.2,904.544
1119.65,893.42
1121.11,890.028
1122.56,881.296
1124.01,890.079
1125.46,890.481
1126.91,876.272
1128.36,878.998
1129.82,876.674
1131.27,864.302
1132.72,866.737
1134.17,849.693
1135.62,863.166
1137.07,848.703
1138.53,843.67
1139.98,861.372
1141.43,862.072
1142.88,840.35
1144.33,845.016
1145.79,858.689
1147.24,872.291
1148.69,851.393
1150.14,841.437
1151.59,854.835
1153.04,832.178
1154.5,833.765
1155.95,843.263
1157.4,851.994
1158.85,851.425
1160.3,848.311
1161.76,847.693
1163.21,841.699
1164.66,840.08
1166.11,830.377
1167.56,845.105
1169.01,849.215
1170.47,857.057
1171.92,861.961
1173.37,853.286
1174.82,874.23
1176.27,858.629
1177.72,858.535
1179.18,888.952
1180.63,862.969
1182.08,861.201
1183.53,875.179
1184.98,871.804
1186.44,869.112
1187.89,864.046
1189.34,866.549
1190.79,869.514
1192.24,855.596
1193.69,879.886
1195.15,891.028
1196.6,883.902
1198.05,871.65
1199.5,877.571
1200.95,895.753
1202.41,896.94
1203.86,891.053
1205.31,888.183
1206.76,916.882
1208.21,910.858
1209.66,897.974
1211.12,885.935
1212.57,898.598
1214.02,897.573
1215.47,880.433
1216.92,896.821
1218.37,906.134
1219.83,907.569
1221.28,911.978
1222.73,911.858
1224.18,908.116
1225.63,920.351
1227.09,924.64
1228.54,910.756
1229.99,898.905
1231.44,914.336
1232.89,899.162
1234.34,928.092
1235.8,925.255
1237.25,918.642
1238.7,903.194
1240.15,923.811
1241.6,950.075
1243.06,941.574
1244.51,939.874
1245.96,947.452
1247.41,982.636
1248.86,965.984
1250.31,947.999
1251.77,971.905
1253.22,984.807
1254.67,985.533
1256.12,979.766
1257.57,983.474
1259.02,1001.27
1260.48,1011.83
1261.93,1043.19
1263.38,1026.22
1264.83,1044.28
1266.28,1047.11
1267.74,1068.71
1269.19,1077.85
1270.64,1083.09
1272.09,1110.77
1273.54,1144.66
1274.99,1147.84
1276.45,1143.99
1277.9,1132.11
1279.35,1164.73
1280.8,1204.17
1282.25,1210.45
1283.71,1222.48
1285.16,1225.22
1286.61,1235.3
1288.06,1272.73
1289.51,1299.43
1290.96,1301.87
1292.42,1341.65
1293.87,1395.78
1295.32,1408.55
1296.77,1461.51
1298.22,1507.55
1299.67,1538.44
1301.13,1561.57
1302.58,1610.77
1304.03,1673.3
1305.48,1707.77
1306.93,1758.8
1308.39,1833.09
1309.84,1901.53
1311.29,1970.06
1312.74,2057.27
1314.19,2172.15
1315.64,2268.88
1317.1,2355.22
1318.55,2442.59
1320,2527.69
1321.45,2635.04
1322.9,2777.08
1324.36,2845.9
1325.81,2957.4
1327.26,3051.63
1328.71,3149.14
1330.16,3224.98
1331.61,3282.3
1333.07,3330.14
1334.52,3396.52
1335.97,3433.15
1337.42,3378.89
1338.87,3381.94
1340.33,3324.31
1341.78,3263.6
1343.23,3210.54
1344.68,3117.64
1346.13,3050.26
1347.58,2959.26
1349.04,2824.64
1350.49,2699.4
1351.94,2586.47
1353.39,2449.97
1354.84,2344.24
1356.29,2290.75
1357.75,2186.96
1359.2,2095.52
1360.65,2033.99
1362.1,1927.05
1363.55,1837.96
1365.01,1778.41
1366.46,1722.87
1367.91,1670.68
1369.36,1633.71
1370.81,1596.25
1372.26,1559.6
1373.72,1527.32
1375.17,1499.46
1376.62,1434.43
1378.07,1420.32
1379.52,1390.69
1380.98,1376.31
1382.43,1369.71
1383.88,1343.53
1385.33,1308.4
1386.78,1308.64
1388.23,1312.2
1389.69,1278.75
1391.14,1269.95
1392.59,1306.09
1394.04,1311.37
1395.49,1262.83
1396.94,1260.52
1398.4,1239.9
1399.85,1242.15
1401.3,1248.88
1402.75,1234.43
1404.2,1228.8
1405.66,1226.04
1407.11,1244.07
1408.56,1260.39
1410.01,1247.02
1411.46,1252.95
1412.91,1221.82
1414.37,1242.57
1415.82,1245.73
1417.27,1235.82
1418.72,1227.64
1420.17,1229.64
1421.63,1243.42
1423.08,1235.43
1424.53,1252.04
1425.98,1230.8
1427.43,1240.29
1428.88,1237.62
1430.34,1273.03
1431.79,1280.51
1433.24,1276.1
1434.69,1285.2
1436.14,1296.55
1437.59,1315.6
1439.05,1308.73
1440.5,1309.58
1441.95,1334.68
1443.4,1349.49
1444.85,1348.62
1446.31,1318.36
1447.76,1342.62
1449.21,1358.2
1450.66,1375.86
1452.11,1370.84
1453.56,1368.78
1455.02,1382.7
1456.47,1406.92
1457.92,1424.22
1459.37,1444.36
1460.82,1437.65
1462.28,1444.94
1463.73,1509.5
1465.18,1524.25
1466.63,1532.37
1468.08,1526.5
1469.53,1535.8
1470.99,1546.57
1472.44,1560.27
1473.89,1600.42
1475.34,1634.98
1476.79,1642.51
1478.24,1670.09
1479.7,1670.51
1481.15,1735.63
1482.6,1732.54
1484.05,1770.87
1485.5,1794.76
1486.96,1802.06
1488.41,1834.46
1489.86,1877.65
1491.31,1896.78
1492.76,1938.52
1494.21,1980.19
1495.67,2023.84
1497.12,2050.22
1498.57,2102.33
1500.02,2133.74
1501.47,2208.45
1502.93,2223.96
1504.38,2294.78
1505.83,2367.64
1507.28,2460.94
1508.73,2532.08
1510.18,2612.34
1511.64,2692.97
1513.09,2787.49
1514.54,2907.77
1515.99,3018.06
1517.44,3129.9
1518.89,3213.65
1520.35,3350.46
1521.8,3485.34
1523.25,3689.33
1524.7,3869.9
1526.15,4146.38
1527.61,4343.02
1529.06,4652.04
1530.51,4975.47
1531.96,5341.75
1533.41,5764.16
1534.86,6168.26
1536.32,6657.3
1537.77,7269.45
1539.22,7941.36
1540.67,8705.05
1542.12,9492.12
1543.58,10370.7
1545.03,11313.4
1546.48,12344.1
1547.93,13476.4
1549.38,14668.8
1550.83,15927.6
1552.29,17283.9
1553.74,18638.4
1555.19,19927.5
1556.64,21242.5
1558.09,22614.8
1559.54,23822.7
1561,25059.5
1562.45,26069.1
1563.9,26806.8
1565.35,27236
1566.8,28373.2
1568.26,27252.6
1569.71,26797
1571.16,26192
1572.61,25245.1
1574.06,24018.6
1575.51,22553.8
1576.97,21073.5
1578.42,19569.7
1579.87,18091.4
1581.32,16626.9
1582.77,15202.6
1584.23,13912.2
1585.68,12573.3
1587.13,11428.3
1588.58,10489.9
1590.03,9563.81
1591.48,8734.1
1592.94,8099.14
1594.39,7561.83
1595.84,7004.91
1597.29,6564.84
1598.74,6136.42
1600.2,5762.77
1601.65,5499.32
1603.1,5233.9
1604.55,4950.75
1606,4735.77
1607.45,4509.88
1608.91,4280.31
1610.36,4065.47
1611.81,3831.03
1613.26,3730.83
1614.71,3540.76
1616.16,3389.41
1617.62,3206.41
1619.07,3062.25
1620.52,2952.96
1621.97,2814.54
1623.42,2681.93
1624.88,2605.45
1626.33,2518.48
1627.78,2417.22
1629.23,2297.67
1630.68,2223.19
1632.13,2182.69
1633.59,2135.22
1635.04,2062.36
1636.49,2009.56
1637.94,1963.84
1639.39,1922.01
1640.85,1886.23
1642.3,1879.45
1643.75,1826.6
1645.2,1770.65
1646.65,1748.39
1648.1,1716.49
1649.56,1661.96
1651.01,1635.94
1652.46,1619.04
1653.91,1581.73
1655.36,1553.99
1656.81,1542.27
1658.27,1531.22
1659.72,1522.33
1661.17,1496.14
1662.62,1451.6
1664.07,1442.18
1665.53,1414.4
1666.98,1415.68
1668.43,1414.3
1669.88,1370.78
1671.33,1351.57
1672.78,1338.49
1674.24,1321.07
1675.69,1313.36
1677.14,1288.78
1678.59,1286.12
1680.04,1282.6
1681.5,1276.07
1682.95,1252.86
1684.4,1242.06
1685.85,1221.03
1687.3,1230.47
1688.75,1203.23
1690.21,1202.17
1691.66,1182.33
1693.11,1181.94
1694.56,1166.7
1696.01,1156.63
1697.46,1160.35
1698.92,1155.04
1700.37,1157.38
1701.82,1157.46
1703.27,1144.71
1704.72,1137.15
1706.18,1137.28
1707.63,1140.75
1709.08,1130.77
1710.53,1115.79
1711.98,1122.53
1713.43,1128.42
1714.89,1120.38
1716.34,1098.75
1717.79,1085.41
1719.24,1075.09
1720.69,1091.47
1722.15,1089.67
1723.6,1103.99
1725.05,1084.5
1726.5,1078.43
1727.95,1077.77
1729.4,1076.57
1730.86,1097.89
1732.31,1092.03
1733.76,1081.46
1735.21,1076.25
1736.66,1075.63
1738.11,1068.17
1739.57,1073.16
1741.02,1056.1
1742.47,1059.42
1743.92,1064.72
1745.37,1055.11
1746.83,1057.82
1748.28,1049.92
1749.73,1038.07
1751.18,1061.88
1752.63,1032.41
1754.08,1001.97
1755.54,1022.55
1756.99,1040.68
1758.44,1027.57
1759.89,996.144
1761.34,1009.2
1762.8,1022.31
1764.25,1013.5
1765.7,1005.02
1767.15,1008.62
1768.6,992.71
1770.05,972.768
1771.51,980.808
1772.96,985.584
1774.41,974.571
1775.86,984.798
1777.31,975.203
1778.76,959.978
1780.22,970.82
1781.67,957.662
1783.12,948.238
1784.57,940.609
1786.02,922.239
1787.48,962.105
1788.93,915.771
1790.38,942.317
1791.83,933.739
1793.28,945.325
1794.73,926.502
1796.19,924.23
1797.64,931.108
1799.09,922.282
1800.54,915.19
1801.99,930.834
1803.45,928.775
1804.9,901.785
1806.35,900.059
1807.8,906.356
1809.25,900.896
1810.7,919.206
1812.16,916.147
1813.61,897.29
1815.06,896.453
1816.51,893.779
1817.96,885.295
1819.41,895.889
1820.87,912.422
1822.32,914.532
1823.77,918.667
1825.22,930.74
1826.67,927.852
1828.13,924.606
1829.58,952.075
1831.03,905.441
1832.48,899.837
1833.93,901.016
1835.38,910.192
1836.84,903.126
1838.29,928.51
1839.74,932.953
1841.19,937.157
1842.64,944.24
1844.1,931.108
1845.55,935.055
1847,946.359
1848.45,960.089
1849.9,985.516
1851.35,990.027
1852.81,976.51
1854.26,965.813
1855.71,969.06
1857.16,973.717
1858.61,971.35
1860.07,968.915
1861.52,981.381
1862.97,984.268
1864.42,978.236
1865.87,980.15
1867.32,982.833
1868.78,984.755
1870.23,978.732
1871.68,994.427
1873.13,968.488
1874.58,975.007
1876.03,964.062
1877.49,950.374
1878.94,946.077
1880.39,931.68
1881.84,933.056
1883.29,947.093
1884.75,963.259
1886.2,915.677
1887.65,933.235
1889.1,945.043
1890.55,926.776
1892,919.864
1893.46,919.983
1894.91,911.32
1896.36,898.341
1897.81,880.843
1899.26,865.362
1900.72,886.388
1902.17,894.428
1903.62,883.227
1905.07,882.432
1906.52,872.957
1907.97,875.324
1909.43,865.14
1910.88,872.487
1912.33,862.875
1913.78,860.116
1915.23,858.68
1916.68,848.573
1918.14,831.726
1919.59,840.247
1921.04,851.362
1922.49,853.189
1923.94,869.984
1925.4,859.441
1926.85,841.426
1928.3,814.606
1929.75,850.188
1931.2,847.798
1932.65,837.399
1934.11,854.562
1935.56,857.347
1937.01,846.108
1938.46,831.275
1939.91,817.617
1941.37,828.137
1942.82,848.63
1944.27,860.893
1945.72,862.833
1947.17,853.651
1948.62,858.176
1950.08,857.869
1951.53,841.519
1952.98,866.028
1954.43,861.175
1955.88,855.211
1957.33,857.51
1958.79,855.134
1960.24,854.81
1961.69,855.544
1963.14,865.165
1964.59,865.003
1966.05,851.493
1967.5,856.254
1968.95,876.093
1970.4,867.754
1971.85,855.297
1973.3,851.296
1974.76,847.944
1976.21,850.741
1977.66,874.034
1979.11,890.626
1980.56,886.867
1982.02,876.212
1983.47,876.349
1984.92,883.039
1986.37,876.913
1987.82,897.94
1989.27,892.446
1990.73,887.08
1992.18,895.829
1993.63,893.967
1995.08,882.834
1996.53,907.552
1997.98,897.846
1999.44,902.904
2000.89,899.563
2002.34,877.691
2003.79,915.199
2005.24,904.331
2006.7,885.021
2008.15,881.501
2009.6,875.358
2011.05,861.696
2012.5,875.708
2013.95,874.657
2015.41,833.446
2016.86,916.873
2018.31,864.456
2019.76,847.161
2021.21,875.401
2022.67,865.558
2024.12,857.253
2025.57,856.16
2027.02,871.992
2028.47,863.448
2029.92,915.831
2031.38,866.353
2032.83,851.663
2034.28,831.644
2035.73,833.613
2037.18,848.109
2038.63,818.07
2040.09,828.185
2041.54,835.188
2042.99,822.92
2044.44,817.942
2045.89,824.375
2047.35,813.081
2048.8,823.074
2050.25,804.849
2051.7,798.357
2053.15,797.888
2054.6,795.117
2056.06,796.323
2057.51,803.096
2058.96,801.191
2060.41,777.775
2061.86,780.286
2063.32,782.405
2064.77,807.538
2066.22,793.342
2067.67,785.636
2069.12,791.882
2070.57,787.841
2072.03,779.443
2073.48,774.439
2074.93,763.173
2076.38,763.914
2077.83,764.994
2079.28,768.689
2080.74,763.621
2082.19,769.723
2083.64,765.776
2085.09,760.069
2086.54,767.266
2088,773.524
2089.45,768.515
2090.9,765.967
2092.35,765.062
2093.8,760.575
2095.25,752.901
2096.71,756.944
2098.16,756.85
2099.61,757.704
2101.06,748.322
2102.51,750.856
2103.97,772.377
2105.42,785.364
2106.87,770.488
2108.32,767.045
2109.77,760.952
2111.22,753.698
2112.68,770.051
2114.13,786.048
2115.58,765.442
2117.03,764.569
2118.48,792.887
2119.94,793.751
2121.39,781.127
2122.84,772.728
2124.29,777.03
2125.74,788.629
2127.19,791.57
2128.65,763.126
2130.1,774.75
2131.55,799.637
2133,783.391
2134.45,775.099
2135.9,788.388
2137.36,776.218
2138.81,769.319
2140.26,782.941
2141.71,801.043
2143.16,782.358
2144.62,792.367
2146.07,792.961
2147.52,789.083
2148.97,799.616
2150.42,796.277
2151.87,804.941
2153.33,815.746
2154.78,803.23
2156.23,799.563
2157.68,802.444
2159.13,809.889
2160.58,811.95
2162.04,814.153
2163.49,801.566
2164.94,797.204
2166.39,805.8
2167.84,819.209
2169.3,812.573
2170.75,803.004
2172.2,800.051
2173.65,823.027
2175.1,818.672
2176.55,810.892
2178.01,822.814
2179.46,825.295
2180.91,810.619
2182.36,811.771
2183.81,817.204
2185.27,815.586
2186.72,846.776
2188.17,854.313
2189.62,853.038
2191.07,845.434
2192.52,821.218
2193.98,835.089
2195.43,813.277
2196.88,824.219
2198.33,855.28
2199.78,849.963
2201.24,874.512
2202.69,844.994
2204.14,840.734
2205.59,846.562
2207.04,858.748
2208.49,829.679
2209.95,837.305
2211.4,856.314
2212.85,829.899
2214.3,845.375
2215.75,809.053
2217.2,829.483
2218.66,844.162
2220.11,833.587
2221.56,852.164
2223.01,853.616
2224.46,847.038
2225.92,820.559
2227.37,820.562
2228.82,824.795
2230.27,856.399
2231.72,859.389
2233.17,841.006
2234.63,864.61
2236.08,857.578
2237.53,839.037
2238.98,857.117
2240.43,860.517
2241.89,870.548
2243.34,865.686
2244.79,865.097
2246.24,878.938
2247.69,882.151
2249.14,875.375
2250.6,871.565
2252.05,866.703
2253.5,872.863
2254.95,869.429
2256.4,860.714
2257.85,883.509
2259.31,898.82
2260.76,878.271
2262.21,882.005
2263.66,878.536
2265.11,882.296
2266.57,895.513
2268.02,890.831
2269.47,885.252
2270.92,882.774
2272.37,874.504
2273.82,902.109
2275.28,890.284
2276.73,883.312
2278.18,887.234
2279.63,888.405
2281.08,902.656
2282.54,912.559
2283.99,904.587
2285.44,933.773
2286.89,926.357
2288.34,923.333
2289.79,930.099
2291.25,935.192
2292.7,926.52
2294.15,916.42
2295.6,931.561
2297.05,923.657
2298.5,938.362
2299.96,949.161
2301.41,961.311
2302.86,937.106
2304.31,919.898
2305.76,975.972
2307.22,980.765
2308.67,956.167
2310.12,949.46
2311.57,946.589
2313.02,981.568
2314.47,999.528
2315.93,969.906
2317.38,971.273
2318.83,985.55
2320.28,952.527
2321.73,960.388
2323.19,982.312
2324.64,999.673
2326.09,1003.95
2327.54,1007.56
2328.99,997.435
2330.44,1001.85
2331.9,1009.48
2333.35,1008.81
2334.8,1020.57
2336.25,1024.29
2337.7,1027.39
2339.16,1024.24
2340.61,1024.41
2342.06,1044.68
2343.51,1053.24
2344.96,1051.47
2346.41,1065.14
2347.87,1048.4
2349.32,1056.25
2350.77,1089.46
2352.22,1094.81
2353.67,1098.72
2355.12,1101.03
2356.58,1103.53
2358.03,1094.51
2359.48,1118.63
2360.93,1092.61
2362.38,1111.39
2363.84,1127.02
2365.29,1130.19
2366.74,1127.94
2368.19,1146.34
2369.64,1172.67
2371.09,1194.02
2372.55,1216.75
2374,1218.22
2375.45,1245.73
2376.9,1245.39
2378.35,1256.15
2379.8,1290.15
2381.26,1287.12
2382.71,1298.03
2384.16,1300.52
2385.61,1321.86
2387.06,1341.94
2388.52,1335.7
2389.97,1388.11
2391.42,1413.44
2392.87,1440.89
2394.32,1462.79
2395.77,1508.88
2397.23,1487.47
2398.68,1498.23
2400.13,1548.95
2401.58,1587.94
2403.03,1625.62
2404.49,1633.13
2405.94,1662.72
2407.39,1707.04
2408.84,1726.36
2410.29,1752.04
2411.74,1771.52
2413.2,1795.81
2414.65,1811.62
2416.1,1870.76
2417.55,1907.96
2419,1906.16
2420.46,1909.24
2421.91,1918.5
2423.36,1891.24
2424.81,1909.65
2426.26,1968.04
2427.71,1958.23
2429.17,1963.82
2430.62,2011.06
2432.07,1985.34
2433.52,1990.29
2434.97,1934.99
2436.42,1952.47
2437.88,1976.06
2439.33,1952.6
2440.78,1945.89
2442.23,1920.64
2443.68,1900.06
2445.14,1918.21
2446.59,1891.18
2448.04,1901.7
2449.49,1900.06
2450.94,1877.66
2452.39,1845.1
2453.85,1839.62
2455.3,1823.05
2456.75,1813.86
2458.2,1799.55
2459.65,1790.51
2461.1,1776.37
2462.56,1757.17
2464.01,1767.93
2465.46,1749.61
2466.91,1711.16
2468.36,1725.9
2469.82,1689.22
2471.27,1743
2472.72,1734.2
2474.17,1698.62
2475.62,1682.47
2477.07,1664.11
2478.53,1657.35
2479.98,1641.49
2481.43,1648.85
2482.88,1684.27
2484.33,1686.06
2485.79,1688.46
2487.24,1654.84
2488.69,1654.27
2490.14,1649.53
2491.59,1671.32
2493.04,1667.4
2494.5,1665.81
2495.95,1648.34
2497.4,1672.34
2498.85,1654.38
2500.3,1684.38
2501.76,1697.3
2503.21,1689.58
2504.66,1716.2
2506.11,1698.45
2507.56,1683.27
2509.01,1672.18
2510.47,1733.31
2511.92,1716.99
2513.37,1717.63
2514.82,1753.84
2516.27,1762.23
2517.72,1775.69
2519.18,1769.4
2520.63,1752.75
2522.08,1777.95
2523.53,1802.61
2524.98,1817.29
2526.44,1795.8
2527.89,1820.69
2529.34,1852.98
2530.79,1885.82
2532.24,1897.4
2533.69,1902.92
2535.15,1930.82
2536.6,1922.59
2538.05,2004.82
2539.5,1982.14
2540.95,2003.56
2542.41,2028.05
2543.86,2058.56
2545.31,2083.35
2546.76,2105.32
2548.21,2090.89
2549.66,2131.45
2551.12,2168.8
2552.57,2234.48
2554.02,2271.49
2555.47,2276.02
2556.92,2298.45
2558.37,2330.7
2559.83,2379.85
2561.28,2404.37
2562.73,2430.34
2564.18,2523.17
2565.63,2581.62
2567.09,2600.28
2568.54,2641.97
2569.99,2688.12
2571.44,2748.19
2572.89,2784.18
2574.34,2845.78
2575.8,2856.86
2577.25,3002.19
2578.7,3098.17
2580.15,3147.1
2581.6,3201.38
2583.06,3265.3
2584.51,3338.15
2585.96,3444.42
2587.41,3575.06
2588.86,3662.36
2590.31,3745.84
2591.77,3825.52
2593.22,3973.76
2594.67,4080.41
2596.12,4206.88
2597.57,4374.48
2599.02,4505.54
2600.48,4641.7
2601.93,4795.43
2603.38,4950.14
2604.83,5164.84
2606.28,5330.55
2607.74,5562.16
2609.19,5714.93
2610.64,5950.12
2612.09,6120.35
2613.54,6390.48
2614.99,6657.38
2616.45,6928.11
2617.9,7218.63
2619.35,7514.22
2620.8,7792.59
2622.25,8127.39
2623.71,8452.3
2625.16,8829.2
2626.61,9167.88
2628.06,9503.4
2629.51,9972.81
2630.96,10310.5
2632.42,10783.8
2633.87,11159
2635.32,11577.1
2636.77,11982.6
2638.22,12442.6
2639.68,12832.2
2641.13,13155.9
2642.58,13537.5
2644.03,13968.2
2645.48,14326.9
2646.93,14757.3
2648.39,14967.6
2649.84,15369.1
2651.29,15645.8
2652.74,15859
2654.19,16048.1
2655.64,16332.5
2657.1,16425.9
2658.55,16537.5
2660,16642
2661.45,16612.3
2662.9,16499.2
2664.36,16408.9
2665.81,16312.6
2667.26,16091.7
2668.71,15979.9
2670.16,15808.4
2671.61,15580.8
2673.07,15204.6
2674.52,14876.3
2675.97,14397.1
2677.42,14080
2678.87,13677.6
2680.32,13330.1
2681.78,12872.8
2683.23,12415.1
2684.68,11972.4
2686.13,11565.2
2687.58,11095.1
2689.04,10745.9
2690.49,10283.8
2691.94,9895.66
2693.39,9468.54
2694.84,9053.99
2696.29,8676.34
2697.75,8293.51
2699.2,7992.13
2700.65,7641.99
2702.1,7277.42
2703.55,6961.83
2705.01,6635.77
2706.46,6409.77
2707.91,6109.28
2709.36,5870.9
2710.81,5606.9
2712.26,5341.25
2713.72,5172.7
2715.17,4986.19
2716.62,4778.28
2718.07,4554.86
2719.52,4415.27
2720.98,4268.93
2722.43,4082.95
2723.88,3949.41
2725.33,3830.37
2726.78,3679.17
2728.23,3540.38
2729.69,3483.98
2731.14,3341.56
2732.59,3231.07
2734.04,3158.46
2735.49,3067.54
2736.94,2966.2
2738.4,2889.61
2739.85,2809.9
2741.3,2704.06
2742.75,2672.42
2744.2,2652.21
2745.66,2526.08
2747.11,2467.96
2748.56,2422.56
2750.01,2389.43
2751.46,2350.63
2752.91,2318.25
2754.37,2248.14
2755.82,2210.69
2757.27,2163.02
2758.72,2131.61
2760.17,2046.59
2761.63,2044.39
2763.08,2021.41
2764.53,1960.16
2765.98,1965
2767.43,1932.26
2768.88,1865.51
2770.34,1869.47
2771.79,1826.54
2773.24,1793.01
2774.69,1768.04
2776.14,1751.49
2777.59,1772.71
2779.05,1710.76
2780.5,1694.48
2781.95,1685.33
2783.4,1693.93
2784.85,1673.97
2786.31,1636.62
2787.76,1609.45
2789.21,1608.34
2790.66,1583.93
2792.11,1563.89
2793.56,1534.54
2795.02,1531.68
2796.47,1526.05
2797.92,1523.85
2799.37,1502.33
2800.82,1502.94
2802.28,1499.42
2803.73,1462.34
2805.18,1452.05
2806.63,1454.24
2808.08,1433.83
2809.53,1402.8
2810.99,1412.1
2812.44,1409.02
2813.89,1369.11
2815.34,1374.69
2816.79,1355.06
2818.24,1368.71
2819.7,1367.2
2821.15,1355.04
2822.6,1336.03
2824.05,1327.85
2825.5,1323.49
2826.96,1336.83
2828.41,1318.31
2829.86,1330.74
2831.31,1286.47
2832.76,1271.42
2834.21,1287.65
2835.67,1296.19
2837.12,1293.39
2838.57,1292.02
2840.02,1255.8
2841.47,1277.77
2842.93,1231.25
2844.38,1248.93
2845.83,1237.36
2847.28,1223.15
2848.73,1215.47
2850.18,1235.24
2851.64,1230.39
2853.09,1237.02
2854.54,1229.63
2855.99,1218.53
2857.44,1200.24
2858.9,1229.31
2860.35,1211.28
2861.8,1201.05
2863.25,1221.37
2864.7,1202.96
2866.15,1207.39
2867.61,1219.07
2869.06,1229.72
2870.51,1221.56
2871.96,1274.22
2873.41,1235.1
2874.86,1235.07
2876.32,1203.19
2877.77,1217.49
2879.22,1208.22
2880.67,1224.28
2882.12,1244.89
2883.58,1241.74
2885.03,1237.96
2886.48,1229.69
2887.93,1195.65
2889.38,1216.2
2890.83,1205.1
2892.29,1248.11
2893.74,1229
2895.19,1210.06
2896.64,1205.46
2898.09,1205.73
2899.54,1210.09
2901,1196.14
2902.45,1197.24
2903.9,1248.6
2905.35,1198.83
2906.8,1223
2908.26,1224.22
2909.71,1218.88
2911.16,1198.75
2912.61,1187.39
2914.06,1171.51
2915.51,1182.11
2916.97,1167.81
2918.42,1181.8
2919.87,1173.07
2921.32,1177.58
2922.77,1158.96
2924.23,1149.48
2925.68,1135.32
2927.13,1136.68
2928.58,1159.31
2930.03,1129.76
2931.48,1128.7
2932.94,1095.13
2934.39,1109.94
2935.84,1100.51
2937.29,1092.26
2938.74,1072.32
2940.2,1078.53
2941.65,1054.24
2943.1,1023.44
2944.55,1029.15
2946,1034.3
2947.45,999.639
2948.91,984.499
2950.36,995.444
2951.81,1006.12
2953.26,969.351
2954.71,977.681
2956.16,990.642
2957.62,969.709
2959.07,951.169
2960.52,958.739
2961.97,937.37
2963.42,935.286
2964.88,903.75
2966.33,906.689
2967.78,927.28
2969.23,912.55
2970.68,901.289
2972.13,906.347
2973.59,883.834
2975.04,878.477
2976.49,889.293
2977.94,882.843
2979.39,874.64
2980.84,869.839
2982.3,872.368
2983.75,855.023
2985.2,850.494
2986.65,833.935
2988.1,853.83
2989.56,854.579
2991.01,851.395
2992.46,857.655
2993.91,845.648
2995.36,835.599
2996.81,822.906
2998.27,828.071
2999.72,831.895
3001.17,813.077
3002.62,810.261
3004.07,803.712
3005.53,831.188
3006.98,822.899
3008.43,811.031
3009.88,812.613
3011.33,808.543
3012.78,811.745
3014.24,811.578
3015.69,781.278
3017.14,801.023
3018.59,794.029
3020.04,786.543
3021.5,801.153
3022.95,794.053
3024.4,792.072
3025.85,802.808
3027.3,799.928
3028.75,783.196
3030.21,821.099
3031.66,778.624
3033.11,795.877
3034.56,804.541
3036.01,786.17
3037.46,787.627
3038.92,792.414
3040.37,778.995
3041.82,790.797
3043.27,802.779
3044.72,774.115
3046.18,783.914
3047.63,789.448
3049.08,793.208
3050.53,795.615
3051.98,794.532
3053.43,789.889
3054.89,789.629
3056.34,791.675
3057.79,792.773
3059.24,808.345
3060.69,804.009
3062.15,801.357
3063.6,799.642
3065.05,805.173
3066.5,816.203
3067.95,807.248
3069.4,794.716
3070.86,804.252
3072.31,809.773
3073.76,810.641
3075.21,836.472
3076.66,809.29
3078.11,840.937
3079.57,838.943
3081.02,839.574
3082.47,839.313
3083.92,851.786
3085.37,854.878
3086.83,872.778
3088.28,859.107
3089.73,862.029
3091.18,862.363
3092.63,884.867
3094.08,908.774
3095.54,905.347
3096.99,910.995
3098.44,944.65
3099.89,934.448
3101.34,934.235
3102.8,974.289
3104.25,997.802
3105.7,1010.73
3107.15,1028.7
3108.6,1022.34
3110.05,1029.09
3111.51,1043.65
3112.96,1058.92
3114.41,1108.41
3115.86,1100.65
3117.31,1109.75
3118.76,1093.11
3120.22,1135.04
3121.67,1155.29
3123.12,1154.35
3124.57,1176.88
3126.02,1208.1
3127.48,1201.73
3128.93,1270.86
3130.38,1255.26
3131.83,1245.45
3133.28,1254.46
3134.73,1281.04
3136.19,1268.01
3137.64,1274.9
3139.09,1259.43
3140.54,1301.67
3141.99,1308.25
3143.45,1316.94
3144.9,1302.08
3146.35,1316.62
3147.8,1329.13
3149.25,1352.92
3150.7,1334.34
3152.16,1373.19
3153.61,1361.97
3155.06,1334.11
3156.51,1345.45
3157.96,1352.55
3159.42,1370.68
3160.87,1328.51
3162.32,1361.68
3163.77,1368.35
3165.22,1365.37
3166.67,1386.31
3168.13,1389.13
3169.58,1364.57
3171.03,1351.54
3172.48,1381.63
3173.93,1378.9
3175.38,1406.26
3176.84,1436.02
3178.29,1434.51
3179.74,1464.97
3181.19,1467.35
3182.64,1484.3
3184.1,1526.27
3185.55,1501.7
3187,1532
3188.45,1542.04
3189.9,1536.6
3191.35,1577.32
3192.81,1566.21
3194.26,1567.65
3195.71,1593.28
3197.16,1594.82
3198.61,1578.51
3200.06,1626.58
3201.52,1619.19
3202.97,1623.22
3204.42,1587.71
3205.87,1604.56
3207.32,1612.05
3208.78,1583.83
3210.23,1607.35
3211.68,1536.8
3213.13,1492.67
3214.58,1481.75
3216.03,1450.62
3217.49,1441.17
3218.94,1407.91
3220.39,1379.16
3221.84,1343.91
3223.29,1320.04
3224.75,1260.69
3226.2,1233.32
3227.65,1220.32
3229.1,1183.69
3230.55,1146.23
3232,1123.91
3233.46,1087.47
3234.91,1056.23
3236.36,1035.63
3237.81,1038.17
3239.26,974.178
3240.72,933.209
3242.17,924.708
3243.62,924.401
3245.07,898.863
3246.52,871.112
3247.97,836.972
3249.43,861.944
3250.88,810.258
3252.33,788.193
3253.78,781.861
3255.23,771.071
3256.68,754.664
3258.14,784.93
3259.59,756.61
3261.04,742.701
3262.49,726.077
3263.94,725.152
3265.4,710.22
3266.85,688.107
3268.3,713.925
3269.75,712.045
3271.2,690.468
3272.65,696.967
3274.11,685.315
3275.56,681.821
3277.01,677.628
3278.46,673.473
3279.91,662.036
3281.37,663.106
3282.82,674.959
3284.27,680.503
3285.72,641.084
3287.17,657.428
3288.62,653.18
3290.08,647.725
3291.53,640.268
3292.98,626.154
3294.43,651.441
3295.88,635.766
3297.33,644.339
3298.79,643.464
3300.24,658.534
3301.69,643.396
3303.14,644.046
3304.59,631.654
3306.05,678.063
3307.5,644.14
3308.95,637.195
3310.4,639.859
3311.85,630.321
3313.3,629.87
3314.76,624.724
3316.21,637.633
3317.66,632.865
3319.11,619.097
3320.56,631.337
3322.02,621.648
3323.47,626.134
3324.92,631.5
3326.37,636.252
3327.82,635.914
3329.27,630.433
3330.73,625.315
3332.18,631.033
3333.63,638.426
3335.08,609.618
3336.53,605.739
3337.98,636.955
3339.44,614.875
3340.89,615.781
3342.34,622.011
3343.79,629.932
3345.24,621.819
3346.7,617.427
3348.15,611.265
3349.6,617.068
3351.05,620.361
3352.5,600.387
3353.95,623.719
3355.41,610.539
3356.86,587.988
3358.31,604.342
3359.76,627.605
3361.21,615.825
3362.67,621.765
3364.12,607.583
3365.57,612.879
3367.02,617.916
3368.47,603.556
3369.92,613.77
3371.38,623.168
3372.83,613.949
3374.28,586.83
3375.73,595.629
3377.18,612.716
3378.63,617.839
3380.09,623.971
3381.54,594.969
3382.99,594.489
3384.44,594.238
3385.89,588.997
3387.35,606.119
3388.8,591.963
3390.25,599.977
3391.7,590.917
3393.15,587.816
3394.6,596.937
3396.06,604.36
3397.51,608.317
3398.96,615.746
3400.41,597.264
3401.86,593.758
3403.32,601.722
3404.77,606.524
3406.22,621.412
3407.67,590.06
3409.12,598.35
3410.57,591.586
3412.03,585.939
3413.48,573.417
3414.93,606.973
3416.38,604.595
3417.83,593.67
3419.28,591.664
3420.74,620.078
3422.19,589.067
3423.64,609.918
3425.09,598.344
3426.54,586.892
3428,569.084
3429.45,597.867
3430.9,602.306
3432.35,607.241
3433.8,607.863
3435.25,580.844
3436.71,584.391
3438.16,584.357
3439.61,605.437
3441.06,601.242
3442.51,584.445
3443.97,577.355
3445.42,570.588
3446.87,598.751
3448.32,581.062
3449.77,575.841
3451.22,580.346
3452.68,608.07
3454.13,569.333
3455.58,572.163
3457.03,601.766
3458.48,586.434
3459.94,587.841
3461.39,574.952
3462.84,586.204
3464.29,591.088
3465.74,588.493
3467.19,588.784
3468.65,566.544
3470.1,595.282
3471.55,585.944
3473,569.484
3474.45,555.398
3475.9,589.305
3477.36,602.938
3478.81,607.077
3480.26,598.154
3481.71,571.199
3483.16,586.514
3484.62,559.022
3486.07,593.941
3487.52,577.58
3488.97,564.216
3490.42,582.22
3491.87,586.847
3493.33,594.88
3494.78,581.438
3496.23,581.553
3497.68,583.819
3499.13,582.74
3500.58,591.296
3502.04,603.823
3503.49,581.505
3504.94,567.384
3506.39,560.557
3507.84,588.476
3509.3,608.797
3510.75,611.375
3512.2,579.232
3513.65,581.003
3515.1,592.378
3516.55,583.96
3518.01,593.575
3519.46,587.211
3520.91,583.451
3522.36,581.78
3523.81,585.072
3525.27,585.911
3526.72,572.649
3528.17,590.488
3529.62,578.285
3531.07,588.459
3532.52,595.69
3533.98,591.122
3535.43,599.59
3536.88,589.331
3538.33,565.755
3539.78,584.931
3541.24,590.067
3542.69,574.724
3544.14,591.317
3545.59,594.824
3547.04,582.491
3548.49,575.808
3549.95,588.514
3551.4,576.697
3552.85,567.453
3554.3,570.601
3555.75,592.631
3557.2,599.108
3558.66,577.788
3560.11,573.276
3561.56,579.558
3563.01,580.682
3564.46,584.294
3565.92,584.204
3567.37,579.226
3568.82,581.621
3570.27,582.745
3571.72,568.673
3573.17,575.091
3574.63,586.965
3576.08,583.833
3577.53,598.055
3578.98,557.975
3580.43,573.81
3581.89,569.631
3583.34,571.259
3584.79,562.793
3586.24,589.268
3587.69,571.287
3589.14,587.126
3590.6,588.419
3592.05,572.989
3593.5,574.465
3594.95,569.59
3596.4,562.938
3597.85,563.545
3599.31,583.797
3600.76,586.462
3602.21,566.623
3603.66,585.409
3605.11,550.897
3606.57,584.475
3608.02,582.307
3609.47,576.904
3610.92,581.382
3612.37,598.677
3613.82,574.542
3615.28,577.93
3616.73,565.01
3618.18,598.999
3619.63,563.636
3621.08,588.498
3622.54,581.796
3623.99,587.433
3625.44,592.524
3626.89,585.286
3628.34,567.803
3629.79,572.068
3631.25,574.255
3632.7,580.736
3634.15,574.062
3635.6,570.084
3637.05,564.336
3638.5,580.086
3639.96,574.123
3641.41,582.091
3642.86,577.476
3644.31,567.002
3645.76,581.312
3647.22,574.267
3648.67,574.389
3650.12,564.539
3651.57,568.69
3653.02,558.418
3654.47,579.613
3655.93,603.586
3657.38,580.898
3658.83,587.383
3660.28,580.249
3661.73,580.052
3663.19,569.806
3664.64,587.29
3666.09,557.438
3667.54,577.015
3668.99,580.618
3670.44,595.258
3671.9,579.732
3673.35,572.955
3674.8,597.994
3676.25,589.583
3677.7,562.833
3679.16,579.544
3680.61,580.254
3682.06,594.689
3683.51,580.61
3684.96,586.208
3686.41,585.962
3687.87,579.013
3689.32,588.664
3690.77,566.517
3692.22,590.949
3693.67,574.454
3695.12,579.145
3696.58,584.418
3698.03,590.235
3699.48,590.655
3700.93,590.122
3702.38,579.284
3703.84,596.997
3705.29,585.1
3706.74,569.795
3708.19,585.607
3709.64,613.053
3711.09,598.196
3712.55,592.052
3714,577.433
3715.45,581.744
3716.9,586.992
3718.35,593.167
3719.8,599.81
3721.26,586.72
3722.71,573.925
3724.16,586.462
3725.61,596.191
3727.06,595.861
3728.52,585.921
3729.97,582.528
3731.42,595.737
3732.87,591.831
3734.32,587.084
3735.77,607.738
3737.23,604.503
3738.68,593.368
3740.13,571.933
3741.58,601.159
3743.03,578.254
3744.49,582.365
3745.94,610.997
3747.39,594.322
3748.84,600.386
3750.29,608.074
3751.74,588.959
3753.2,590.007
3754.65,589.951
3756.1,575.541
3757.55,593.924
3759,586.221
3760.46,598.339
3761.91,603.649
3763.36,607.003
3764.81,608.925
3766.26,612.664
3767.71,582.728
3769.17,592.75
3770.62,606.448
3772.07,576.996
3773.52,585.022
3774.97,597.23
3776.42,581.877
3777.88,594.292
3779.33,596.25
3780.78,610.813
3782.23,611.992
3783.68,613.643
3785.14,627.126
3786.59,597.902
3788.04,591.637
3789.49,582.927
3790.94,608.64
3792.39,609.108
3793.85,602.744
3795.3,612.785
3796.75,616.478
3798.2,610.592
3799.65,604.844
3801.1,606.897
3802.56,571.193
3804.01,615.503
3805.46,605.803
3806.91,603.075
3808.36,623.094
3809.82,616.927
3811.27,604.281
3812.72,600.867
3814.17,603.768
3815.62,627.196
3817.07,619.734
3818.53,619.06
3819.98,646.761
3821.43,598.291
3822.88,599.497
3824.33,600.077
3825.79,617.948
3827.24,653.239
3828.69,650.554
3830.14,605.326
3831.59,629.678
3833.04,606.795
3834.5,613.825
3835.95,617.697
3837.4,626.224
3838.85,618.115
3840.3,616.73
3841.76,656.936
3843.21,591.006
3844.66,613.368
3846.11,614.37
3847.56,599.852
3849.01,651.756
3850.47,598.241
3851.92,623.771
3853.37,595.188
3854.82,605.909
3856.27,630.141
3857.72,630.898
3859.18,640.908
3860.63,638.272
3862.08,607.118
3863.53,630.657
3864.98,639.73
3866.44,661.897
3867.89,626.723
3869.34,619.229
3870.79,635.5
3872.24,638.638
3873.69,629.035
3875.15,638.501
3876.6,615.764
3878.05,625.339
3879.5,646.886
3880.95,622.885
3882.41,633.944
3883.86,646.275
3885.31,632.472
3886.76,628.875
3888.21,640.39
3889.66,643.002
3891.12,637.331
3892.57,663.129
3894.02,660.571
3895.47,665.774
3896.92,655.182
3898.37,654.527
3899.83,649.228
3901.28,639.44
3902.73,658.662
3904.18,649.723
3905.63,667.765
3907.09,659.458
3908.54,661.615
3909.99,680.021
3911.44,669.684
3912.89,671.918
3914.34,670.676
3915.8,646.109
3917.25,663.446
3918.7,695.064
3920.15,685.21
3921.6,707.339
3923.06,685.687
3924.51,660.153
3925.96,697.463
3927.41,691.39
3928.86,682.306
3930.31,721.936
3931.77,701.714
3933.22,705.343
3934.67,708.37
3936.12,704.937
3937.57,708.894
3939.02,712.104
3940.48,704.667
3941.93,695.611
3943.38,702.39
3944.83,713.423
3946.28,709.657
3947.74,712.747
3949.19,710.104
3950.64,717.585
3952.09,701.726
3953.54,694.547
3954.99,723.947
3956.45,718.68
3957.9,710.856
3959.35,754.191
3960.8,722.507
3962.25,733.544
3963.71,721.892
3965.16,725.569
3966.61,736.855
3968.06,735.156
3969.51,741.678
3970.96,727.924
3972.42,739.598
3973.87,742.267
3975.32,750.975
3976.77,742.62
3978.22,750.657
3979.68,748.312
3981.13,744.435
3982.58,767.474
3984.03,755.294
3985.48,779.846
3986.93,747.299
3988.39,770.579
3989.84,795.795
3991.29,770.7
3992.74,767.165
3994.19,759.261
3995.64,780.339
3997.1,780.602
3998.55,787.566
4000,785.292
