-8.3857,79.1952
-6.93391,104.39
-5.48212,327.887
-4.03034,3575.72
-2.57855,13900.7
-1.12676,49807.9
0.325027,72653.9
1.77681,75117.4
3.2286,51356.2
4.68039,18620.8
6.13218,5228.2
7.58397,631.74
9.03575,136.176
10.4875,118.219
11.9393,120.737
13.3911,126.814
14.8429,125.299
16.2947,118.879
17.7465,111.631
19.1983,94.1393
20.6501,80.9637
22.1018,71.8695
23.5536,64.6007
25.0054,57.2382
26.4572,52.0742
27.909,47.92
29.3608,45.0921
30.8126,40.5594
32.2644,39.9776
33.7161,36.5844
35.1679,35.1898
36.6197,36.5594
38.0715,41.1741
39.5233,41.2788
40.9751,42.8969
42.4269,47.1309
43.8787,51.2865
45.3304,61.2461
46.7822,70.9999
48.234,99.769
49.6858,163.403
51.1376,270.107
52.5894,442.024
54.0412,701.971
55.493,1057.43
56.9447,1486.92
58.3965,1942.66
59.8483,2392.94
61.3001,2703.22
62.7519,2940.69
64.2037,3157
65.6555,3261.93
67.1073,3367.16
68.559,3426.38
70.0108,3472.34
71.4626,3578.75
72.9144,3648.6
74.3662,3693.27
75.818,3738.02
77.2698,3811.46
78.7216,3961.71
80.1733,4073
81.6251,4174.8
83.0769,4227.82
84.5287,4253.38
85.9805,4280.92
87.4323,4204.52
88.8841,4081.69
90.3359,3965.49
91.7877,3818.2
93.2394,3666.94
94.6912,3474.05
96.143,3336.23
97.5948,3217.8
99.0466,3036.71
100.498,2973.41
101.95,2845.58
103.402,2748.59
104.854,2686.89
106.306,2657.1
107.757,2627.06
109.209,2608.56
110.661,2572.45
112.113,2517.53
113.564,2492.45
115.016,2471.95
116.468,2425.35
117.92,2383.31
119.372,2355.35
120.823,2314.28
122.275,2238.3
123.727,2174.79
125.179,2118.08
126.631,2095.02
128.082,2096.27
129.534,2014.74
130.986,1977.39
132.438,1959.52
133.889,1913.98
135.341,1882.01
136.793,1866.94
138.245,1830.78
139.697,1800.84
141.148,1759.35
142.6,1751.35
144.052,1710.2
145.504,1671.36
146.956,1651.04
148.407,1641.45
149.859,1643.16
151.311,1599.1
152.763,1563.63
154.215,1561.21
155.666,1561.76
157.118,1528.94
158.57,1579.81
160.022,1593.72
161.473,1583.68
162.925,1593.95
164.377,1657.19
165.829,1679.49
167.281,1694.79
168.732,1716.35
170.184,1687.76
171.636,1612.69
173.088,1555.14
174.54,1500.63
175.991,1434.02
177.443,1415.38
178.895,1399.55
180.347,1403.36
181.798,1382.81
183.25,1359.17
184.702,1347.09
186.154,1345.08
187.606,1331.96
189.057,1316.97
190.509,1303.78
191.961,1288.11
193.413,1328.76
194.865,1319.39
196.316,1302.03
197.768,1283.34
199.22,1303.79
200.672,1282.6
202.124,1285.28
203.575,1290.71
205.027,1260.71
206.479,1269.45
207.931,1275.57
209.382,1290.88
210.834,1284.8
212.286,1255.88
213.738,1250.53
215.19,1278.64
216.641,1278.01
218.093,1278.43
219.545,1273.16
220.997,1245.47
222.449,1239.07
223.9,1230.96
225.352,1245.52
226.804,1254.5
228.256,1234.29
229.707,1227.13
231.159,1241.04
232.611,1252.42
234.063,1256.32
235.515,1280.12
236.966,1238.34
238.418,1241.91
239.87,1258.43
241.322,1249.25
242.774,1225.61
244.225,1216.8
245.677,1224.3
247.129,1223.52
248.581,1218.77
250.033,1183.89
251.484,1210.8
252.936,1201.02
254.388,1184.75
255.84,1182.02
257.291,1220.68
258.743,1217.42
260.195,1179.31
261.647,1186.12
263.099,1188.63
264.55,1141.18
266.002,1130.55
267.454,1152.52
268.906,1161.31
270.358,1152.2
271.809,1154.99
273.261,1160.38
274.713,1136.27
276.165,1143.94
277.616,1136.46
279.068,1098.88
280.52,1092.54
281.972,1122.6
283.424,1106.57
284.875,1092.82
286.327,1085.89
287.779,1098.71
289.231,1101.83
290.683,1082.32
292.134,1060.56
293.586,1049.86
295.038,1070.42
296.49,1052.79
297.941,1029.14
299.393,1051.07
300.845,1049.75
302.297,995.33
303.749,996.765
305.2,998.363
306.652,1002.21
308.104,998.629
309.556,990.277
311.008,981.22
312.459,986.11
313.911,967.527
315.363,976.778
316.815,999.158
318.267,945.694
319.718,936.942
321.17,942.061
322.622,943.201
324.074,949.126
325.525,942.735
326.977,945.304
328.429,934.994
329.881,946.26
331.333,953.493
332.784,931.667
334.236,940.563
335.688,910.379
337.14,923.519
338.592,919.628
340.043,888.935
341.495,902.211
342.947,949.457
344.399,917.381
345.85,898.248
347.302,913.657
348.754,933.643
350.206,929.135
351.658,927.155
353.109,909.423
354.561,898.835
356.013,900.078
357.465,878.305
358.917,891.896
360.368,907.107
361.82,902.429
363.272,885.025
364.724,875.808
366.176,883.323
367.627,893.823
369.079,890.713
370.531,888.332
371.983,910.815
373.434,888.785
374.886,888.491
376.338,880.232
377.79,875.557
379.242,885.08
380.693,895.103
382.145,870.19
383.597,853.662
385.049,840.939
386.501,848.01
387.952,862.029
389.404,868.963
390.856,866.165
392.308,866.258
393.759,871.013
395.211,871.041
396.663,876.06
398.115,853.483
399.567,872.157
401.018,879.822
402.47,869.583
403.922,862.18
405.374,886.2
406.826,864.454
408.277,878.461
409.729,883.237
411.181,861.955
412.633,872.776
414.085,875.406
415.536,855.032
416.988,842.335
418.44,851.55
419.892,875.594
421.343,874.503
422.795,871.034
424.247,855.987
425.699,839.745
427.151,837.434
428.602,873.487
430.054,873.789
431.506,873.995
432.958,858.391
434.41,852.065
435.861,877.221
437.313,849.619
438.765,864.594
440.217,869.125
441.668,855.471
443.12,844.702
444.572,875.981
446.024,869.444
447.476,860.258
448.927,856.509
450.379,848.018
451.831,845.359
453.283,821.634
454.735,828.927
456.186,830.457
457.638,837.613
459.09,848.352
460.542,839.624
461.993,780.756
463.445,824.407
464.897,836.988
466.349,836.364
467.801,837.152
469.252,820.283
470.704,849.428
472.156,843.1
473.608,843.145
475.06,842.781
476.511,837.833
477.963,830.314
479.415,834.285
480.867,849.023
482.319,832.778
483.77,817.41
485.222,834.526
486.674,859.486
488.126,826.561
489.577,833.867
491.029,849.206
492.481,847.079
493.933,826.296
495.385,811.452
496.836,834.76
498.288,837.311
499.74,834.202
501.192,833.103
502.644,811.246
504.095,814.417
505.547,812.561
506.999,821.156
508.451,830.282
509.902,834.119
511.354,823.858
512.806,806.648
514.258,811.086
515.71,839.181
517.161,852.435
518.613,833.129
520.065,795.45
521.517,802.233
522.969,807.736
524.42,808.631
525.872,806.401
527.324,808.693
528.776,823.583
530.228,824.349
531.679,839.573
533.131,838.305
534.583,823.373
536.035,823.442
537.486,798.476
538.938,770.775
540.39,793.704
541.842,811.539
543.294,809.653
544.745,815.738
546.197,821.587
547.649,818.715
549.101,813.201
550.553,813.695
552.004,814.438
553.456,822.372
554.908,819.318
556.36,819.49
557.811,818.628
559.263,833.381
560.715,825.754
562.167,801.583
563.619,821.096
565.07,813.735
566.522,809.728
567.974,795.237
569.426,790.997
570.878,818.133
572.329,785.849
573.781,825.001
575.233,834.913
576.685,824.362
578.137,812.836
579.588,812.684
581.04,804.017
582.492,799.689
583.944,813.371
585.395,815.646
586.847,804.083
588.299,794.99
589.751,802.348
591.203,832.752
592.654,806.896
594.106,790.26
595.558,805.166
597.01,800.12
598.462,801.42
599.913,799.095
601.365,823.936
602.817,828.005
604.269,816.816
605.72,827.725
607.172,825.807
608.624,791.669
610.076,807.305
611.528,811.859
612.979,808.909
614.431,807.179
615.883,819.503
617.335,818.478
618.787,827.66
620.238,828.906
621.69,810.948
623.142,806.508
624.594,830.847
626.046,806.344
627.497,807.652
628.949,820.519
630.401,817.558
631.853,797.677
633.304,811.97
634.756,833.239
636.208,813.299
637.66,835.046
639.112,848.799
640.563,836.063
642.015,838.982
643.467,851.69
644.919,829.275
646.371,823.111
647.822,826.791
649.274,837.246
650.726,842.125
652.178,880.93
653.629,855.514
655.081,863.381
656.533,856.383
657.985,845.59
659.437,843.704
660.888,868.378
662.34,851.763
663.792,852.363
665.244,846.665
666.696,841.533
668.147,850.149
669.599,853.835
671.051,846.352
672.503,847.026
673.954,857.022
675.406,857.843
676.858,855.913
678.31,860.373
679.762,854.509
681.213,870.897
682.665,869.243
684.117,868.726
685.569,859.217
687.021,845.302
688.472,863.583
689.924,845.099
691.376,851.82
692.828,838.493
694.28,838.012
695.731,855.673
697.183,846.318
698.635,837.426
700.087,854.468
701.538,866.336
702.99,861.875
704.442,868.433
705.894,878.801
707.346,862.401
708.797,885.71
710.249,864.578
711.701,885.514
713.153,898.43
714.605,892.356
716.056,883.938
717.508,862.716
718.96,875.881
720.412,858.998
721.863,870.247
723.315,886.025
724.767,889.933
726.219,882.14
727.671,864.287
729.122,872.029
730.574,880.05
732.026,871.583
733.478,859.696
734.93,866.253
736.381,870.806
737.833,878.925
739.285,887.918
740.737,882.83
742.189,888.086
743.64,899.583
745.092,888.152
746.544,850.86
747.996,867.302
749.447,901.673
750.899,891.63
752.351,868.632
753.803,861.85
755.255,865.026
756.706,869.663
758.158,855.376
759.61,867.341
761.062,880.984
762.514,878.468
763.965,878.896
765.417,901.261
766.869,886.472
768.321,855.879
769.772,878.896
771.224,877.688
772.676,872.345
774.128,912.196
775.58,873.613
777.031,888.077
778.483,871.174
779.935,893.744
781.387,906.871
782.839,898.548
784.29,918.626
785.742,920.219
787.194,883.685
788.646,891.786
790.098,903.295
791.549,889.345
793.001,895.958
794.453,894.692
795.905,906.142
797.356,896.209
798.808,894.411
800.26,892.957
801.712,898.464
803.164,915.547
804.615,934.442
806.067,893.626
807.519,907.68
808.971,915.024
810.423,912.402
811.874,912.254
813.326,923.325
814.778,889.241
816.23,920.267
817.681,909.453
819.133,930.764
820.585,956.098
822.037,943.241
823.489,925.615
824.94,923.2
826.392,924.55
827.844,939.547
829.296,948.685
830.748,925.707
832.199,907.932
833.651,909.393
835.103,962.635
836.555,946.662
838.007,953.91
839.458,974.948
840.91,972.591
842.362,947.514
843.814,940.125
845.265,934.218
846.717,939.031
848.169,953.796
849.621,999.331
851.073,983.116
852.524,968.239
853.976,989.966
855.428,984.94
856.88,995.593
858.332,996.25
859.783,994.46
861.235,977.478
862.687,997.251
864.139,1005.43
865.59,1002.12
867.042,1009.24
868.494,963.682
869.946,955.739
871.398,958.391
872.849,980.936
874.301,983.761
875.753,977.699
877.205,976.675
878.657,983.754
880.108,963.297
881.56,968.246
883.012,967.093
884.464,970.026
885.915,964.339
887.367,956.535
888.819,969.711
890.271,962
891.723,970.53
893.174,995.885
894.626,1007.96
896.078,1016.72
897.53,1009.99
898.982,993.883
900.433,985.246
901.885,973.733
903.337,998.744
904.789,1013.37
906.241,1015.95
907.692,1020.08
909.144,1009.98
910.596,1017.05
912.048,1005.83
913.499,1028.7
914.951,1020.79
916.403,1011.7
917.855,993.62
919.307,972.077
920.758,998.753
922.21,1036.01
923.662,1024
925.114,1029.37
926.566,1025.86
928.017,1026.11
929.469,1051.04
930.921,1039.45
932.373,1030.92
933.824,983.658
935.276,1030.5
936.728,1052.38
938.18,1040.08
939.632,1048.09
941.083,1047.57
942.535,1027.33
943.987,1035.27
945.439,1059.91
946.891,1041.31
948.342,1028.27
949.794,1032.99
951.246,1035.44
952.698,1045.35
954.15,1070.08
955.601,1036.01
957.053,1021.27
958.505,1033.43
959.957,1039.56
961.408,1027.91
962.86,1022.88
964.312,1067.69
965.764,1070.14
967.216,1055.95
968.667,1034.64
970.119,1057.34
971.571,1049.04
973.023,1050.25
974.475,1062.22
975.926,1042.26
977.378,1053.29
978.83,1050.89
980.282,1059.73
981.733,1058.99
983.185,1072.43
984.637,1069.42
986.089,1059.67
987.541,1057.47
988.992,1083.87
990.444,1071.45
991.896,1097.86
993.348,1070.27
994.8,1081.55
996.251,1096.89
997.703,1075.75
999.155,1110.82
1000.61,1082.8
1002.06,1092.93
1003.51,1101.7
1004.96,1096.54
1006.41,1085.38
1007.87,1097.08
1009.32,1115.22
1010.77,1119.7
1012.22,1131.24
1013.67,1129.25
1015.12,1115.93
1016.58,1127.36
1018.03,1114.84
1019.48,1117.49
1020.93,1147.95
1022.38,1165.89
1023.84,1179.73
1025.29,1189.49
1026.74,1175.61
1028.19,1180.17
1029.64,1199.54
1031.09,1203.91
1032.55,1184.2
1034,1201.32
1035.45,1217.8
1036.9,1227.38
1038.35,1250.07
1039.8,1250.45
1041.26,1256.5
1042.71,1286.58
1044.16,1297.6
1045.61,1252.28
1047.06,1259.06
1048.52,1282.44
1049.97,1299.93
1051.42,1310.46
1052.87,1328.9
1054.32,1320.18
1055.77,1326.3
1057.23,1358.03
1058.68,1374.31
1060.13,1396.73
1061.58,1380.09
1063.03,1392.59
1064.49,1420.45
1065.94,1433.08
1067.39,1404.25
1068.84,1397.62
1070.29,1456.39
1071.74,1466.85
1073.2,1470.96
1074.65,1489.8
1076.1,1507
1077.55,1520.07
1079,1504.02
1080.46,1495.41
1081.91,1508.8
1083.36,1498.23
1084.81,1564.61
1086.26,1571.6
1087.71,1585.48
1089.17,1564.94
1090.62,1505.98
1092.07,1537.9
1093.52,1574.42
1094.97,1540.26
1096.42,1524.87
1097.88,1551.15
1099.33,1511.56
1100.78,1507.25
1102.23,1516.53
1103.68,1516.29
1105.14,1491.97
1106.59,1488.48
1108.04,1496.73
1109.49,1482.8
1110.94,1488.06
1112.39,1449.71
1113.85,1463
1115.3,1457.14
1116.75,1454.44
1118.2,1453.32
1119.65,1435.45
1121.11,1430
1122.56,1415.97
1124.01,1430.08
1125.46,1430.73
1126.91,1407.9
1128.36,1412.28
1129.82,1408.55
1131.27,1388.67
1132.72,1392.58
1134.17,1365.2
1135.62,1386.84
1137.07,1363.61
1138.53,1355.52
1139.98,1383.96
1141.43,1385.09
1142.88,1350.18
1144.33,1357.68
1145.79,1379.65
1147.24,1401.5
1148.69,1367.93
1150.14,1351.93
1151.59,1373.46
1153.04,1337.06
1154.5,1339.6
1155.95,1354.86
1157.4,1368.89
1158.85,1367.98
1160.3,1362.98
1161.76,1361.98
1163.21,1352.35
1164.66,1349.75
1166.11,1334.16
1167.56,1357.82
1169.01,1364.43
1170.47,1377.03
1171.92,1384.91
1173.37,1370.97
1174.82,1404.62
1176.27,1379.55
1177.72,1379.4
1179.18,1428.27
1180.63,1386.53
1182.08,1383.68
1183.53,1406.14
1184.98,1400.72
1186.44,1396.4
1187.89,1388.26
1189.34,1392.28
1190.79,1397.04
1192.24,1374.68
1193.69,1413.71
1195.15,1431.61
1196.6,1420.16
1198.05,1400.47
1199.5,1409.99
1200.95,1439.2
1202.41,1441.11
1203.86,1431.65
1205.31,1427.04
1206.76,1473.15
1208.21,1463.47
1209.66,1442.77
1211.12,1423.43
1212.57,1443.77
1214.02,1442.12
1215.47,1414.59
1216.92,1440.92
1218.37,1455.88
1219.83,1458.18
1221.28,1465.27
1222.73,1465.08
1224.18,1459.06
1225.63,1478.72
1227.09,1485.61
1228.54,1463.3
1229.99,1444.26
1231.44,1469.06
1232.89,1444.68
1234.34,1491.16
1235.8,1486.6
1237.25,1475.98
1238.7,1451.16
1240.15,1484.28
1241.6,1526.48
1243.06,1512.82
1244.51,1510.09
1245.96,1522.26
1247.41,1578.79
1248.86,1552.04
1250.31,1523.14
1251.77,1561.55
1253.22,1582.28
1254.67,1583.45
1256.12,1574.18
1257.57,1580.14
1259.02,1608.73
1260.48,1625.7
1261.93,1676.08
1263.38,1648.82
1264.83,1677.84
1266.28,1682.38
1267.74,1717.09
1269.19,1731.78
1270.64,1740.19
1272.09,1784.67
1273.54,1839.12
1274.99,1844.23
1276.45,1838.04
1277.9,1818.96
1279.35,1871.36
1280.8,1934.72
1282.25,1944.83
1283.71,1964.16
1285.16,1968.55
1286.61,1984.75
1288.06,2044.89
1289.51,2087.79
1290.96,2091.71
1292.42,2155.61
1293.87,2242.59
1295.32,2263.11
1296.77,2348.2
1298.22,2422.18
1299.67,2471.8
1301.13,2508.96
1302.58,2588.01
1304.03,2688.48
1305.48,2743.85
1306.93,2825.85
1308.39,2945.21
1309.84,3055.17
1311.29,3165.28
1312.74,3305.41
1314.19,3489.98
1315.64,3645.39
1317.1,3784.12
1318.55,3924.5
1320,4061.22
1321.45,4233.69
1322.9,4461.92
1324.36,4572.49
1325.81,4751.64
1327.26,4903.02
1328.71,5059.7
1330.16,5181.56
1331.61,5273.64
1333.07,5350.52
1334.52,5457.17
1335.97,5516.02
1337.42,5428.83
1338.87,5433.75
1340.33,5341.14
1341.78,5243.61
1343.23,5158.36
1344.68,5009.1
1346.13,4900.83
1347.58,4754.63
1349.04,4538.32
1350.49,4337.1
1351.94,4155.67
1353.39,3936.36
1354.84,3766.48
1356.29,3680.53
1357.75,3513.77
1359.2,3366.85
1360.65,3268
1362.1,3096.17
1363.55,2953.04
1365.01,2857.35
1366.46,2768.12
1367.91,2684.26
1369.36,2624.86
1370.81,2564.68
1372.26,2505.79
1373.72,2453.94
1375.17,2409.18
1376.62,2304.68
1378.07,2282.02
1379.52,2234.41
1380.98,2211.31
1382.43,2200.71
1383.88,2158.63
1385.33,2102.2
1386.78,2102.58
1388.23,2108.31
1389.69,2054.57
1391.14,2040.43
1392.59,2098.48
1394.04,2106.96
1395.49,2028.98
1396.94,2025.27
1398.4,1992.15
1399.85,1995.76
1401.3,2006.57
1402.75,1983.35
1404.2,1974.3
1405.66,1969.87
1407.11,1998.85
1408.56,2025.06
1410.01,2003.58
1411.46,2013.11
1412.91,1963.08
1414.37,1996.43
1415.82,2001.51
1417.27,1985.58
1418.72,1972.45
1420.17,1975.66
1421.63,1997.79
1423.08,1984.95
1424.53,2011.64
1425.98,1977.51
1427.43,1992.76
1428.88,1988.48
1430.34,2045.37
1431.79,2057.39
1433.24,2050.3
1434.69,2064.92
1436.14,2083.16
1437.59,2113.77
1439.05,2102.72
1440.5,2104.09
1441.95,2144.43
1443.4,2168.22
1444.85,2166.82
1446.31,2118.21
1447.76,2157.18
1449.21,2182.22
1450.66,2210.58
1452.11,2202.52
1453.56,2199.21
1455.02,2221.57
1456.47,2260.49
1457.92,2288.28
1459.37,2320.65
1460.82,2309.86
1462.28,2321.58
1463.73,2425.31
1465.18,2449
1466.63,2462.05
1468.08,2452.62
1469.53,2467.56
1470.99,2484.87
1472.44,2506.88
1473.89,2571.38
1475.34,2626.91
1476.79,2639
1478.24,2683.32
1479.7,2684
1481.15,2788.62
1482.6,2783.66
1484.05,2845.25
1485.5,2883.63
1486.96,2895.35
1488.41,2947.42
1489.86,3016.81
1491.31,3047.54
1492.76,3114.61
1494.21,3181.56
1495.67,3251.69
1497.12,3294.07
1498.57,3377.79
1500.02,3428.27
1501.47,3548.3
1502.93,3573.22
1504.38,3687.01
1505.83,3804.06
1507.28,3953.97
1508.73,4068.28
1510.18,4197.23
1511.64,4326.78
1513.09,4478.64
1514.54,4671.89
1515.99,4849.1
1517.44,5028.78
1518.89,5163.34
1520.35,5383.16
1521.8,5599.88
1523.25,5927.62
1524.7,6217.74
1526.15,6661.97
1527.61,6977.89
1529.06,7474.41
1530.51,7994.05
1531.96,8582.55
1533.41,9261.23
1534.86,9910.5
1536.32,10696.2
1537.77,11679.8
1539.22,12759.3
1540.67,13986.3
1542.12,15250.9
1543.58,16662.5
1545.03,18177.2
1546.48,19833.2
1547.93,21652.5
1549.38,23568.3
1550.83,25590.8
1552.29,27769.9
1553.74,29946.2
1555.19,32017.4
1556.64,34130.2
1558.09,36335
1559.54,38275.8
1561,40263
1562.45,41885
1563.9,43070.3
1565.35,43759.9
1566.8,45587
1568.26,43786.6
1569.71,43054.6
1571.16,42082.6
1572.61,40561.1
1574.06,38590.6
1575.51,36237
1576.97,33858.7
1578.42,31442.5
1579.87,29067.3
1581.32,26714.3
1582.77,24425.9
1584.23,22352.6
1585.68,20201.5
1587.13,18361.7
1588.58,16854
1590.03,15366.1
1591.48,14033
1592.94,13012.8
1594.39,12149.5
1595.84,11254.7
1597.29,10547.7
1598.74,9859.34
1600.2,9259
1601.65,8835.71
1603.1,8409.27
1604.55,7954.33
1606,7608.92
1607.45,7245.99
1608.91,6877.15
1610.36,6531.97
1611.81,6155.29
1613.26,5994.3
1614.71,5688.91
1616.16,5445.74
1617.62,5151.71
1619.07,4920.09
1620.52,4744.5
1621.97,4522.1
1623.42,4309.03
1624.88,4186.16
1626.33,4046.42
1627.78,3883.72
1629.23,3691.65
1630.68,3571.98
1632.13,3506.92
1633.59,3430.65
1635.04,3313.58
1636.49,3228.74
1637.94,3155.28
1639.39,3088.09
1640.85,3030.6
1642.3,3019.7
1643.75,2934.79
1645.2,2844.89
1646.65,2809.13
1648.1,2757.87
1649.56,2670.26
1651.01,2628.45
1652.46,2601.31
1653.91,2541.36
1655.36,2496.79
1656.81,2477.95
1658.27,2460.2
1659.72,2445.91
1661.17,2403.84
1662.62,2332.27
1664.07,2317.13
1665.53,2272.5
1666.98,2274.56
1668.43,2272.35
1669.88,2202.43
1671.33,2171.57
1672.78,2150.55
1674.24,2122.56
1675.69,2110.16
1677.14,2070.68
1678.59,2066.4
1680.04,2060.74
1681.5,2050.25
1682.95,2012.96
1684.4,1995.61
1685.85,1961.82
1687.3,1976.99
1688.75,1933.23
1690.21,1931.53
1691.66,1899.64
1693.11,1899.02
1694.56,1874.53
1696.01,1858.34
1697.46,1864.33
1698.92,1855.79
1700.37,1859.55
1701.82,1859.67
1703.27,1839.19
1704.72,1827.04
1706.18,1827.26
1707.63,1832.84
1709.08,1816.8
1710.53,1792.73
1711.98,1803.56
1713.43,1813.03
1714.89,1800.11
1716.34,1765.35
1717.79,1743.92
1719.24,1727.34
1720.69,1753.66
1722.15,1750.76
1723.6,1773.77
1725.05,1742.46
1726.5,1732.71
1727.95,1731.64
1729.4,1729.72
1730.86,1763.97
1732.31,1754.55
1733.76,1737.58
1735.21,1729.21
1736.66,1728.21
1738.11,1716.22
1739.57,1724.24
1741.02,1696.82
1742.47,1702.16
1743.92,1710.68
1745.37,1695.23
1746.83,1699.58
1748.28,1686.9
1749.73,1667.86
1751.18,1706.12
1752.63,1658.77
1754.08,1609.86
1755.54,1642.93
1756.99,1672.06
1758.44,1650.99
1759.89,1600.5
1761.34,1621.47
1762.8,1642.53
1764.25,1628.38
1765.7,1614.76
1767.15,1620.54
1768.6,1594.98
1770.05,1562.94
1771.51,1575.86
1772.96,1583.53
1774.41,1565.84
1775.86,1582.27
1777.31,1566.85
1778.76,1542.39
1780.22,1559.81
1781.67,1538.67
1783.12,1523.53
1784.57,1511.27
1786.02,1481.75
1787.48,1545.81
1788.93,1471.36
1790.38,1514.01
1791.83,1500.23
1793.28,1518.85
1794.73,1488.6
1796.19,1484.95
1797.64,1496
1799.09,1481.82
1800.54,1470.43
1801.99,1495.56
1803.45,1492.26
1804.9,1448.89
1806.35,1446.12
1807.8,1456.24
1809.25,1447.46
1810.7,1476.88
1812.16,1471.97
1813.61,1441.67
1815.06,1440.32
1816.51,1436.03
1817.96,1422.4
1819.41,1439.42
1820.87,1465.98
1822.32,1469.37
1823.77,1476.02
1825.22,1495.41
1826.67,1490.77
1828.13,1485.56
1829.58,1529.69
1831.03,1454.77
1832.48,1445.76
1833.93,1447.66
1835.38,1462.4
1836.84,1451.05
1838.29,1491.83
1839.74,1498.97
1841.19,1505.72
1842.64,1517.1
1844.1,1496
1845.55,1502.35
1847,1520.51
1848.45,1542.57
1849.9,1583.42
1851.35,1590.67
1852.81,1568.95
1854.26,1551.77
1855.71,1556.98
1857.16,1564.46
1858.61,1560.66
1860.07,1556.75
1861.52,1576.78
1862.97,1581.42
1864.42,1571.73
1865.87,1574.8
1867.32,1579.11
1868.78,1582.2
1870.23,1572.52
1871.68,1597.74
1873.13,1556.06
1874.58,1566.54
1876.03,1548.95
1877.49,1526.96
1878.94,1520.05
1880.39,1496.92
1881.84,1499.13
1883.29,1521.69
1884.75,1547.66
1886.2,1471.21
1887.65,1499.42
1889.1,1518.39
1890.55,1489.04
1892,1477.94
1893.46,1478.13
1894.91,1464.21
1896.36,1443.36
1897.81,1415.24
1899.26,1390.37
1900.72,1424.15
1902.17,1437.07
1903.62,1419.07
1905.07,1417.8
1906.52,1402.57
1907.97,1406.38
1909.43,1390.01
1910.88,1401.82
1912.33,1386.38
1913.78,1381.94
1915.23,1379.64
1916.68,1363.4
1918.14,1336.33
1919.59,1350.02
1921.04,1367.88
1922.49,1370.81
1923.94,1397.8
1925.4,1380.86
1926.85,1351.91
1928.3,1308.82
1929.75,1365.99
1931.2,1362.15
1932.65,1345.44
1934.11,1373.02
1935.56,1377.49
1937.01,1359.44
1938.46,1335.6
1939.91,1313.66
1941.37,1330.56
1942.82,1363.49
1944.27,1383.19
1945.72,1386.31
1947.17,1371.56
1948.62,1378.83
1950.08,1378.33
1951.53,1352.06
1952.98,1391.44
1954.43,1383.64
1955.88,1374.06
1957.33,1377.75
1958.79,1373.94
1960.24,1373.42
1961.69,1374.6
1963.14,1390.05
1964.59,1389.79
1966.05,1368.09
1967.5,1375.74
1968.95,1407.61
1970.4,1394.21
1971.85,1374.2
1973.3,1367.77
1974.76,1362.39
1976.21,1366.88
1977.66,1404.3
1979.11,1430.96
1980.56,1424.92
1982.02,1407.8
1983.47,1408.02
1984.92,1418.77
1986.37,1408.93
1987.82,1442.71
1989.27,1433.89
1990.73,1425.27
1992.18,1439.32
1993.63,1436.33
1995.08,1418.44
1996.53,1458.16
1997.98,1442.56
1999.44,1450.69
2000.89,1445.32
2002.34,1410.18
2003.79,1470.44
2005.24,1452.98
2006.7,1421.96
2008.15,1416.3
2009.6,1406.43
2011.05,1384.48
2012.5,1406.99
2013.95,1405.31
2015.41,1339.09
2016.86,1473.13
2018.31,1388.92
2019.76,1361.13
2021.21,1406.5
2022.67,1390.69
2024.12,1377.34
2025.57,1375.59
2027.02,1401.02
2028.47,1387.3
2029.92,1471.46
2031.38,1391.96
2032.83,1368.36
2034.28,1336.2
2035.73,1339.36
2037.18,1362.65
2038.63,1314.39
2040.09,1330.64
2041.54,1341.89
2042.99,1322.18
2044.44,1314.18
2045.89,1324.52
2047.35,1306.37
2048.8,1322.43
2050.25,1293.15
2051.7,1282.71
2053.15,1281.96
2054.6,1277.51
2056.06,1279.45
2057.51,1290.33
2058.96,1287.27
2060.41,1249.64
2061.86,1253.68
2063.32,1257.09
2064.77,1297.47
2066.22,1274.66
2067.67,1262.28
2069.12,1272.31
2070.57,1265.82
2072.03,1252.33
2073.48,1244.29
2074.93,1226.18
2076.38,1227.38
2077.83,1229.11
2079.28,1235.05
2080.74,1226.91
2082.19,1236.71
2083.64,1230.37
2085.09,1221.2
2086.54,1232.76
2088,1242.82
2089.45,1234.77
2090.9,1230.67
2092.35,1229.22
2093.8,1222.01
2095.25,1209.68
2096.71,1216.18
2098.16,1216.03
2099.61,1217.4
2101.06,1202.32
2102.51,1206.39
2103.97,1240.97
2105.42,1261.84
2106.87,1237.94
2108.32,1232.41
2109.77,1222.62
2111.22,1210.96
2112.68,1237.23
2114.13,1262.94
2115.58,1229.83
2117.03,1228.43
2118.48,1273.93
2119.94,1275.31
2121.39,1255.03
2122.84,1241.54
2124.29,1248.45
2125.74,1267.08
2127.19,1271.81
2128.65,1226.11
2130.1,1244.79
2131.55,1284.77
2133,1258.67
2134.45,1245.35
2135.9,1266.7
2137.36,1247.14
2138.81,1236.06
2140.26,1257.95
2141.71,1287.03
2143.16,1257.01
2144.62,1273.09
2146.07,1274.04
2147.52,1267.81
2148.97,1284.74
2150.42,1279.37
2151.87,1293.29
2153.33,1310.65
2154.78,1290.54
2156.23,1284.65
2157.68,1289.28
2159.13,1301.24
2160.58,1304.55
2162.04,1308.09
2163.49,1287.87
2164.94,1280.86
2166.39,1294.67
2167.84,1316.22
2169.3,1305.56
2170.75,1290.18
2172.2,1285.44
2173.65,1322.35
2175.1,1315.35
2176.55,1302.85
2178.01,1322.01
2179.46,1326
2180.91,1302.42
2182.36,1304.27
2183.81,1313
2185.27,1310.4
2186.72,1360.51
2188.17,1372.62
2189.62,1370.57
2191.07,1358.35
2192.52,1319.45
2193.98,1341.73
2195.43,1306.69
2196.88,1324.27
2198.33,1374.17
2199.78,1365.63
2201.24,1405.07
2202.69,1357.65
2204.14,1350.8
2205.59,1360.17
2207.04,1379.75
2208.49,1333.04
2209.95,1345.29
2211.4,1375.83
2212.85,1333.39
2214.3,1358.26
2215.75,1299.9
2217.2,1332.72
2218.66,1356.31
2220.11,1339.32
2221.56,1369.17
2223.01,1371.5
2224.46,1360.93
2225.92,1318.39
2227.37,1318.39
2228.82,1325.19
2230.27,1375.97
2231.72,1380.77
2233.17,1351.24
2234.63,1389.16
2236.08,1377.86
2237.53,1348.07
2238.98,1377.12
2240.43,1382.59
2241.89,1398.7
2243.34,1390.89
2244.79,1389.94
2246.24,1412.18
2247.69,1417.34
2249.14,1406.46
2250.6,1400.34
2252.05,1392.53
2253.5,1402.42
2254.95,1396.9
2256.4,1382.9
2257.85,1419.53
2259.31,1444.13
2260.76,1411.11
2262.21,1417.11
2263.66,1411.54
2265.11,1417.58
2266.57,1438.81
2268.02,1431.29
2269.47,1422.33
2270.92,1418.35
2272.37,1405.06
2273.82,1449.41
2275.28,1430.41
2276.73,1419.21
2278.18,1425.51
2279.63,1427.39
2281.08,1450.29
2282.54,1466.2
2283.99,1453.39
2285.44,1500.29
2286.89,1488.37
2288.34,1483.51
2289.79,1494.38
2291.25,1502.57
2292.7,1488.63
2294.15,1472.41
2295.6,1496.73
2297.05,1484.03
2298.5,1507.66
2299.96,1525.01
2301.41,1544.53
2302.86,1505.64
2304.31,1477.99
2305.76,1568.09
2307.22,1575.79
2308.67,1536.27
2310.12,1525.49
2311.57,1520.88
2313.02,1577.08
2314.47,1605.93
2315.93,1558.34
2317.38,1560.54
2318.83,1583.48
2320.28,1530.42
2321.73,1543.05
2323.19,1578.27
2324.64,1606.17
2326.09,1613.03
2327.54,1618.84
2328.99,1602.57
2330.44,1609.67
2331.9,1621.93
2333.35,1620.84
2334.8,1639.75
2336.25,1645.72
2337.7,1650.7
2339.16,1645.63
2340.61,1645.91
2342.06,1678.48
2343.51,1692.24
2344.96,1689.38
2346.41,1711.35
2347.87,1684.46
2349.32,1697.07
2350.77,1750.43
2352.22,1759.02
2353.67,1765.3
2355.12,1769.02
2356.58,1773.03
2358.03,1758.54
2359.48,1797.3
2360.93,1755.5
2362.38,1785.67
2363.84,1810.78
2365.29,1815.87
2366.74,1812.25
2368.19,1841.82
2369.64,1884.12
2371.09,1918.43
2372.55,1954.94
2374,1957.31
2375.45,2001.51
2376.9,2000.96
2378.35,2018.24
2379.8,2072.88
2381.26,2068
2382.71,2085.53
2384.16,2089.54
2385.61,2123.82
2387.06,2156.08
2388.52,2146.06
2389.97,2230.26
2391.42,2270.97
2392.87,2315.07
2394.32,2350.26
2395.77,2424.3
2397.23,2389.9
2398.68,2407.2
2400.13,2488.69
2401.58,2551.33
2403.03,2611.86
2404.49,2623.93
2405.94,2671.48
2407.39,2742.69
2408.84,2773.73
2410.29,2814.99
2411.74,2846.29
2413.2,2885.32
2414.65,2910.71
2416.1,3005.74
2417.55,3065.51
2419,3062.61
2420.46,3067.56
2421.91,3082.45
2423.36,3038.64
2424.81,3068.22
2426.26,3162.04
2427.71,3146.28
2429.17,3155.26
2430.62,3231.16
2432.07,3189.84
2433.52,3197.78
2434.97,3108.94
2436.42,3137.03
2437.88,3174.93
2439.33,3137.23
2440.78,3126.44
2442.23,3085.88
2443.68,3052.81
2445.14,3081.98
2446.59,3038.54
2448.04,3055.44
2449.49,3052.81
2450.94,3016.83
2452.39,2964.51
2453.85,2955.7
2455.3,2929.08
2456.75,2914.31
2458.2,2891.33
2459.65,2876.81
2461.1,2854.07
2462.56,2823.23
2464.01,2840.52
2465.46,2811.09
2466.91,2749.3
2468.36,2772.98
2469.82,2714.07
2471.27,2800.47
2472.72,2786.33
2474.17,2729.17
2475.62,2703.21
2477.07,2673.71
2478.53,2662.85
2479.98,2637.37
2481.43,2649.2
2482.88,2706.1
2484.33,2708.99
2485.79,2712.84
2487.24,2658.83
2488.69,2657.91
2490.14,2650.29
2491.59,2685.29
2493.04,2678.99
2494.5,2676.45
2495.95,2648.38
2497.4,2686.94
2498.85,2658.08
2500.3,2706.28
2501.76,2727.04
2503.21,2714.64
2504.66,2757.4
2506.11,2728.89
2507.56,2704.5
2509.01,2686.68
2510.47,2784.9
2511.92,2758.68
2513.37,2759.71
2514.82,2817.89
2516.27,2831.37
2517.72,2852.99
2519.18,2842.89
2520.63,2816.13
2522.08,2856.63
2523.53,2896.24
2524.98,2919.83
2526.44,2885.3
2527.89,2925.29
2529.34,2977.17
2530.79,3029.94
2532.24,3048.54
2533.69,3057.41
2535.15,3102.24
2536.6,3089.01
2538.05,3221.14
2539.5,3184.69
2540.95,3219.1
2542.41,3258.45
2543.86,3307.47
2545.31,3347.3
2546.76,3382.6
2548.21,3359.41
2549.66,3424.59
2551.12,3484.59
2552.57,3590.12
2554.02,3649.59
2555.47,3656.86
2556.92,3692.91
2558.37,3744.72
2559.83,3823.69
2561.28,3863.08
2562.73,3904.81
2564.18,4053.96
2565.63,4147.87
2567.09,4177.85
2568.54,4244.84
2569.99,4318.98
2571.44,4415.5
2572.89,4473.32
2574.34,4572.3
2575.8,4590.09
2577.25,4823.6
2578.7,4977.81
2580.15,5056.42
2581.6,5143.64
2583.06,5246.34
2584.51,5363.38
2585.96,5534.12
2587.41,5744.02
2588.86,5884.29
2590.31,6018.42
2591.77,6146.44
2593.22,6384.61
2594.67,6555.96
2596.12,6759.16
2597.57,7028.44
2599.02,7239.02
2600.48,7457.78
2601.93,7704.78
2603.38,7953.36
2604.83,8298.31
2606.28,8564.55
2607.74,8936.68
2609.19,9182.13
2610.64,9560.02
2612.09,9833.52
2613.54,10267.5
2614.99,10696.4
2616.45,11131.3
2617.9,11598.1
2619.35,12073
2620.8,12520.3
2622.25,13058.2
2623.71,13580.3
2625.16,14185.8
2626.61,14730
2628.06,15269
2629.51,16023.2
2630.96,16565.8
2632.42,17326.3
2633.87,17929
2635.32,18600.9
2636.77,19252.4
2638.22,19991.5
2639.68,20617.4
2641.13,21137.4
2642.58,21750.7
2644.03,22442.5
2645.48,23019
2646.93,23710.4
2648.39,24048.4
2649.84,24693.4
2651.29,25137.9
2652.74,25480.6
2654.19,25784.4
2655.64,26241.4
2657.1,26391.4
2658.55,26570.7
2660,26738.6
2661.45,26690.8
2662.9,26509.2
2664.36,26364.1
2665.81,26209.4
2667.26,25854.4
2668.71,25674.8
2670.16,25399.2
2671.61,25033.6
2673.07,24429.2
2674.52,23901.6
2675.97,23131.7
2677.42,22622.2
2678.87,21975.7
2680.32,21417.4
2681.78,20682.7
2683.23,19947.3
2684.68,19236
2686.13,18581.7
2687.58,17826.5
2689.04,17265.3
2690.49,16522.9
2691.94,15899.3
2693.39,15213
2694.84,14547
2696.29,13940.2
2697.75,13325.1
2699.2,12840.9
2700.65,12278.3
2702.1,11692.6
2703.55,11185.5
2705.01,10661.6
2706.46,10298.5
2707.91,9815.74
2709.36,9432.73
2710.81,9008.56
2712.26,8581.75
2713.72,8310.94
2715.17,8011.28
2716.62,7677.23
2718.07,7318.25
2719.52,7093.99
2720.98,6858.86
2722.43,6560.04
2723.88,6345.49
2725.33,6154.22
2726.78,5911.3
2728.23,5688.31
2729.69,5597.68
2731.14,5368.86
2732.59,5191.34
2734.04,5074.67
2735.49,4928.6
2736.94,4765.78
2738.4,4642.71
2739.85,4514.64
2741.3,4344.6
2742.75,4293.75
2744.2,4261.29
2745.66,4058.64
2747.11,3965.25
2748.56,3892.32
2750.01,3839.08
2751.46,3776.74
2752.91,3724.72
2754.37,3612.07
2755.82,3551.9
2757.27,3475.3
2758.72,3424.84
2760.17,3288.25
2761.63,3284.71
2763.08,3247.78
2764.53,3149.37
2765.98,3157.15
2767.43,3104.55
2768.88,2997.31
2770.34,3003.66
2771.79,2934.7
2773.24,2880.81
2774.69,2840.7
2776.14,2814.11
2777.59,2848.2
2779.05,2748.66
2780.5,2722.51
2781.95,2707.81
2783.4,2721.63
2784.85,2689.56
2786.31,2629.54
2787.76,2585.89
2789.21,2584.11
2790.66,2544.89
2792.11,2512.7
2793.56,2465.54
2795.02,2460.94
2796.47,2451.9
2797.92,2448.35
2799.37,2413.79
2800.82,2414.76
2802.28,2409.11
2803.73,2349.53
2805.18,2333
2806.63,2336.52
2808.08,2303.72
2809.53,2253.88
2810.99,2268.81
2812.44,2263.87
2813.89,2199.73
2815.34,2208.71
2816.79,2177.17
2818.24,2199.09
2819.7,2196.67
2821.15,2177.13
2822.6,2146.59
2824.05,2133.44
2825.5,2126.44
2826.96,2147.87
2828.41,2118.12
2829.86,2138.1
2831.31,2066.96
2832.76,2042.79
2834.21,2068.86
2835.67,2082.58
2837.12,2078.08
2838.57,2075.88
2840.02,2017.68
2841.47,2052.99
2842.93,1978.24
2844.38,2006.64
2845.83,1988.06
2847.28,1965.23
2848.73,1952.89
2850.18,1984.65
2851.64,1976.85
2853.09,1987.51
2854.54,1975.65
2855.99,1957.8
2857.44,1928.42
2858.9,1975.12
2860.35,1946.16
2861.8,1929.71
2863.25,1962.37
2864.7,1932.79
2866.15,1939.9
2867.61,1958.66
2869.06,1975.78
2870.51,1962.67
2871.96,2047.28
2873.41,1984.43
2874.86,1984.38
2876.32,1933.16
2877.77,1956.12
2879.22,1941.24
2880.67,1967.04
2882.12,2000.16
2883.58,1995.1
2885.03,1989.02
2886.48,1975.74
2887.93,1921.04
2889.38,1954.05
2890.83,1936.23
2892.29,2005.32
2893.74,1974.63
2895.19,1944.2
2896.64,1936.8
2898.09,1937.24
2899.54,1944.25
2901,1921.83
2902.45,1923.6
2903.9,2006.12
2905.35,1926.14
2906.8,1964.99
2908.26,1966.94
2909.71,1958.36
2911.16,1926.02
2912.61,1907.78
2914.06,1882.26
2915.51,1899.29
2916.97,1876.31
2918.42,1898.78
2919.87,1884.76
2921.32,1892.02
2922.77,1862.09
2924.23,1846.87
2925.68,1824.11
2927.13,1826.29
2928.58,1862.65
2930.03,1815.18
2931.48,1813.47
2932.94,1759.53
2934.39,1783.34
2935.84,1768.18
2937.29,1754.92
2938.74,1722.89
2940.2,1732.87
2941.65,1693.85
2943.1,1644.36
2944.55,1653.53
2946,1661.81
2947.45,1606.11
2948.91,1581.79
2950.36,1599.37
2951.81,1616.53
2953.26,1557.45
2954.71,1570.83
2956.16,1591.66
2957.62,1558.03
2959.07,1528.24
2960.52,1540.4
2961.97,1506.07
2963.42,1502.72
2964.88,1452.05
2966.33,1456.77
2967.78,1489.85
2969.23,1466.19
2970.68,1448.09
2972.13,1456.22
2973.59,1420.05
2975.04,1411.44
2976.49,1428.82
2977.94,1418.46
2979.39,1405.28
2980.84,1397.56
2982.3,1401.63
2983.75,1373.76
2985.2,1366.48
2986.65,1339.88
2988.1,1371.84
2989.56,1373.05
2991.01,1367.93
2992.46,1377.99
2993.91,1358.7
2995.36,1342.55
2996.81,1322.16
2998.27,1330.46
2999.72,1336.6
3001.17,1306.37
3002.62,1301.84
3004.07,1291.32
3005.53,1335.46
3006.98,1322.15
3008.43,1303.08
3009.88,1305.62
3011.33,1299.08
3012.78,1304.23
3014.24,1303.96
3015.69,1255.27
3017.14,1287
3018.59,1275.76
3020.04,1263.73
3021.5,1287.21
3022.95,1275.8
3024.4,1272.62
3025.85,1289.87
3027.3,1285.24
3028.75,1258.35
3030.21,1319.25
3031.66,1251.01
3033.11,1278.73
3034.56,1292.65
3036.01,1263.13
3037.46,1265.47
3038.92,1273.17
3040.37,1251.61
3041.82,1270.57
3043.27,1289.82
3044.72,1243.77
3046.18,1259.51
3047.63,1268.4
3049.08,1274.44
3050.53,1278.31
3051.98,1276.57
3053.43,1269.11
3054.89,1268.69
3056.34,1271.98
3057.79,1273.74
3059.24,1298.76
3060.69,1291.8
3062.15,1287.53
3063.6,1284.78
3065.05,1293.67
3066.5,1311.39
3067.95,1297
3069.4,1276.87
3070.86,1292.19
3072.31,1301.06
3073.76,1302.45
3075.21,1343.95
3076.66,1300.28
3078.11,1351.13
3079.57,1347.92
3081.02,1348.94
3082.47,1348.52
3083.92,1368.56
3085.37,1373.53
3086.83,1402.29
3088.28,1380.32
3089.73,1385.02
3091.18,1385.55
3092.63,1421.71
3094.08,1460.12
3095.54,1454.62
3096.99,1463.69
3098.44,1517.76
3099.89,1501.37
3101.34,1501.03
3102.8,1565.38
3104.25,1603.16
3105.7,1623.93
3107.15,1652.8
3108.6,1642.59
3110.05,1653.43
3111.51,1676.82
3112.96,1701.35
3114.41,1780.88
3115.86,1768.41
3117.31,1783.03
3118.76,1756.29
3120.22,1823.65
3121.67,1856.2
3123.12,1854.69
3124.57,1890.89
3126.02,1941.04
3127.48,1930.81
3128.93,2041.88
3130.38,2016.81
3131.83,2001.06
3133.28,2015.54
3134.73,2058.23
3136.19,2037.3
3137.64,2048.37
3139.09,2023.51
3140.54,2091.38
3141.99,2101.95
3143.45,2115.91
3144.9,2092.04
3146.35,2115.41
3147.8,2135.5
3149.25,2173.73
3150.7,2143.88
3152.16,2206.3
3153.61,2188.27
3155.06,2143.51
3156.51,2161.72
3157.96,2173.13
3159.42,2202.26
3160.87,2134.51
3162.32,2187.81
3163.77,2198.51
3165.22,2193.74
3166.67,2227.38
3168.13,2231.91
3169.58,2192.45
3171.03,2171.51
3172.48,2219.86
3173.93,2215.47
3175.38,2259.44
3176.84,2307.25
3178.29,2304.82
3179.74,2353.76
3181.19,2357.59
3182.64,2384.81
3184.1,2452.25
3185.55,2412.77
3187,2461.45
3188.45,2477.58
3189.9,2468.85
3191.35,2534.28
3192.81,2516.42
3194.26,2518.74
3195.71,2559.92
3197.16,2562.39
3198.61,2536.18
3200.06,2613.42
3201.52,2601.54
3202.97,2608.02
3204.42,2550.95
3205.87,2578.04
3207.32,2590.06
3208.78,2544.72
3210.23,2582.51
3211.68,2469.17
3213.13,2398.26
3214.58,2380.72
3216.03,2330.7
3217.49,2315.51
3218.94,2262.09
3220.39,2215.89
3221.84,2159.25
3223.29,2120.9
3224.75,2025.55
3226.2,1981.56
3227.65,1960.68
3229.1,1901.82
3230.55,1841.64
3232,1805.78
3233.46,1747.23
3234.91,1697.03
3236.36,1663.93
3237.81,1668.02
3239.26,1565.2
3240.72,1499.38
3242.17,1485.72
3243.62,1485.23
3245.07,1444.2
3246.52,1399.61
3247.97,1344.76
3249.43,1384.88
3250.88,1301.84
3252.33,1266.38
3253.78,1256.21
3255.23,1238.87
3256.68,1212.51
3258.14,1261.14
3259.59,1215.64
3261.04,1193.29
3262.49,1166.58
3263.94,1165.1
3265.4,1141.11
3266.85,1105.58
3268.3,1147.06
3269.75,1144.04
3271.2,1109.37
3272.65,1119.81
3274.11,1101.09
3275.56,1095.48
3277.01,1088.74
3278.46,1082.06
3279.91,1063.69
3281.37,1065.41
3282.82,1084.45
3284.27,1093.36
3285.72,1030.03
3287.17,1056.28
3288.62,1049.46
3290.08,1040.7
3291.53,1028.71
3292.98,1006.04
3294.43,1046.67
3295.88,1021.48
3297.33,1035.25
3298.79,1033.85
3300.24,1058.06
3301.69,1033.74
3303.14,1034.78
3304.59,1014.87
3306.05,1089.44
3307.5,1034.93
3308.95,1023.78
3310.4,1028.06
3311.85,1012.73
3313.3,1012.01
3314.76,1003.74
3316.21,1024.48
3317.66,1016.82
3319.11,994.699
3320.56,1014.37
3322.02,998.798
3323.47,1006.01
3324.92,1014.63
3326.37,1022.26
3327.82,1021.72
3329.27,1012.91
3330.73,1004.69
3332.18,1013.88
3333.63,1025.75
3335.08,979.47
3336.53,973.236
3337.98,1023.39
3339.44,987.915
3340.89,989.371
3342.34,999.381
3343.79,1012.11
3345.24,999.073
3346.7,992.015
3348.15,982.115
3349.6,991.439
3351.05,996.729
3352.5,964.637
3353.95,1002.13
3355.41,980.948
3356.86,944.715
3358.31,970.991
3359.76,1008.37
3361.21,989.441
3362.67,998.986
3364.12,976.2
3365.57,984.708
3367.02,992.8
3368.47,969.73
3369.92,986.14
3371.38,1001.24
3372.83,986.428
3374.28,942.855
3375.73,956.993
3377.18,984.446
3378.63,992.677
3380.09,1002.53
3381.54,955.932
3382.99,955.161
3384.44,954.759
3385.89,946.337
3387.35,973.847
3388.8,951.103
3390.25,963.979
3391.7,949.423
3393.15,944.44
3394.6,959.094
3396.06,971.022
3397.51,977.379
3398.96,989.315
3400.41,959.619
3401.86,953.987
3403.32,966.783
3404.77,974.497
3406.22,998.418
3407.67,948.046
3409.12,961.364
3410.57,950.498
3412.03,941.424
3413.48,921.306
3414.93,975.219
3416.38,971.398
3417.83,953.846
3419.28,950.622
3420.74,996.275
3422.19,946.449
3423.64,979.951
3425.09,961.355
3426.54,942.956
3428,914.343
3429.45,960.589
3430.9,967.72
3432.35,975.649
3433.8,976.65
3435.25,933.238
3436.71,938.938
3438.16,938.883
3439.61,972.751
3441.06,966.011
3442.51,939.024
3443.97,927.633
3445.42,916.759
3446.87,962.009
3448.32,933.588
3449.77,925.2
3451.22,932.438
3452.68,976.982
3454.13,914.743
3455.58,919.291
3457.03,966.854
3458.48,942.22
3459.94,944.479
3461.39,923.771
3462.84,941.849
3464.29,949.697
3465.74,945.527
3467.19,945.995
3468.65,910.262
3470.1,956.435
3471.55,941.432
3473,914.986
3474.45,892.354
3475.9,946.832
3477.36,968.736
3478.81,975.386
3480.26,961.05
3481.71,917.741
3483.16,942.347
3484.62,898.176
3486.07,954.281
3487.52,927.994
3488.97,906.523
3490.42,935.449
3491.87,942.883
3493.33,955.789
3494.78,934.192
3496.23,934.377
3497.68,938.018
3499.13,936.284
3500.58,950.031
3502.04,970.158
3503.49,934.3
3504.94,911.611
3506.39,900.643
3507.84,945.501
3509.3,978.149
3510.75,982.292
3512.2,930.649
3513.65,933.493
3515.1,951.769
3516.55,938.244
3518.01,953.693
3519.46,943.468
3520.91,937.426
3522.36,934.742
3523.81,940.032
3525.27,941.378
3526.72,920.07
3528.17,948.732
3529.62,929.126
3531.07,945.473
3532.52,957.091
3533.98,949.751
3535.43,963.357
3536.88,946.873
3538.33,908.995
3539.78,939.805
3541.24,948.057
3542.69,923.405
3544.14,950.065
3545.59,955.699
3547.04,935.885
3548.49,925.147
3549.95,945.561
3551.4,926.574
3552.85,911.723
3554.3,916.78
3555.75,952.176
3557.2,962.583
3558.66,928.327
3560.11,921.078
3561.56,931.172
3563.01,932.978
3564.46,938.781
3565.92,938.637
3567.37,930.638
3568.82,934.486
3570.27,936.292
3571.72,913.683
3573.17,923.995
3574.63,943.072
3576.08,938.04
3577.53,960.891
3578.98,896.495
3580.43,921.937
3581.89,915.222
3583.34,917.838
3584.79,904.236
3586.24,946.773
3587.69,917.884
3589.14,943.332
3590.6,945.409
3592.05,920.617
3593.5,922.989
3594.95,915.156
3596.4,904.469
3597.85,905.444
3599.31,937.982
3600.76,942.265
3602.21,910.39
3603.66,940.572
3605.11,885.123
3606.57,939.072
3608.02,935.588
3609.47,926.907
3610.92,934.103
3612.37,961.89
3613.82,923.112
3615.28,928.555
3616.73,907.798
3618.18,962.408
3619.63,905.591
3621.08,945.535
3622.54,934.767
3623.99,943.825
3625.44,952.003
3626.89,940.375
3628.34,912.285
3629.79,919.138
3631.25,922.651
3632.7,933.065
3634.15,922.341
3635.6,915.949
3637.05,906.715
3638.5,932.02
3639.96,922.44
3641.41,935.241
3642.86,927.826
3644.31,910.998
3645.76,933.99
3647.22,922.67
3648.67,922.867
3650.12,907.04
3651.57,913.71
3653.02,897.206
3654.47,931.26
3655.93,969.778
3657.38,933.324
3658.83,943.744
3660.28,932.282
3661.73,931.965
3663.19,915.503
3664.64,943.595
3666.09,895.631
3667.54,927.085
3668.99,932.875
3670.44,956.396
3671.9,931.451
3673.35,920.563
3674.8,960.793
3676.25,947.278
3677.7,904.3
3679.16,931.15
3680.61,932.289
3682.06,955.483
3683.51,932.862
3684.96,941.856
3686.41,941.461
3687.87,930.296
3689.32,945.803
3690.77,910.219
3692.22,949.473
3693.67,922.971
3695.12,930.507
3696.58,938.98
3698.03,948.327
3699.48,949.001
3700.93,948.145
3702.38,930.731
3703.84,959.191
3705.29,940.076
3706.74,915.485
3708.19,940.891
3709.64,984.988
3711.09,961.117
3712.55,951.246
3714,927.758
3715.45,934.683
3716.9,943.116
3718.35,953.037
3719.8,963.71
3721.26,942.678
3722.71,922.121
3724.16,942.264
3725.61,957.897
3727.06,957.365
3728.52,941.395
3729.97,935.943
3731.42,957.166
3732.87,950.891
3734.32,943.264
3735.77,976.448
3737.23,971.251
3738.68,953.36
3740.13,918.92
3741.58,965.878
3743.03,929.077
3744.49,935.681
3745.94,981.685
3747.39,954.893
3748.84,964.635
3750.29,976.988
3751.74,946.276
3753.2,947.961
3754.65,947.87
3756.1,924.717
3757.55,954.253
3759,941.878
3760.46,961.346
3761.91,969.878
3763.36,975.268
3764.81,978.355
3766.26,984.363
3767.71,936.265
3769.17,952.367
3770.62,974.375
3772.07,927.055
3773.52,939.951
3774.97,959.566
3776.42,934.897
3777.88,954.845
3779.33,957.99
3780.78,981.389
3782.23,983.283
3783.68,985.935
3785.14,1007.6
3786.59,960.645
3788.04,950.578
3789.49,936.585
3790.94,977.898
3792.39,978.65
3793.85,968.424
3795.3,984.557
3796.75,990.491
3798.2,981.035
3799.65,971.799
3801.1,975.097
3802.56,917.731
3804.01,988.924
3805.46,973.339
3806.91,968.956
3808.36,1001.12
3809.82,991.212
3811.27,970.894
3812.72,965.408
3814.17,970.069
3815.62,1007.71
3817.07,995.722
3818.53,994.64
3819.98,1039.15
3821.43,961.27
3822.88,963.208
3824.33,964.14
3825.79,992.853
3827.24,1049.55
3828.69,1045.24
3830.14,972.573
3831.59,1011.7
3833.04,974.934
3834.5,986.229
3835.95,992.449
3837.4,1006.15
3838.85,993.12
3840.3,990.895
3841.76,1055.49
3843.21,949.565
3844.66,985.493
3846.11,987.103
3847.56,963.778
3849.01,1047.17
3850.47,961.19
3851.92,1002.21
3853.37,956.284
3854.82,973.51
3856.27,1012.44
3857.72,1013.66
3859.18,1029.74
3860.63,1025.51
3862.08,975.451
3863.53,1013.27
3864.98,1027.85
3866.44,1063.46
3867.89,1006.95
3869.34,994.91
3870.79,1021.05
3872.24,1026.1
3873.69,1010.67
3875.15,1025.87
3876.6,989.344
3878.05,1004.73
3879.5,1039.35
3880.95,1000.78
3882.41,1018.55
3883.86,1038.36
3885.31,1016.19
3886.76,1010.41
3888.21,1028.91
3889.66,1033.11
3891.12,1023.99
3892.57,1065.44
3894.02,1061.34
3895.47,1069.69
3896.92,1052.68
3898.37,1051.62
3899.83,1043.11
3901.28,1027.38
3902.73,1058.27
3904.18,1043.91
3905.63,1072.89
3907.09,1059.55
3908.54,1063.01
3909.99,1092.58
3911.44,1075.98
3912.89,1079.57
3914.34,1077.57
3915.8,1038.1
3917.25,1065.95
3918.7,1116.76
3920.15,1100.92
3921.6,1136.48
3923.06,1101.69
3924.51,1060.66
3925.96,1120.61
3927.41,1110.85
3928.86,1096.26
3930.31,1159.93
3931.77,1127.44
3933.22,1133.27
3934.67,1138.13
3936.12,1132.62
3937.57,1138.97
3939.02,1144.13
3940.48,1132.18
3941.93,1117.63
3943.38,1128.52
3944.83,1146.25
3946.28,1140.2
3947.74,1145.17
3949.19,1140.92
3950.64,1152.94
3952.09,1127.46
3953.54,1115.92
3954.99,1163.16
3956.45,1154.7
3957.9,1142.13
3959.35,1211.75
3960.8,1160.85
3962.25,1178.58
3963.71,1159.86
3965.16,1165.77
3966.61,1183.9
3968.06,1181.17
3969.51,1191.65
3970.96,1169.55
3972.42,1188.31
3973.87,1192.59
3975.32,1206.59
3976.77,1193.16
3978.22,1206.07
3979.68,1202.31
3981.13,1196.08
3982.58,1233.09
3984.03,1213.53
3985.48,1252.97
3986.93,1200.68
3988.39,1238.08
3989.84,1278.6
3991.29,1238.28
3992.74,1232.6
3994.19,1219.9
3995.64,1253.76
3997.1,1254.19
3998.55,1265.38
4000,1261.72
