-20,30.8706
-18.5482,37.2212
-17.0964,32.1454
-15.6446,26.9153
-14.1928,34.7947
-12.7411,41.2452
-11.2893,44.2699
-9.83749,46.9942
-8.3857,57.6906
-6.93391,76.0442
-5.48212,238.853
-4.03034,2604.77
-2.57855,10126.1
-1.12676,36283.1
0.325027,52925.5
1.77681,54720.1
3.2286,37411
4.68039,13564.5
6.13218,3808.54
7.58397,460.198
9.03575,99.1989
10.4875,86.118
11.9393,87.9524
13.3911,92.379
14.8429,91.2753
16.2947,86.5988
17.7465,81.3189
19.1983,68.5768
20.6501,58.9789
22.1018,52.3541
23.5536,47.0591
25.0054,41.6958
26.4572,37.934
27.909,34.9078
29.3608,32.8478
30.8126,29.5459
32.2644,29.1221
33.7161,26.6503
35.1679,25.6344
36.6197,26.6321
38.0715,29.9937
39.5233,30.07
40.9751,31.2487
42.4269,34.333
43.8787,37.3602
45.3304,44.6154
46.7822,51.7206
48.234,72.6778
49.6858,119.033
51.1376,196.762
52.5894,321.997
54.0412,511.358
55.493,770.298
56.9447,1083.16
58.3965,1415.15
59.8483,1743.16
61.3001,1969.19
62.7519,2142.18
64.2037,2299.75
65.6555,2376.19
67.1073,2452.84
68.559,2495.98
70.0108,2529.46
71.4626,2606.98
72.9144,2657.86
74.3662,2690.4
75.818,2723
77.2698,2776.5
78.7216,2885.95
80.1733,2967.02
81.6251,3041.18
83.0769,3079.8
84.5287,3098.42
85.9805,3118.48
87.4323,3062.83
88.8841,2973.35
90.3359,2888.7
91.7877,2781.41
93.2394,2671.22
94.6912,2530.71
96.143,2430.31
97.5948,2344.04
99.0466,2212.12
100.498,2166.01
101.95,2072.89
103.402,2002.24
104.854,1957.29
106.306,1935.59
107.757,1913.71
109.209,1900.23
110.661,1873.93
112.113,1833.92
113.564,1815.65
115.016,1800.72
116.468,1766.77
117.92,1736.15
119.372,1715.78
120.823,1685.86
122.275,1630.51
123.727,1584.25
125.179,1542.94
126.631,1526.14
128.082,1527.05
129.534,1467.66
130.986,1440.45
132.438,1427.43
133.889,1394.26
135.341,1370.97
136.793,1359.99
138.245,1333.65
139.697,1311.84
141.148,1281.62
142.6,1275.79
144.052,1245.81
145.504,1217.52
146.956,1202.72
148.407,1195.73
149.859,1196.98
151.311,1164.88
152.763,1139.04
154.215,1137.28
155.666,1137.68
157.118,1113.77
158.57,1150.83
160.022,1160.96
161.473,1153.65
162.925,1161.13
164.377,1207.2
165.829,1223.44
167.281,1234.59
168.732,1250.29
170.184,1229.47
171.636,1174.78
173.088,1132.86
174.54,1093.15
175.991,1044.63
177.443,1031.05
178.895,1019.52
180.347,1022.29
181.798,1007.32
183.25,990.099
184.702,981.3
186.154,979.836
187.606,970.278
189.057,959.363
190.509,949.75
191.961,938.34
193.413,967.949
194.865,961.126
196.316,948.474
197.768,934.865
199.22,949.762
200.672,934.325
202.124,936.279
203.575,940.235
205.027,918.378
206.479,924.745
207.931,929.204
209.382,940.358
210.834,935.923
212.286,914.862
213.738,910.962
215.19,931.437
216.641,930.981
218.093,931.284
219.545,927.446
220.997,907.276
222.449,902.614
223.9,896.705
225.352,907.311
226.804,913.852
228.256,899.13
229.707,893.914
231.159,904.052
232.611,912.341
234.063,915.18
235.515,932.518
236.966,902.081
238.418,904.679
239.87,916.72
241.322,910.033
242.774,892.807
244.225,886.394
245.677,891.854
247.129,891.283
248.581,887.824
250.033,862.419
251.484,882.02
252.936,874.894
254.388,863.045
255.84,861.055
257.291,889.215
258.743,886.839
260.195,859.083
261.647,864.045
263.099,865.873
264.55,831.303
266.002,823.558
267.454,839.566
268.906,845.968
270.358,839.33
271.809,841.362
273.261,845.294
274.713,827.73
276.165,833.317
277.616,827.869
279.068,800.493
280.52,795.871
281.972,817.767
283.424,806.096
284.875,796.075
286.327,791.031
287.779,800.366
289.231,802.638
290.683,788.429
292.134,772.576
293.586,764.783
295.038,779.762
296.49,766.919
297.941,749.686
299.393,765.663
300.845,764.7
302.297,725.059
303.749,726.104
305.2,727.268
306.652,730.07
308.104,727.462
309.556,721.378
311.008,714.78
312.459,718.342
313.911,704.805
315.363,711.544
316.815,727.847
318.267,688.901
319.718,682.525
321.17,686.254
322.622,687.085
324.074,691.401
325.525,686.745
326.977,688.617
328.429,681.106
329.881,689.313
331.333,694.582
332.784,678.683
334.236,685.163
335.688,663.175
337.14,672.747
338.592,669.913
340.043,647.554
341.495,657.225
342.947,691.642
344.399,668.276
345.85,654.338
347.302,665.563
348.754,680.122
350.206,676.838
351.658,675.396
353.109,662.479
354.561,654.766
356.013,655.671
357.465,639.811
358.917,649.711
360.368,660.792
361.82,657.384
363.272,644.706
364.724,637.992
366.176,643.466
367.627,651.115
369.079,648.849
370.531,647.115
371.983,663.493
373.434,647.445
374.886,647.231
376.338,641.214
377.79,637.809
379.242,644.746
380.693,652.047
382.145,633.899
383.597,621.859
385.049,612.591
386.501,617.742
387.952,627.954
389.404,633.005
390.856,630.967
392.308,631.035
393.759,634.499
395.211,634.519
396.663,638.175
398.115,621.729
399.567,635.332
401.018,640.916
402.47,633.457
403.922,628.064
405.374,645.562
406.826,629.721
408.277,639.924
409.729,643.403
411.181,627.9
412.633,635.783
414.085,637.699
415.536,622.857
416.988,613.608
418.44,620.321
419.892,637.836
421.343,637.041
422.795,634.514
424.247,623.553
425.699,611.721
427.151,610.038
428.602,636.301
430.054,636.521
431.506,636.671
432.958,625.304
434.41,620.696
435.861,639.021
437.313,618.914
438.765,629.823
440.217,633.123
441.668,623.177
443.12,615.332
444.572,638.118
446.024,633.356
447.476,626.664
448.927,623.933
450.379,617.748
451.831,615.811
453.283,598.528
454.735,603.841
456.186,604.955
457.638,610.168
459.09,617.991
460.542,611.633
461.993,568.75
463.445,600.548
464.897,609.713
466.349,609.258
467.801,609.832
469.252,597.544
470.704,618.775
472.156,614.165
473.608,614.198
475.06,613.933
476.511,610.328
477.963,604.851
479.415,607.744
480.867,618.48
482.319,606.646
483.77,595.451
485.222,607.919
486.674,626.102
488.126,602.117
489.577,607.439
491.029,618.613
492.481,617.064
493.933,601.924
495.385,591.111
496.836,608.09
498.288,609.948
499.74,607.683
501.192,606.883
502.644,590.961
504.095,593.271
505.547,591.919
506.999,598.18
508.451,604.828
509.902,607.623
511.354,600.148
512.806,587.611
514.258,590.844
515.71,611.31
517.161,620.965
518.613,606.902
520.065,579.454
521.517,584.395
522.969,588.404
524.42,589.056
525.872,587.431
527.324,589.101
528.776,599.948
530.228,600.506
531.679,611.596
533.131,610.672
534.583,599.795
536.035,599.845
537.486,581.658
538.938,561.479
540.39,578.182
541.842,591.174
543.294,589.8
544.745,594.233
546.197,598.494
547.649,596.402
549.101,592.385
550.553,592.745
552.004,593.286
553.456,599.066
554.908,596.841
556.36,596.966
557.811,596.338
559.263,607.085
560.715,601.529
562.167,583.922
563.619,598.136
565.07,592.774
566.522,589.855
567.974,579.299
569.426,576.21
570.878,595.978
572.329,572.46
573.781,600.981
575.233,608.201
576.685,600.515
578.137,592.119
579.588,592.008
581.04,585.695
582.492,582.542
583.944,592.509
585.395,594.166
586.847,585.743
588.299,579.119
589.751,584.479
591.203,606.627
592.654,587.792
594.106,575.673
595.558,586.532
597.01,582.856
598.462,583.803
599.913,582.109
601.365,600.205
602.817,603.169
604.269,595.018
605.72,602.965
607.172,601.568
608.624,576.7
610.076,588.09
611.528,591.407
612.979,589.258
614.431,587.998
615.883,596.976
617.335,596.229
618.787,602.918
620.238,603.825
621.69,590.744
623.142,587.509
624.594,605.239
626.046,587.39
627.497,588.343
628.949,597.716
630.401,595.559
631.853,581.076
633.304,591.488
634.756,606.982
636.208,592.456
637.66,608.298
639.112,618.317
640.563,609.039
642.015,611.165
643.467,620.423
644.919,604.094
646.371,599.604
647.822,602.285
649.274,609.901
650.726,613.455
652.178,641.723
653.629,623.208
655.081,628.939
656.533,623.841
657.985,615.979
659.437,614.605
660.888,632.579
662.34,620.476
663.792,620.913
665.244,616.762
666.696,613.024
668.147,619.3
669.599,621.985
671.051,616.534
672.503,617.025
673.954,624.307
675.406,624.905
676.858,623.499
678.31,626.748
679.762,622.476
681.213,634.414
682.665,633.209
684.117,632.833
685.569,625.906
687.021,615.769
688.472,629.086
689.924,615.621
691.376,620.517
692.828,610.809
694.28,610.459
695.731,623.324
697.183,616.509
698.635,610.032
700.087,622.446
701.538,631.092
702.99,627.842
704.442,632.619
705.894,640.172
707.346,628.225
708.797,645.205
710.249,629.811
711.701,645.062
713.153,654.471
714.605,650.046
716.056,643.914
717.508,628.455
718.96,638.045
720.412,625.746
721.863,633.941
723.315,645.434
724.767,648.281
726.219,642.604
727.671,629.599
729.122,635.239
730.574,641.082
732.026,634.914
733.478,626.255
734.93,631.031
736.381,634.348
737.833,640.262
739.285,646.813
740.737,643.107
742.189,646.936
743.64,655.311
745.092,646.984
746.544,619.818
747.996,631.795
749.447,656.833
750.899,649.517
752.351,632.764
753.803,627.824
755.255,630.137
756.706,633.515
758.158,623.108
759.61,631.824
761.062,641.762
762.514,639.929
763.965,640.241
765.417,656.533
766.869,645.76
768.321,623.474
769.772,640.241
771.224,639.361
772.676,635.469
774.128,664.499
775.58,636.393
777.031,646.929
778.483,634.616
779.935,651.057
781.387,660.62
782.839,654.557
784.29,669.183
785.742,670.343
787.194,643.73
788.646,649.631
790.098,658.015
791.549,647.853
793.001,652.67
794.453,651.748
795.905,660.089
797.356,652.853
798.808,651.543
800.26,650.484
801.712,654.496
803.164,666.94
804.615,680.704
806.067,650.971
807.519,661.209
808.971,666.559
810.423,664.649
811.874,664.541
813.326,672.606
814.778,647.777
816.23,670.378
817.681,662.501
819.133,678.025
820.585,696.48
822.037,687.114
823.489,674.274
824.94,672.515
826.392,673.498
827.844,684.423
829.296,691.08
830.748,674.341
832.199,661.393
833.651,662.457
835.103,701.242
836.555,689.606
838.007,694.886
839.458,710.211
840.91,708.494
842.362,690.227
843.814,684.844
845.265,680.541
846.717,684.047
848.169,694.803
849.621,727.973
851.073,716.161
852.524,705.324
853.976,721.151
855.428,717.49
856.88,725.25
858.332,725.729
859.783,724.425
861.235,712.054
862.687,726.458
864.139,732.417
865.59,730.005
867.042,735.191
868.494,702.004
869.946,696.218
871.398,698.15
872.849,714.573
874.301,716.631
875.753,712.215
877.205,711.469
878.657,716.626
880.108,701.724
881.56,705.329
883.012,704.489
884.464,706.626
885.915,702.483
887.367,696.798
888.819,706.396
890.271,700.779
891.723,706.993
893.174,725.463
894.626,734.258
896.078,740.639
897.53,735.741
898.982,724.005
900.433,717.713
901.885,709.326
903.337,727.546
904.789,738.201
906.241,740.08
907.692,743.088
909.144,735.728
910.596,740.884
912.048,732.706
913.499,749.367
914.951,743.607
916.403,736.985
917.855,723.813
919.307,708.12
920.758,727.552
922.21,754.694
923.662,745.943
925.114,749.855
926.566,747.297
928.017,747.479
929.469,765.643
930.921,757.201
932.373,750.982
933.824,716.556
935.276,750.68
936.728,766.621
938.18,757.659
939.632,763.492
941.083,763.114
942.535,748.373
943.987,754.157
945.439,772.1
946.891,758.551
948.342,749.056
949.794,752.493
951.246,754.274
952.698,761.493
954.15,779.508
955.601,754.693
957.053,743.958
958.505,752.813
959.957,757.275
961.408,748.792
962.86,745.125
964.312,777.773
965.764,779.552
967.216,769.221
968.667,753.697
970.119,770.231
971.571,764.184
973.023,765.064
974.475,773.787
975.926,759.248
977.378,767.281
978.83,765.533
980.282,771.973
981.733,771.433
983.185,781.221
984.637,779.033
986.089,771.93
987.541,770.327
988.992,789.557
990.444,780.51
991.896,799.747
993.348,779.647
994.8,787.865
996.251,799.041
997.703,783.641
999.155,809.187
1000.61,788.778
1002.06,796.153
1003.51,802.544
1004.96,798.784
1006.41,790.657
1007.87,799.183
1009.32,812.395
1010.77,815.661
1012.22,824.066
1013.67,822.616
1015.12,812.913
1016.58,821.239
1018.03,812.117
1019.48,814.05
1020.93,836.24
1022.38,849.303
1023.84,859.386
1025.29,866.496
1026.74,856.386
1028.19,859.706
1029.64,873.819
1031.09,877.001
1032.55,862.642
1034,875.117
1035.45,887.116
1036.9,894.1
1038.35,910.624
1039.8,910.905
1041.26,915.309
1042.71,937.222
1044.16,945.25
1045.61,912.235
1047.06,917.172
1048.52,934.207
1049.97,946.945
1051.42,954.617
1052.87,968.054
1054.32,961.697
1055.77,966.157
1057.23,989.273
1058.68,1001.13
1060.13,1017.46
1061.58,1005.34
1063.03,1014.45
1064.49,1034.74
1065.94,1043.94
1067.39,1022.94
1068.84,1018.11
1070.29,1060.92
1071.74,1068.54
1073.2,1071.54
1074.65,1085.26
1076.1,1097.79
1077.55,1107.31
1079,1095.62
1080.46,1089.35
1081.91,1099.1
1083.36,1091.4
1084.81,1139.76
1086.26,1144.85
1087.71,1154.96
1089.17,1140
1090.62,1097.05
1092.07,1120.3
1093.52,1146.9
1094.97,1122.02
1096.42,1110.81
1097.88,1129.95
1099.33,1101.11
1100.78,1097.97
1102.23,1104.73
1103.68,1104.56
1105.14,1086.84
1106.59,1084.3
1108.04,1090.31
1109.49,1080.16
1110.94,1083.99
1112.39,1056.06
1113.85,1065.74
1115.3,1061.47
1116.75,1059.5
1118.2,1058.69
1119.65,1045.67
1121.11,1041.7
1122.56,1031.48
1124.01,1041.76
1125.46,1042.23
1126.91,1025.6
1128.36,1028.79
1129.82,1026.07
1131.27,1011.59
1132.72,1014.44
1134.17,994.491
1135.62,1010.26
1137.07,993.333
1138.53,987.442
1139.98,1008.16
1141.43,1008.98
1142.88,983.556
1144.33,989.017
1145.79,1005.02
1147.24,1020.94
1148.69,996.481
1150.14,984.828
1151.59,1000.51
1153.04,973.992
1154.5,975.849
1155.95,986.965
1157.4,997.184
1158.85,996.519
1160.3,992.874
1161.76,992.151
1163.21,985.135
1164.66,983.24
1166.11,971.884
1167.56,989.122
1169.01,993.932
1170.47,1003.11
1171.92,1008.85
1173.37,998.696
1174.82,1023.21
1176.27,1004.95
1177.72,1004.84
1179.18,1040.44
1180.63,1010.03
1182.08,1007.96
1183.53,1024.32
1184.98,1020.37
1186.44,1017.22
1187.89,1011.29
1189.34,1014.22
1190.79,1017.69
1192.24,1001.4
1193.69,1029.83
1195.15,1042.87
1196.6,1034.53
1198.05,1020.19
1199.5,1027.12
1200.95,1048.4
1202.41,1049.79
1203.86,1042.9
1205.31,1039.54
1206.76,1073.13
1208.21,1066.08
1209.66,1051
1211.12,1036.91
1212.57,1051.73
1214.02,1050.53
1215.47,1030.47
1216.92,1049.65
1218.37,1060.55
1219.83,1062.23
1221.28,1067.39
1222.73,1067.25
1224.18,1062.87
1225.63,1077.19
1227.09,1082.21
1228.54,1065.96
1229.99,1052.09
1231.44,1070.15
1232.89,1052.39
1234.34,1086.25
1235.8,1082.93
1237.25,1075.19
1238.7,1057.11
1240.15,1081.24
1241.6,1111.98
1243.06,1102.03
1244.51,1100.04
1245.96,1108.91
1247.41,1150.09
1248.86,1130.6
1250.31,1109.55
1251.77,1137.53
1253.22,1152.63
1254.67,1153.48
1256.12,1146.73
1257.57,1151.07
1259.02,1171.9
1260.48,1184.26
1261.93,1220.96
1263.38,1201.1
1264.83,1222.24
1266.28,1225.55
1267.74,1250.83
1269.19,1261.53
1270.64,1267.66
1272.09,1300.06
1273.54,1339.73
1274.99,1343.45
1276.45,1338.94
1277.9,1325.04
1279.35,1363.21
1280.8,1409.37
1282.25,1416.73
1283.71,1430.81
1285.16,1434.01
1286.61,1445.81
1288.06,1489.62
1289.51,1520.87
1290.96,1523.73
1292.42,1570.28
1293.87,1633.64
1295.32,1648.59
1296.77,1710.57
1298.22,1764.46
1299.67,1800.61
1301.13,1827.68
1302.58,1885.26
1304.03,1958.45
1305.48,1998.79
1306.93,2058.52
1308.39,2145.47
1309.84,2225.57
1311.29,2305.78
1312.74,2407.86
1314.19,2542.31
1315.64,2655.52
1317.1,2756.58
1318.55,2858.84
1320,2958.44
1321.45,3084.08
1322.9,3250.33
1324.36,3330.88
1325.81,3461.38
1327.26,3571.66
1328.71,3685.79
1330.16,3774.56
1331.61,3841.64
1333.07,3897.64
1334.52,3975.33
1335.97,4018.2
1337.42,3954.69
1338.87,3958.27
1340.33,3890.81
1341.78,3819.76
1343.23,3757.66
1344.68,3648.93
1346.13,3570.06
1347.58,3463.56
1349.04,3305.99
1350.49,3159.41
1351.94,3027.24
1353.39,2867.48
1354.84,2743.73
1356.29,2681.12
1357.75,2559.64
1359.2,2452.62
1360.65,2380.61
1362.1,2255.44
1363.55,2151.17
1365.01,2081.47
1366.46,2016.47
1367.91,1955.38
1369.36,1912.11
1370.81,1868.27
1372.26,1825.37
1373.72,1787.6
1375.17,1754.99
1376.62,1678.87
1378.07,1662.36
1379.52,1627.68
1380.98,1610.85
1382.43,1603.13
1383.88,1572.48
1385.33,1531.37
1386.78,1531.65
1388.23,1535.82
1389.69,1496.67
1391.14,1486.37
1392.59,1528.66
1394.04,1534.84
1395.49,1478.03
1396.94,1475.33
1398.4,1451.2
1399.85,1453.83
1401.3,1461.71
1402.75,1444.79
1404.2,1438.2
1405.66,1434.97
1407.11,1456.08
1408.56,1475.18
1410.01,1459.53
1411.46,1466.47
1412.91,1430.03
1414.37,1454.32
1415.82,1458.02
1417.27,1446.42
1418.72,1436.85
1420.17,1439.19
1421.63,1455.31
1423.08,1445.96
1424.53,1465.4
1425.98,1440.54
1427.43,1451.65
1428.88,1448.53
1430.34,1489.97
1431.79,1498.73
1433.24,1493.56
1434.69,1504.21
1436.14,1517.5
1437.59,1539.8
1439.05,1531.75
1440.5,1532.75
1441.95,1562.13
1443.4,1579.46
1444.85,1578.44
1446.31,1543.03
1447.76,1571.42
1449.21,1589.66
1450.66,1610.32
1452.11,1604.45
1453.56,1602.04
1455.02,1618.33
1456.47,1646.68
1457.92,1666.92
1459.37,1690.5
1460.82,1682.64
1462.28,1691.18
1463.73,1766.74
1465.18,1784
1466.63,1793.51
1468.08,1786.64
1469.53,1797.52
1470.99,1810.13
1472.44,1826.16
1473.89,1873.15
1475.34,1913.6
1476.79,1922.41
1478.24,1954.69
1479.7,1955.19
1481.15,2031.4
1482.6,2027.79
1484.05,2072.65
1485.5,2100.61
1486.96,2109.15
1488.41,2147.08
1489.86,2197.63
1491.31,2220.01
1492.76,2268.87
1494.21,2317.64
1495.67,2368.73
1497.12,2399.6
1498.57,2460.59
1500.02,2497.36
1501.47,2584.8
1502.93,2602.95
1504.38,2685.84
1505.83,2771.11
1507.28,2880.31
1508.73,2963.58
1510.18,3057.52
1511.64,3151.89
1513.09,3262.51
1514.54,3403.29
1515.99,3532.38
1517.44,3663.27
1518.89,3761.29
1520.35,3921.42
1521.8,4079.29
1523.25,4318.04
1524.7,4529.38
1526.15,4852.98
1527.61,5083.12
1529.06,5444.81
1530.51,5823.35
1531.96,6252.05
1533.41,6746.44
1534.86,7219.41
1536.32,7791.79
1537.77,8508.26
1539.22,9294.67
1540.67,10188.5
1542.12,11109.7
1543.58,12138
1545.03,13241.4
1546.48,14447.7
1547.93,15773
1549.38,17168.6
1550.83,18641.9
1552.29,20229.3
1553.74,21814.6
1555.19,23323.4
1556.64,24862.5
1558.09,26468.6
1559.54,27882.4
1561,29330
1562.45,30511.6
1563.9,31375
1565.35,31877.4
1566.8,33208.3
1568.26,31896.8
1569.71,31363.6
1571.16,30655.5
1572.61,29547.2
1574.06,28111.7
1575.51,26397.2
1576.97,24664.7
1578.42,22904.6
1579.87,21174.4
1581.32,19460.3
1582.77,17793.3
1584.23,16283
1585.68,14716
1587.13,13375.8
1588.58,12277.5
1590.03,11193.6
1591.48,10222.5
1592.94,9479.33
1594.39,8850.46
1595.84,8198.63
1597.29,7683.57
1598.74,7182.14
1600.2,6744.82
1601.65,6436.47
1603.1,6125.82
1604.55,5794.42
1606,5542.8
1607.45,5278.42
1608.91,5009.73
1610.36,4758.28
1611.81,4483.89
1613.26,4366.61
1614.71,4144.15
1616.16,3967.01
1617.62,3752.82
1619.07,3584.09
1620.52,3456.18
1621.97,3294.17
1623.42,3138.96
1624.88,3049.45
1626.33,2947.66
1627.78,2829.14
1629.23,2689.22
1630.68,2602.05
1632.13,2554.65
1633.59,2499.09
1635.04,2413.81
1636.49,2352.01
1637.94,2298.5
1639.39,2249.55
1640.85,2207.67
1642.3,2199.73
1643.75,2137.88
1645.2,2072.39
1646.65,2046.34
1648.1,2009
1649.56,1945.18
1651.01,1914.72
1652.46,1894.95
1653.91,1851.28
1655.36,1818.81
1656.81,1805.09
1658.27,1792.16
1659.72,1781.75
1661.17,1751.1
1662.62,1698.97
1664.07,1687.94
1665.53,1655.43
1666.98,1656.93
1668.43,1655.32
1669.88,1604.38
1671.33,1581.9
1672.78,1566.59
1674.24,1546.2
1675.69,1537.17
1677.14,1508.41
1678.59,1505.29
1680.04,1501.17
1681.5,1493.53
1682.95,1466.36
1684.4,1453.72
1685.85,1429.11
1687.3,1440.16
1688.75,1408.28
1690.21,1407.04
1691.66,1383.81
1693.11,1383.36
1694.56,1365.52
1696.01,1353.73
1697.46,1358.09
1698.92,1351.87
1700.37,1354.61
1701.82,1354.7
1703.27,1339.78
1704.72,1330.93
1706.18,1331.09
1707.63,1335.15
1709.08,1323.47
1710.53,1305.93
1711.98,1313.82
1713.43,1320.72
1714.89,1311.31
1716.34,1285.99
1717.79,1270.38
1719.24,1258.3
1720.69,1277.47
1722.15,1275.36
1723.6,1292.12
1725.05,1269.31
1726.5,1262.21
1727.95,1261.43
1729.4,1260.03
1730.86,1284.98
1732.31,1278.12
1733.76,1265.76
1735.21,1259.66
1736.66,1258.93
1738.11,1250.2
1739.57,1256.04
1741.02,1236.07
1742.47,1239.96
1743.92,1246.16
1745.37,1234.91
1746.83,1238.08
1748.28,1228.84
1749.73,1214.97
1751.18,1242.84
1752.63,1208.35
1754.08,1172.72
1755.54,1196.81
1756.99,1218.03
1758.44,1202.68
1759.89,1165.9
1761.34,1181.18
1762.8,1196.52
1764.25,1186.21
1765.7,1176.29
1767.15,1180.5
1768.6,1161.88
1770.05,1138.54
1771.51,1147.95
1772.96,1153.54
1774.41,1140.65
1775.86,1152.62
1777.31,1141.39
1778.76,1123.57
1780.22,1136.26
1781.67,1120.86
1783.12,1109.83
1784.57,1100.9
1786.02,1079.4
1787.48,1126.06
1788.93,1071.83
1790.38,1102.9
1791.83,1092.86
1793.28,1106.42
1794.73,1084.39
1796.19,1081.73
1797.64,1089.78
1799.09,1079.45
1800.54,1071.15
1801.99,1089.46
1803.45,1087.05
1804.9,1055.46
1806.35,1053.44
1807.8,1060.81
1809.25,1054.42
1810.7,1075.85
1812.16,1072.27
1813.61,1050.2
1815.06,1049.22
1816.51,1046.09
1817.96,1036.16
1819.41,1048.56
1820.87,1067.91
1822.32,1070.38
1823.77,1075.22
1825.22,1089.35
1826.67,1085.97
1828.13,1082.17
1829.58,1114.32
1831.03,1059.74
1832.48,1053.18
1833.93,1054.56
1835.38,1065.3
1836.84,1057.03
1838.29,1086.74
1839.74,1091.94
1841.19,1096.86
1842.64,1105.15
1844.1,1089.78
1845.55,1094.4
1847,1107.63
1848.45,1123.7
1849.9,1153.46
1851.35,1158.74
1852.81,1142.92
1854.26,1130.4
1855.71,1134.2
1857.16,1139.65
1858.61,1136.88
1860.07,1134.03
1861.52,1148.62
1862.97,1152
1864.42,1144.94
1865.87,1147.18
1867.32,1150.32
1868.78,1152.57
1870.23,1145.52
1871.68,1163.89
1873.13,1133.53
1874.58,1141.16
1876.03,1128.35
1877.49,1112.33
1878.94,1107.3
1880.39,1090.45
1881.84,1092.06
1883.29,1108.49
1884.75,1127.41
1886.2,1071.72
1887.65,1092.27
1889.1,1106.09
1890.55,1084.71
1892,1076.62
1893.46,1076.76
1894.91,1066.62
1896.36,1051.43
1897.81,1030.95
1899.26,1012.83
1900.72,1037.44
1902.17,1046.85
1903.62,1033.74
1905.07,1032.81
1906.52,1021.72
1907.97,1024.49
1909.43,1012.57
1910.88,1021.17
1912.33,1009.92
1913.78,1006.69
1915.23,1005.01
1916.68,993.18
1918.14,973.463
1919.59,983.436
1921.04,996.445
1922.49,998.583
1923.94,1018.24
1925.4,1005.9
1926.85,984.816
1928.3,953.425
1929.75,995.071
1931.2,992.274
1932.65,980.102
1934.11,1000.19
1935.56,1003.45
1937.01,990.295
1938.46,972.934
1939.91,956.949
1941.37,969.262
1942.82,993.247
1944.27,1007.6
1945.72,1009.87
1947.17,999.124
1948.62,1004.42
1950.08,1004.06
1951.53,984.924
1952.98,1013.61
1954.43,1007.93
1955.88,1000.95
1957.33,1003.64
1958.79,1000.86
1960.24,1000.48
1961.69,1001.34
1963.14,1012.6
1964.59,1012.41
1966.05,996.598
1967.5,1002.17
1968.95,1025.39
1970.4,1015.63
1971.85,1001.05
1973.3,996.367
1974.76,992.444
1976.21,995.718
1977.66,1022.98
1979.11,1042.4
1980.56,1038
1982.02,1025.53
1983.47,1025.69
1984.92,1033.52
1986.37,1026.35
1987.82,1050.96
1989.27,1044.53
1990.73,1038.25
1992.18,1048.49
1993.63,1046.31
1995.08,1033.28
1996.53,1062.21
1997.98,1050.85
1999.44,1056.77
2000.89,1052.86
2002.34,1027.26
2003.79,1071.16
2005.24,1058.44
2006.7,1035.84
2008.15,1031.72
2009.6,1024.53
2011.05,1008.54
2012.5,1024.94
2013.95,1023.71
2015.41,975.476
2016.86,1073.12
2018.31,1011.77
2019.76,991.528
2021.21,1024.58
2022.67,1013.06
2024.12,1003.34
2025.57,1002.06
2027.02,1020.59
2028.47,1010.59
2029.92,1071.9
2031.38,1013.99
2032.83,996.797
2034.28,973.366
2035.73,975.671
2037.18,992.637
2038.63,957.48
2040.09,969.318
2041.54,977.515
2042.99,963.156
2044.44,957.33
2045.89,964.859
2047.35,951.64
2048.8,963.336
2050.25,942.006
2051.7,934.407
2053.15,933.858
2054.6,930.615
2056.06,932.026
2057.51,939.954
2058.96,937.724
2060.41,910.317
2061.86,913.257
2063.32,915.737
2064.77,945.153
2066.22,928.537
2067.67,919.518
2069.12,926.829
2070.57,922.099
2072.03,912.27
2073.48,906.413
2074.93,893.227
2076.38,894.095
2077.83,895.359
2079.28,899.683
2080.74,893.752
2082.19,900.894
2083.64,896.274
2085.09,889.594
2086.54,898.018
2088,905.342
2089.45,899.479
2090.9,896.498
2092.35,895.438
2093.8,890.187
2095.25,881.205
2096.71,885.937
2098.16,885.827
2099.61,886.826
2101.06,875.845
2102.51,878.811
2103.97,904
2105.42,919.2
2106.87,901.789
2108.32,897.759
2109.77,890.628
2111.22,882.138
2112.68,901.277
2114.13,920
2115.58,895.883
2117.03,894.861
2118.48,928.005
2119.94,929.016
2121.39,914.241
2122.84,904.41
2124.29,909.446
2125.74,923.021
2127.19,926.463
2128.65,893.172
2130.1,906.777
2131.55,935.905
2133,916.89
2134.45,907.185
2135.9,922.739
2137.36,908.495
2138.81,900.421
2140.26,916.364
2141.71,937.551
2143.16,915.681
2144.62,927.396
2146.07,928.091
2147.52,923.552
2148.97,935.881
2150.42,931.973
2151.87,942.113
2153.33,954.759
2154.78,940.11
2156.23,935.818
2157.68,939.19
2159.13,947.904
2160.58,950.316
2162.04,952.895
2163.49,938.163
2164.94,933.058
2166.39,943.118
2167.84,958.813
2169.3,951.046
2170.75,939.846
2172.2,936.39
2173.65,963.281
2175.1,958.184
2176.55,949.078
2178.01,963.032
2179.46,965.936
2180.91,948.759
2182.36,950.107
2183.81,956.466
2185.27,954.572
2186.72,991.077
2188.17,999.898
2189.62,998.406
2191.07,989.507
2192.52,961.164
2193.98,977.399
2195.43,951.869
2196.88,964.676
2198.33,1001.03
2199.78,994.807
2201.24,1023.54
2202.69,988.992
2204.14,984.006
2205.59,990.827
2207.04,1005.09
2208.49,971.067
2209.95,979.992
2211.4,1002.24
2212.85,971.324
2214.3,989.437
2215.75,946.926
2217.2,970.837
2218.66,988.018
2220.11,975.641
2221.56,997.383
2223.01,999.083
2224.46,991.384
2225.92,960.393
2227.37,960.396
2228.82,965.35
2230.27,1002.34
2231.72,1005.84
2233.17,984.324
2234.63,1011.95
2236.08,1003.72
2237.53,982.019
2238.98,1003.18
2240.43,1007.16
2241.89,1018.9
2243.34,1013.21
2244.79,1012.52
2246.24,1028.72
2247.69,1032.48
2249.14,1024.55
2250.6,1020.09
2252.05,1014.4
2253.5,1021.61
2254.95,1017.59
2256.4,1007.39
2257.85,1034.07
2259.31,1051.99
2260.76,1027.94
2262.21,1032.31
2263.66,1028.25
2265.11,1032.65
2266.57,1048.12
2268.02,1042.64
2269.47,1036.11
2270.92,1033.21
2272.37,1023.53
2273.82,1055.84
2275.28,1042
2276.73,1033.84
2278.18,1038.43
2279.63,1039.8
2281.08,1056.48
2282.54,1068.07
2283.99,1058.74
2285.44,1092.9
2286.89,1084.22
2288.34,1080.68
2289.79,1088.6
2291.25,1094.56
2292.7,1084.41
2294.15,1072.59
2295.6,1090.31
2297.05,1081.06
2298.5,1098.27
2299.96,1110.91
2301.41,1125.13
2302.86,1096.8
2304.31,1076.66
2305.76,1142.29
2307.22,1147.9
2308.67,1119.11
2310.12,1111.26
2311.57,1107.9
2313.02,1148.84
2314.47,1169.86
2315.93,1135.19
2317.38,1136.79
2318.83,1153.5
2320.28,1114.85
2321.73,1124.05
2323.19,1149.71
2324.64,1170.03
2326.09,1175.03
2327.54,1179.26
2328.99,1167.41
2330.44,1172.58
2331.9,1181.51
2333.35,1180.72
2334.8,1194.49
2336.25,1198.84
2337.7,1202.47
2339.16,1198.78
2340.61,1198.98
2342.06,1222.71
2343.51,1232.73
2344.96,1230.65
2346.41,1246.65
2347.87,1227.06
2349.32,1236.25
2350.77,1275.12
2352.22,1281.38
2353.67,1285.95
2355.12,1288.66
2356.58,1291.58
2358.03,1281.03
2359.48,1309.26
2360.93,1278.81
2362.38,1300.79
2363.84,1319.08
2365.29,1322.79
2366.74,1320.15
2368.19,1341.69
2369.64,1372.51
2371.09,1397.5
2372.55,1424.1
2374,1425.82
2375.45,1458.02
2376.9,1457.62
2378.35,1470.21
2379.8,1510.01
2381.26,1506.46
2382.71,1519.23
2384.16,1522.15
2385.61,1547.12
2387.06,1570.62
2388.52,1563.32
2389.97,1624.66
2391.42,1654.31
2392.87,1686.44
2394.32,1712.07
2395.77,1766.01
2397.23,1740.95
2398.68,1753.55
2400.13,1812.91
2401.58,1858.54
2403.03,1902.64
2404.49,1911.43
2405.94,1946.07
2407.39,1997.94
2408.84,2020.55
2410.29,2050.61
2411.74,2073.41
2413.2,2101.84
2414.65,2120.34
2416.1,2189.56
2417.55,2233.1
2419,2230.99
2420.46,2234.6
2421.91,2245.44
2423.36,2213.53
2424.81,2235.08
2426.26,2303.42
2427.71,2291.94
2429.17,2298.48
2430.62,2353.77
2432.07,2323.67
2433.52,2329.46
2434.97,2264.74
2436.42,2285.2
2437.88,2312.81
2439.33,2285.35
2440.78,2277.49
2442.23,2247.94
2443.68,2223.85
2445.14,2245.1
2446.59,2213.46
2448.04,2225.77
2449.49,2223.85
2450.94,2197.64
2452.39,2159.53
2453.85,2153.11
2455.3,2133.72
2456.75,2122.96
2458.2,2106.22
2459.65,2095.64
2461.1,2079.08
2462.56,2056.61
2464.01,2069.21
2465.46,2047.77
2466.91,2002.76
2468.36,2020.01
2469.82,1977.09
2471.27,2040.03
2472.72,2029.73
2474.17,1988.09
2475.62,1969.18
2477.07,1947.69
2478.53,1939.78
2479.98,1921.22
2481.43,1929.84
2482.88,1971.29
2484.33,1973.39
2485.79,1976.2
2487.24,1936.85
2488.69,1936.18
2490.14,1930.63
2491.59,1956.13
2493.04,1951.54
2494.5,1949.69
2495.95,1929.24
2497.4,1957.33
2498.85,1936.31
2500.3,1971.42
2501.76,1986.54
2503.21,1977.51
2504.66,2008.66
2506.11,1987.89
2507.56,1970.12
2509.01,1957.14
2510.47,2028.69
2511.92,2009.59
2513.37,2010.34
2514.82,2052.72
2516.27,2062.54
2517.72,2078.29
2519.18,2070.93
2520.63,2051.44
2522.08,2080.94
2523.53,2109.8
2524.98,2126.98
2526.44,2101.83
2527.89,2130.96
2529.34,2168.75
2530.79,2207.19
2532.24,2220.74
2533.69,2227.2
2535.15,2259.86
2536.6,2250.22
2538.05,2346.47
2539.5,2319.92
2540.95,2344.99
2542.41,2373.65
2543.86,2409.36
2545.31,2438.38
2546.76,2464.09
2548.21,2447.2
2549.66,2494.68
2551.12,2538.39
2552.57,2615.26
2554.02,2658.58
2555.47,2663.88
2556.92,2690.14
2558.37,2727.88
2559.83,2785.41
2561.28,2814.1
2562.73,2844.5
2564.18,2953.15
2565.63,3021.56
2567.09,3043.4
2568.54,3092.2
2569.99,3146.21
2571.44,3216.52
2572.89,3258.64
2574.34,3330.74
2575.8,3343.7
2577.25,3513.8
2578.7,3626.14
2580.15,3683.4
2581.6,3746.94
2583.06,3821.75
2584.51,3907.01
2585.96,4031.39
2587.41,4184.29
2588.86,4286.47
2590.31,4384.18
2591.77,4477.44
2593.22,4650.94
2594.67,4775.76
2596.12,4923.78
2597.57,5119.94
2599.02,5273.34
2600.48,5432.7
2601.93,5612.63
2603.38,5793.71
2604.83,6044.99
2606.28,6238.94
2607.74,6510.02
2609.19,6688.82
2610.64,6964.1
2612.09,7163.33
2613.54,7479.5
2614.99,7791.88
2616.45,8108.75
2617.9,8448.78
2619.35,8794.74
2620.8,9120.55
2622.25,9512.4
2623.71,9892.68
2625.16,10333.8
2626.61,10730.2
2628.06,11122.9
2629.51,11672.3
2630.96,12067.5
2632.42,12621.5
2633.87,13060.6
2635.32,13550
2636.77,14024.6
2638.22,14563
2639.68,15019
2641.13,15397.8
2642.58,15844.5
2644.03,16348.5
2645.48,16768.4
2646.93,17272.1
2648.39,17518.3
2649.84,17988.2
2651.29,18312
2652.74,18561.6
2654.19,18782.9
2655.64,19115.8
2657.1,19225.1
2658.55,19355.7
2660,19478
2661.45,19443.2
2662.9,19310.9
2664.36,19205.2
2665.81,19092.5
2667.26,18833.9
2668.71,18703.1
2670.16,18502.3
2671.61,18236
2673.07,17795.7
2674.52,17411.4
2675.97,16850.5
2677.42,16479.4
2678.87,16008.4
2680.32,15601.7
2681.78,15066.5
2683.23,14530.8
2684.68,14012.7
2686.13,13536
2687.58,12985.9
2689.04,12577.1
2690.49,12036.3
2691.94,11582
2693.39,11082.1
2694.84,10596.9
2696.29,10154.9
2697.75,9706.83
2699.2,9354.09
2700.65,8944.28
2702.1,8517.58
2703.55,8148.21
2705.01,7766.59
2706.46,7502.07
2707.91,7150.38
2709.36,6871.37
2710.81,6562.38
2712.26,6251.47
2713.72,6054.19
2715.17,5835.9
2716.62,5592.56
2718.07,5331.06
2719.52,5167.69
2720.98,4996.41
2722.43,4778.73
2723.88,4622.44
2725.33,4483.11
2726.78,4306.15
2728.23,4143.71
2729.69,4077.69
2731.14,3911
2732.59,3781.69
2734.04,3696.7
2735.49,3590.29
2736.94,3471.68
2738.4,3382.03
2739.85,3288.74
2741.3,3164.87
2742.75,3127.83
2744.2,3104.18
2745.66,2956.56
2747.11,2888.53
2748.56,2835.4
2750.01,2796.62
2751.46,2751.21
2752.91,2713.31
2754.37,2631.25
2755.82,2587.42
2757.27,2531.62
2758.72,2494.86
2760.17,2395.36
2761.63,2392.78
2763.08,2365.88
2764.53,2294.19
2765.98,2299.86
2767.43,2261.54
2768.88,2183.42
2770.34,2188.05
2771.79,2137.81
2773.24,2098.56
2774.69,2069.34
2776.14,2049.97
2777.59,2074.8
2779.05,2002.29
2780.5,1983.24
2781.95,1972.53
2783.4,1982.6
2784.85,1959.24
2786.31,1915.52
2787.76,1883.72
2789.21,1882.42
2790.66,1853.85
2792.11,1830.4
2793.56,1796.05
2795.02,1792.7
2796.47,1786.11
2797.92,1783.53
2799.37,1758.35
2800.82,1759.06
2802.28,1754.94
2803.73,1711.54
2805.18,1699.5
2806.63,1702.06
2808.08,1678.17
2809.53,1641.86
2810.99,1652.74
2812.44,1649.14
2813.89,1602.42
2815.34,1608.96
2816.79,1585.98
2818.24,1601.95
2819.7,1600.19
2821.15,1585.95
2822.6,1563.71
2824.05,1554.13
2825.5,1549.03
2826.96,1564.64
2828.41,1542.97
2829.86,1557.52
2831.31,1505.7
2832.76,1488.09
2834.21,1507.08
2835.67,1517.08
2837.12,1513.8
2838.57,1512.2
2840.02,1469.8
2841.47,1495.52
2842.93,1441.07
2844.38,1461.76
2845.83,1448.22
2847.28,1431.59
2848.73,1422.6
2850.18,1445.74
2851.64,1440.06
2853.09,1447.82
2854.54,1439.18
2855.99,1426.18
2857.44,1404.78
2858.9,1438.8
2860.35,1417.7
2861.8,1405.72
2863.25,1429.51
2864.7,1407.96
2866.15,1413.14
2867.61,1426.81
2869.06,1439.28
2870.51,1429.73
2871.96,1491.36
2873.41,1445.58
2874.86,1445.54
2876.32,1408.23
2877.77,1424.96
2879.22,1414.12
2880.67,1432.91
2882.12,1457.04
2883.58,1453.35
2885.03,1448.92
2886.48,1439.25
2887.93,1399.4
2889.38,1423.45
2890.83,1410.47
2892.29,1460.8
2893.74,1438.44
2895.19,1416.27
2896.64,1410.88
2898.09,1411.2
2899.54,1416.31
2901,1399.98
2902.45,1401.27
2903.9,1461.38
2905.35,1403.12
2906.8,1431.42
2908.26,1432.84
2909.71,1426.59
2911.16,1403.03
2912.61,1389.74
2914.06,1371.15
2915.51,1383.56
2916.97,1366.82
2918.42,1383.19
2919.87,1372.97
2921.32,1378.26
2922.77,1356.46
2924.23,1345.37
2925.68,1328.79
2927.13,1330.38
2928.58,1356.87
2930.03,1322.29
2931.48,1321.04
2932.94,1281.75
2934.39,1299.09
2935.84,1288.05
2937.29,1278.39
2938.74,1255.06
2940.2,1262.33
2941.65,1233.9
2943.1,1197.85
2944.55,1204.53
2946,1210.56
2947.45,1169.99
2948.91,1152.27
2950.36,1165.08
2951.81,1177.58
2953.26,1134.54
2954.71,1144.29
2956.16,1159.46
2957.62,1134.96
2959.07,1113.26
2960.52,1122.12
2961.97,1097.11
2963.42,1094.67
2964.88,1057.76
2966.33,1061.2
2967.78,1085.3
2969.23,1068.06
2970.68,1054.88
2972.13,1060.8
2973.59,1034.45
2975.04,1028.18
2976.49,1040.84
2977.94,1033.29
2979.39,1023.69
2980.84,1018.07
2982.3,1021.03
2983.75,1000.73
2985.2,995.429
2986.65,976.048
2988.1,999.333
2989.56,1000.21
2991.01,996.483
2992.46,1003.81
2993.91,989.757
2995.36,977.996
2996.81,963.14
2998.27,969.185
2999.72,973.66
3001.17,951.636
3002.62,948.34
3004.07,940.675
3005.53,972.833
3006.98,963.131
3008.43,949.241
3009.88,951.093
3011.33,946.329
3012.78,950.077
3014.24,949.881
3015.69,914.417
3017.14,937.527
3018.59,929.341
3020.04,920.58
3021.5,937.679
3022.95,929.369
3024.4,927.051
3025.85,939.617
3027.3,936.246
3028.75,916.662
3030.21,961.024
3031.66,911.311
3033.11,931.504
3034.56,941.645
3036.01,920.143
3037.46,921.848
3038.92,927.451
3040.37,911.746
3041.82,925.559
3043.27,939.582
3044.72,906.034
3046.18,917.503
3047.63,923.98
3049.08,928.38
3050.53,931.198
3051.98,929.93
3053.43,924.496
3054.89,924.192
3056.34,926.586
3057.79,927.872
3059.24,946.097
3060.69,941.022
3062.15,937.918
3063.6,935.911
3065.05,942.385
3066.5,955.294
3067.95,944.813
3069.4,930.146
3070.86,941.307
3072.31,947.768
3073.76,948.785
3075.21,979.017
3076.66,947.203
3078.11,984.243
3079.57,981.909
3081.02,982.648
3082.47,982.343
3083.92,996.941
3085.37,1000.56
3086.83,1021.51
3088.28,1005.51
3089.73,1008.93
3091.18,1009.32
3092.63,1035.66
3094.08,1063.64
3095.54,1059.63
3096.99,1066.24
3098.44,1105.63
3099.89,1093.69
3101.34,1093.44
3102.8,1140.32
3104.25,1167.84
3105.7,1182.97
3107.15,1204
3108.6,1196.56
3110.05,1204.46
3111.51,1221.5
3112.96,1239.37
3114.41,1297.3
3115.86,1288.22
3117.31,1298.87
3118.76,1279.39
3120.22,1328.46
3121.67,1352.17
3123.12,1351.07
3124.57,1377.44
3126.02,1413.97
3127.48,1406.52
3128.93,1487.43
3130.38,1469.17
3131.83,1457.69
3133.28,1468.24
3134.73,1499.34
3136.19,1484.09
3137.64,1492.16
3139.09,1474.05
3140.54,1523.49
3141.99,1531.19
3143.45,1541.36
3144.9,1523.97
3146.35,1540.99
3147.8,1555.63
3149.25,1583.48
3150.7,1561.73
3152.16,1607.2
3153.61,1594.07
3155.06,1561.46
3156.51,1574.73
3157.96,1583.04
3159.42,1604.26
3160.87,1554.91
3162.32,1593.73
3163.77,1601.53
3165.22,1598.05
3166.67,1622.56
3168.13,1625.86
3169.58,1597.11
3171.03,1581.86
3172.48,1617.08
3173.93,1613.88
3175.38,1645.91
3176.84,1680.74
3178.29,1678.97
3179.74,1714.62
3181.19,1717.41
3182.64,1737.24
3184.1,1786.37
3185.55,1757.61
3187,1793.07
3188.45,1804.82
3189.9,1798.46
3191.35,1846.12
3192.81,1833.11
3194.26,1834.8
3195.71,1864.8
3197.16,1866.6
3198.61,1847.51
3200.06,1903.77
3201.52,1895.12
3202.97,1899.84
3204.42,1858.27
3205.87,1878
3207.32,1886.76
3208.78,1853.73
3210.23,1881.26
3211.68,1798.69
3213.13,1747.04
3214.58,1734.26
3216.03,1697.82
3217.49,1686.76
3218.94,1647.84
3220.39,1614.19
3221.84,1572.93
3223.29,1544.99
3224.75,1475.53
3226.2,1443.49
3227.65,1428.28
3229.1,1385.4
3230.55,1341.56
3232,1315.44
3233.46,1272.79
3234.91,1236.22
3236.36,1212.11
3237.81,1215.09
3239.26,1140.19
3240.72,1092.24
3242.17,1082.29
3243.62,1081.93
3245.07,1052.04
3246.52,1019.56
3247.97,979.602
3249.43,1008.83
3250.88,948.336
3252.33,922.511
3253.78,915.1
3255.23,902.471
3256.68,883.268
3258.14,918.692
3259.59,885.546
3261.04,869.266
3262.49,849.81
3263.94,848.727
3265.4,831.251
3266.85,805.369
3268.3,835.587
3269.75,833.386
3271.2,808.132
3272.65,815.739
3274.11,802.101
3275.56,798.012
3277.01,793.104
3278.46,788.241
3279.91,774.855
3281.37,776.107
3282.82,789.981
3284.27,796.469
3285.72,750.333
3287.17,769.462
3288.62,764.49
3290.08,758.106
3291.53,749.378
3292.98,732.858
3294.43,762.455
3295.88,744.109
3297.33,754.142
3298.79,753.118
3300.24,770.756
3301.69,753.039
3303.14,753.8
3304.59,739.296
3306.05,793.613
3307.5,753.909
3308.95,745.781
3310.4,748.899
3311.85,737.736
3313.3,737.208
3314.76,731.185
3316.21,746.293
3317.66,740.713
3319.11,724.599
3320.56,738.925
3322.02,727.585
3323.47,732.835
3324.92,739.115
3326.37,744.677
3327.82,744.282
3329.27,737.867
3330.73,731.876
3332.18,738.569
3333.63,747.222
3335.08,713.505
3336.53,708.964
3337.98,745.5
3339.44,719.657
3340.89,720.718
3342.34,728.01
3343.79,737.28
3345.24,727.785
3346.7,722.644
3348.15,715.432
3349.6,722.224
3351.05,726.078
3352.5,702.7
3353.95,730.009
3355.41,714.582
3356.86,688.188
3358.31,707.329
3359.76,734.557
3361.21,720.769
3362.67,727.722
3364.12,711.123
3365.57,717.321
3367.02,723.216
3368.47,706.41
3369.92,718.364
3371.38,729.364
3372.83,718.574
3374.28,686.833
3375.73,697.132
3377.18,717.13
3378.63,723.126
3380.09,730.304
3381.54,696.359
3382.99,695.797
3384.44,695.504
3385.89,689.369
3387.35,709.409
3388.8,692.841
3390.25,702.221
3391.7,691.617
3393.15,687.987
3394.6,698.662
3396.06,707.351
3397.51,711.982
3398.96,720.677
3400.41,699.045
3401.86,694.942
3403.32,704.263
3404.77,709.883
3406.22,727.308
3407.67,690.614
3409.12,700.316
3410.57,692.4
3412.03,685.79
3413.48,671.135
3414.93,710.409
3416.38,707.625
3417.83,694.839
3419.28,692.491
3420.74,725.747
3422.19,689.451
3423.64,713.856
3425.09,700.309
3426.54,686.906
3428,666.063
3429.45,699.751
3430.9,704.946
3432.35,710.722
3433.8,711.451
3435.25,679.827
3436.71,683.979
3438.16,683.939
3439.61,708.611
3441.06,703.701
3442.51,684.042
3443.97,675.744
3445.42,667.823
3446.87,700.786
3448.32,680.082
3449.77,673.972
3451.22,679.244
3452.68,711.693
3454.13,666.354
3455.58,669.667
3457.03,704.315
3458.48,686.37
3459.94,688.016
3461.39,672.931
3462.84,686.1
3464.29,691.817
3465.74,688.779
3467.19,689.12
3468.65,663.09
3470.1,696.725
3471.55,685.796
3473,666.531
3474.45,650.045
3475.9,689.73
3477.36,705.686
3478.81,710.53
3480.26,700.087
3481.71,668.538
3483.16,686.463
3484.62,654.286
3486.07,695.156
3487.52,676.007
3488.97,660.366
3490.42,681.438
3491.87,686.853
3493.33,696.255
3494.78,680.522
3496.23,680.657
3497.68,683.309
3499.13,682.046
3500.58,692.06
3502.04,706.722
3503.49,680.601
3504.94,664.073
3506.39,656.083
3507.84,688.76
3509.3,712.543
3510.75,715.561
3512.2,677.941
3513.65,680.013
3515.1,693.326
3516.55,683.474
3518.01,694.728
3519.46,687.279
3520.91,682.878
3522.36,680.923
3523.81,684.776
3525.27,685.757
3526.72,670.235
3528.17,691.114
3529.62,676.832
3531.07,688.74
3532.52,697.203
3533.98,691.856
3535.43,701.768
3536.88,689.76
3538.33,662.167
3539.78,684.611
3541.24,690.622
3542.69,672.664
3544.14,692.085
3545.59,696.189
3547.04,681.755
3548.49,673.933
3549.95,688.804
3551.4,674.973
3552.85,664.154
3554.3,667.838
3555.75,693.623
3557.2,701.204
3558.66,676.25
3560.11,670.969
3561.56,678.322
3563.01,679.638
3564.46,683.865
3565.92,683.76
3567.37,677.933
3568.82,680.736
3570.27,682.052
3571.72,665.582
3573.17,673.094
3574.63,686.991
3576.08,683.325
3577.53,699.971
3578.98,653.061
3580.43,671.595
3581.89,666.703
3583.34,668.609
3584.79,658.7
3586.24,689.687
3587.69,668.642
3589.14,687.18
3590.6,688.693
3592.05,670.633
3593.5,672.361
3594.95,666.655
3596.4,658.87
3597.85,659.58
3599.31,683.283
3600.76,686.403
3602.21,663.183
3603.66,685.17
3605.11,644.777
3606.57,684.077
3608.02,681.539
3609.47,675.215
3610.92,680.457
3612.37,700.699
3613.82,672.451
3615.28,676.416
3616.73,661.295
3618.18,701.076
3619.63,659.687
3621.08,688.785
3622.54,680.941
3623.99,687.539
3625.44,693.497
3626.89,685.026
3628.34,664.564
3629.79,669.556
3631.25,672.115
3632.7,679.701
3634.15,671.889
3635.6,667.233
3637.05,660.506
3638.5,678.94
3639.96,671.961
3641.41,681.286
3642.86,675.885
3644.31,663.626
3645.76,680.375
3647.22,672.129
3648.67,672.272
3650.12,660.743
3651.57,665.602
3653.02,653.579
3654.47,678.386
3655.93,706.445
3657.38,679.89
3658.83,687.48
3660.28,679.131
3661.73,678.9
3663.19,666.908
3664.64,687.372
3666.09,652.432
3667.54,675.345
3668.99,679.563
3670.44,696.697
3671.9,678.525
3673.35,670.594
3674.8,699.9
3676.25,690.055
3677.7,658.747
3679.16,678.306
3680.61,679.136
3682.06,696.032
3683.51,679.553
3684.96,686.105
3686.41,685.817
3687.87,677.684
3689.32,688.98
3690.77,663.059
3692.22,691.654
3693.67,672.348
3695.12,677.838
3696.58,684.01
3698.03,690.819
3699.48,691.31
3700.93,690.686
3702.38,678.001
3703.84,698.733
3705.29,684.808
3706.74,666.895
3708.19,685.402
3709.64,717.525
3711.09,700.136
3712.55,692.945
3714,675.835
3715.45,680.88
3716.9,687.023
3718.35,694.25
3719.8,702.025
3721.26,686.704
3722.71,671.729
3724.16,686.402
3725.61,697.79
3727.06,697.403
3728.52,685.769
3729.97,681.798
3731.42,697.258
3732.87,692.687
3734.32,687.131
3735.77,711.304
3737.23,707.518
3738.68,694.485
3740.13,669.397
3741.58,703.604
3743.03,676.796
3744.49,681.607
3745.94,715.119
3747.39,695.602
3748.84,702.699
3750.29,711.697
3751.74,689.325
3753.2,690.552
3754.65,690.486
3756.1,673.62
3757.55,695.136
3759,686.121
3760.46,700.303
3761.91,706.518
3763.36,710.444
3764.81,712.693
3766.26,717.07
3767.71,682.032
3769.17,693.762
3770.62,709.794
3772.07,675.323
3773.52,684.717
3774.97,699.006
3776.42,681.036
3777.88,695.567
3779.33,697.858
3780.78,714.903
3782.23,716.283
3783.68,718.215
3785.14,733.996
3786.59,699.792
3788.04,692.459
3789.49,682.265
3790.94,712.36
3792.39,712.908
3793.85,705.459
3795.3,717.211
3796.75,721.534
3798.2,714.645
3799.65,707.917
3801.1,710.32
3802.56,668.531
3804.01,720.392
3805.46,709.039
3806.91,705.846
3808.36,729.277
3809.82,722.059
3811.27,707.258
3812.72,703.262
3814.17,706.657
3815.62,734.078
3817.07,725.344
3818.53,724.556
3819.98,756.977
3821.43,700.247
3822.88,701.659
3824.33,702.338
3825.79,723.254
3827.24,764.559
3828.69,761.417
3830.14,708.481
3831.59,736.983
3833.04,710.201
3834.5,718.429
3835.95,722.96
3837.4,732.94
3838.85,723.449
3840.3,721.828
3841.76,768.886
3843.21,691.721
3844.66,717.893
3846.11,719.066
3847.56,702.074
3849.01,762.823
3850.47,700.189
3851.92,730.069
3853.37,696.615
3854.82,709.164
3856.27,737.525
3857.72,738.411
3859.18,750.127
3860.63,747.041
3862.08,710.578
3863.53,738.129
3864.98,748.748
3866.44,774.692
3867.89,733.524
3869.34,724.753
3870.79,743.797
3872.24,747.47
3873.69,736.23
3875.15,747.309
3876.6,720.698
3878.05,731.904
3879.5,757.124
3880.95,729.032
3882.41,741.976
3883.86,756.408
3885.31,740.253
3886.76,736.043
3888.21,749.521
3889.66,752.577
3891.12,745.94
3892.57,776.134
3894.02,773.141
3895.47,779.23
3896.92,766.833
3898.37,766.067
3899.83,759.865
3901.28,748.409
3902.73,770.906
3904.18,760.444
3905.63,781.56
3907.09,771.838
3908.54,774.362
3909.99,795.905
3911.44,783.806
3912.89,786.421
3914.34,784.968
3915.8,756.214
3917.25,776.506
3918.7,813.512
3920.15,801.978
3921.6,827.878
3923.06,802.536
3924.51,772.651
3925.96,816.319
3927.41,809.212
3928.86,798.579
3930.31,844.963
3931.77,821.295
3933.22,825.542
3934.67,829.085
3936.12,825.067
3937.57,829.698
3939.02,833.455
3940.48,824.751
3941.93,814.152
3943.38,822.086
3944.83,834.999
3946.28,830.591
3947.74,834.208
3949.19,831.114
3950.64,839.87
3952.09,821.309
3953.54,812.906
3954.99,847.317
3956.45,841.152
3957.9,831.995
3959.35,882.715
3960.8,845.631
3962.25,858.549
3963.71,844.911
3965.16,849.215
3966.61,862.424
3968.06,860.436
3969.51,868.069
3970.96,851.971
3972.42,865.635
3973.87,868.758
3975.32,878.95
3976.77,869.172
3978.22,878.578
3979.68,875.834
3981.13,871.296
3982.58,898.261
3984.03,884.006
3985.48,912.741
3986.93,874.648
3988.39,901.895
3989.84,931.408
3991.29,902.037
3992.74,897.899
3994.19,888.648
3995.64,913.318
3997.1,913.626
3998.55,921.777
4000,919.115
