-1.12676,16102.2
0.325027,23488
1.77681,24284.4
3.2286,16602.7
4.68039,6019.83
6.13218,1690.2
7.58397,204.233
9.03575,44.0237
10.4875,38.2185
11.9393,39.0326
13.3911,40.9971
14.8429,40.5073
16.2947,38.4319
17.7465,36.0887
19.1983,30.4339
20.6501,26.1744
22.1018,23.2344
23.5536,20.8845
25.0054,18.5043
26.4572,16.8348
27.909,15.4918
29.3608,14.5776
30.8126,13.1123
32.2644,12.9242
33.7161,11.8272
35.1679,11.3764
36.6197,11.8191
38.0715,13.311
39.5233,13.3448
40.9751,13.8679
42.4269,15.2367
43.8787,16.5802
45.3304,19.8
46.7822,22.9532
48.234,32.2539
49.6858,52.826
51.1376,87.3215
52.5894,142.9
54.0412,226.937
55.493,341.853
56.9447,480.699
58.3965,628.033
59.8483,773.602
61.3001,873.912
62.7519,950.684
64.2037,1020.61
65.6555,1054.54
67.1073,1088.55
68.559,1107.7
70.0108,1122.56
71.4626,1156.96
72.9144,1179.54
74.3662,1193.98
75.818,1208.45
77.2698,1232.19
78.7216,1280.76
80.1733,1316.74
81.6251,1349.65
83.0769,1366.79
84.5287,1375.06
85.9805,1383.96
87.4323,1359.26
88.8841,1319.55
90.3359,1281.98
91.7877,1234.37
93.2394,1185.47
94.6912,1123.11
96.143,1078.55
97.5948,1040.27
99.0466,981.723
100.498,961.259
101.95,919.933
103.402,888.58
104.854,868.631
106.306,859.001
107.757,849.291
109.209,843.308
110.661,831.636
112.113,813.88
113.564,805.772
115.016,799.146
116.468,784.08
117.92,770.491
119.372,761.451
120.823,748.172
122.275,723.609
123.727,703.079
125.179,684.745
126.631,677.29
128.082,677.694
129.534,651.337
130.986,639.261
132.438,633.483
133.889,618.762
135.341,608.427
136.793,603.554
138.245,591.864
139.697,582.185
141.148,568.774
142.6,566.186
144.052,552.881
145.504,540.326
146.956,533.758
148.407,530.656
149.859,531.211
151.311,516.965
152.763,505.498
154.215,504.717
155.666,504.894
157.118,494.283
158.57,510.73
160.022,515.226
161.473,511.981
162.925,515.301
164.377,535.747
165.829,542.954
167.281,547.902
168.732,554.87
170.184,545.63
171.636,521.359
173.088,502.755
174.54,485.132
175.991,463.599
177.443,457.572
178.895,452.456
180.347,453.685
181.798,447.041
183.25,439.399
184.702,435.494
186.154,434.844
187.606,430.602
189.057,425.758
190.509,421.492
191.961,416.428
193.413,429.569
194.865,426.541
196.316,420.926
197.768,414.886
199.22,421.497
200.672,414.647
202.124,415.514
203.575,417.269
205.027,407.569
206.479,410.395
207.931,412.374
209.382,417.324
210.834,415.356
212.286,406.009
213.738,404.278
215.19,413.365
216.641,413.163
218.093,413.297
219.545,411.594
220.997,402.642
222.449,400.574
223.9,397.951
225.352,402.658
226.804,405.561
228.256,399.027
229.707,396.713
231.159,401.212
232.611,404.89
234.063,406.15
235.515,413.845
236.966,400.337
238.418,401.49
239.87,406.834
241.322,403.866
242.774,396.221
244.225,393.375
245.677,395.798
247.129,395.545
248.581,394.01
250.033,382.735
251.484,391.434
252.936,388.272
254.388,383.013
255.84,382.13
257.291,394.627
258.743,393.573
260.195,381.255
261.647,383.457
263.099,384.268
264.55,368.926
266.002,365.489
267.454,372.593
268.906,375.434
270.358,372.489
271.809,373.39
273.261,375.135
274.713,367.341
276.165,369.82
277.616,367.402
279.068,355.253
280.52,353.202
281.972,362.919
283.424,357.74
284.875,353.292
286.327,351.054
287.779,355.197
289.231,356.205
290.683,349.899
292.134,342.864
293.586,339.405
295.038,346.053
296.49,340.353
297.941,332.705
299.393,339.796
300.845,339.368
302.297,321.776
303.749,322.24
305.2,322.756
306.652,324
308.104,322.842
309.556,320.142
311.008,317.214
312.459,318.795
313.911,312.787
315.363,315.778
316.815,323.013
318.267,305.729
319.718,302.9
321.17,304.555
322.622,304.923
324.074,306.839
325.525,304.772
326.977,305.603
328.429,302.27
329.881,305.912
331.333,308.25
332.784,301.195
334.236,304.07
335.688,294.312
337.14,298.56
338.592,297.303
340.043,287.38
341.495,291.672
342.947,306.946
344.399,296.576
345.85,290.39
347.302,295.372
348.754,301.833
350.206,300.376
351.658,299.736
353.109,294.003
354.561,290.58
356.013,290.982
357.465,283.943
358.917,288.337
360.368,293.255
361.82,291.742
363.272,286.116
364.724,283.136
366.176,285.566
367.627,288.96
369.079,287.954
370.531,287.185
371.983,294.453
373.434,287.331
374.886,287.236
376.338,284.566
377.79,283.055
379.242,286.134
380.693,289.374
382.145,281.32
383.597,275.977
385.049,271.863
386.501,274.149
387.952,278.681
389.404,280.923
390.856,280.019
392.308,280.049
393.759,281.586
395.211,281.595
396.663,283.217
398.115,275.919
399.567,281.956
401.018,284.434
402.47,281.124
403.922,278.73
405.374,286.496
406.826,279.466
408.277,283.994
409.729,285.538
411.181,278.657
412.633,282.156
414.085,283.006
415.536,276.419
416.988,272.315
418.44,275.294
419.892,283.067
421.343,282.714
422.795,281.593
424.247,276.728
425.699,271.477
427.151,270.73
428.602,282.386
430.054,282.483
431.506,282.55
432.958,277.505
434.41,275.46
435.861,283.593
437.313,274.67
438.765,279.511
440.217,280.975
441.668,276.561
443.12,273.08
444.572,283.192
446.024,281.079
447.476,278.109
448.927,276.897
450.379,274.152
451.831,273.292
453.283,265.622
454.735,267.98
456.186,268.475
457.638,270.788
459.09,274.26
460.542,271.438
461.993,252.407
463.445,266.519
464.897,270.586
466.349,270.384
467.801,270.639
469.252,265.186
470.704,274.608
472.156,272.562
473.608,272.577
475.06,272.459
476.511,270.859
477.963,268.428
479.415,269.712
480.867,274.477
482.319,269.225
483.77,264.257
485.222,269.79
486.674,277.86
488.126,267.215
489.577,269.577
491.029,274.536
492.481,273.849
493.933,267.129
495.385,262.331
496.836,269.866
498.288,270.69
499.74,269.685
501.192,269.33
502.644,262.264
504.095,263.289
505.547,262.689
506.999,265.468
508.451,268.418
509.902,269.659
511.354,266.341
512.806,260.777
514.258,262.212
515.71,271.295
517.161,275.58
518.613,269.339
520.065,257.157
521.517,259.35
522.969,261.129
524.42,261.419
525.872,260.698
527.324,261.439
528.776,266.253
530.228,266.5
531.679,271.422
533.131,271.012
534.583,266.185
536.035,266.207
537.486,258.136
538.938,249.18
540.39,256.593
541.842,262.359
543.294,261.749
544.745,263.716
546.197,265.607
547.649,264.679
549.101,262.896
550.553,263.056
552.004,263.296
553.456,265.861
554.908,264.874
556.36,264.929
557.811,264.65
559.263,269.42
560.715,266.954
562.167,259.14
563.619,265.448
565.07,263.069
566.522,261.773
567.974,257.089
569.426,255.718
570.878,264.491
572.329,254.054
573.781,266.711
575.233,269.915
576.685,266.504
578.137,262.778
579.588,262.729
581.04,259.927
582.492,258.528
583.944,262.951
585.395,263.687
586.847,259.948
588.299,257.009
589.751,259.388
591.203,269.217
592.654,260.858
594.106,255.479
595.558,260.299
597.01,258.667
598.462,259.088
599.913,258.336
601.365,266.367
602.817,267.682
604.269,264.065
605.72,267.591
607.172,266.971
608.624,255.935
610.076,260.99
611.528,262.462
612.979,261.508
614.431,260.949
615.883,264.934
617.335,264.602
618.787,267.571
620.238,267.973
621.69,262.168
623.142,260.732
624.594,268.601
626.046,260.679
627.497,261.102
628.949,265.262
630.401,264.305
631.853,257.877
633.304,262.498
634.756,269.374
636.208,262.928
637.66,269.958
639.112,274.405
640.563,270.287
642.015,271.231
643.467,275.339
644.919,268.093
646.371,266.1
647.822,267.29
649.274,270.67
650.726,272.247
652.178,284.792
653.629,276.575
655.081,279.119
656.533,276.856
657.985,273.367
659.437,272.757
660.888,280.734
662.34,275.363
663.792,275.557
665.244,273.715
666.696,272.056
668.147,274.841
669.599,276.032
671.051,273.613
672.503,273.831
673.954,277.063
675.406,277.328
676.858,276.704
678.31,278.146
679.762,276.25
681.213,281.548
682.665,281.014
684.117,280.847
685.569,277.773
687.021,273.274
688.472,279.184
689.924,273.208
691.376,275.381
692.828,271.073
694.28,270.917
695.731,276.627
697.183,273.602
698.635,270.728
700.087,276.237
701.538,280.074
702.99,278.632
704.442,280.752
705.894,284.104
707.346,278.802
708.797,286.337
710.249,279.506
711.701,286.274
713.153,290.449
714.605,288.486
716.056,285.764
717.508,278.904
718.96,283.16
720.412,277.702
721.863,281.338
723.315,286.439
724.767,287.702
726.219,285.183
727.671,279.411
729.122,281.914
730.574,284.508
732.026,281.77
733.478,277.927
734.93,280.047
736.381,281.519
737.833,284.144
739.285,287.051
740.737,285.406
742.189,287.105
743.64,290.822
745.092,287.127
746.544,275.071
747.996,280.386
749.447,291.498
750.899,288.251
752.351,280.816
753.803,278.624
755.255,279.65
756.706,281.149
758.158,276.531
759.61,280.399
761.062,284.809
762.514,283.996
763.965,284.134
765.417,291.365
766.869,286.584
768.321,276.693
769.772,284.134
771.224,283.744
772.676,282.017
774.128,294.9
775.58,282.427
777.031,287.102
778.483,281.638
779.935,288.934
781.387,293.178
782.839,290.488
784.29,296.979
785.742,297.493
787.194,285.683
788.646,288.302
790.098,292.022
791.549,287.512
793.001,289.65
794.453,289.241
795.905,292.943
797.356,289.731
798.808,289.15
800.26,288.68
801.712,290.461
803.164,295.983
804.615,302.091
806.067,288.896
807.519,293.44
808.971,295.814
810.423,294.966
811.874,294.918
813.326,298.498
814.778,287.479
816.23,297.509
817.681,294.013
819.133,300.903
820.585,309.093
822.037,304.936
823.489,299.238
824.94,298.457
826.392,298.894
827.844,303.742
829.296,306.696
830.748,299.268
832.199,293.521
833.651,293.994
835.103,311.206
836.555,306.042
838.007,308.385
839.458,315.186
840.91,314.424
842.362,306.318
843.814,303.929
845.265,302.019
846.717,303.575
848.169,308.349
849.621,323.069
851.073,317.827
852.524,313.018
853.976,320.042
855.428,318.417
856.88,321.861
858.332,322.073
859.783,321.495
861.235,316.004
862.687,322.397
864.139,325.041
865.59,323.971
867.042,326.272
868.494,311.544
869.946,308.976
871.398,309.834
872.849,317.122
874.301,318.036
875.753,316.076
877.205,315.745
878.657,318.033
880.108,311.42
881.56,313.02
883.012,312.647
884.464,313.595
885.915,311.757
887.367,309.234
888.819,313.493
890.271,311.001
891.723,313.758
893.174,321.955
894.626,325.858
896.078,328.69
897.53,326.517
898.982,321.308
900.433,318.516
901.885,314.794
903.337,322.88
904.789,327.608
906.241,328.442
907.692,329.777
909.144,326.511
910.596,328.799
912.048,325.17
913.499,332.564
914.951,330.007
916.403,327.069
917.855,321.223
919.307,314.259
920.758,322.882
922.21,334.928
923.662,331.044
925.114,332.78
926.566,331.645
928.017,331.726
929.469,339.787
930.921,336.04
932.373,333.28
933.824,318.002
935.276,333.146
936.728,340.221
938.18,336.244
939.632,338.832
941.083,338.664
942.535,332.122
943.987,334.689
945.439,342.652
946.891,336.639
948.342,332.426
949.794,333.951
951.246,334.741
952.698,337.945
954.15,345.94
955.601,334.927
957.053,330.163
958.505,334.093
959.957,336.073
961.408,332.308
962.86,330.681
964.312,345.17
965.764,345.96
967.216,341.375
968.667,334.485
970.119,341.823
971.571,339.139
973.023,339.53
974.475,343.401
975.926,336.949
977.378,340.514
978.83,339.738
980.282,342.596
981.733,342.356
983.185,346.7
984.637,345.729
986.089,342.577
987.541,341.866
988.992,350.4
990.444,346.385
991.896,354.922
993.348,346.002
994.8,349.649
996.251,354.609
997.703,347.774
999.155,359.111
1000.61,350.054
1002.06,353.327
1003.51,356.163
1004.96,354.495
1006.41,350.888
1007.87,354.672
1009.32,360.535
1010.77,361.984
1012.22,365.714
1013.67,365.071
1015.12,360.765
1016.58,364.46
1018.03,360.412
1019.48,361.269
1020.93,371.117
1022.38,376.914
1023.84,381.389
1025.29,384.545
1026.74,380.058
1028.19,381.531
1029.64,387.794
1031.09,389.207
1032.55,382.834
1034,388.371
1035.45,393.696
1036.9,396.795
1038.35,404.128
1039.8,404.253
1041.26,406.207
1042.71,415.932
1044.16,419.495
1045.61,404.843
1047.06,407.034
1048.52,414.594
1049.97,420.247
1051.42,423.652
1052.87,429.615
1054.32,426.794
1055.77,428.773
1057.23,439.032
1058.68,444.294
1060.13,451.541
1061.58,446.163
1063.03,450.206
1064.49,459.21
1065.94,463.293
1067.39,453.973
1068.84,451.83
1070.29,470.829
1071.74,474.21
1073.2,475.542
1074.65,481.63
1076.1,487.191
1077.55,491.416
1079,486.228
1080.46,483.446
1081.91,487.773
1083.36,484.355
1084.81,505.817
1086.26,508.076
1087.71,512.563
1089.17,505.924
1090.62,486.863
1092.07,497.181
1093.52,508.986
1094.97,497.944
1096.42,492.969
1097.88,501.464
1099.33,488.665
1100.78,487.271
1102.23,490.271
1103.68,490.196
1105.14,482.332
1106.59,481.204
1108.04,483.872
1109.49,479.367
1110.94,481.067
1112.39,468.672
1113.85,472.968
1115.3,471.073
1116.75,470.198
1118.2,469.839
1119.65,464.061
1121.11,462.299
1122.56,457.763
1124.01,462.326
1125.46,462.534
1126.91,455.154
1128.36,456.57
1129.82,455.362
1131.27,448.936
1132.72,450.201
1134.17,441.348
1135.62,448.346
1137.07,440.834
1138.53,438.22
1139.98,447.414
1141.43,447.778
1142.88,436.495
1144.33,438.919
1145.79,446.021
1147.24,453.086
1148.69,442.231
1150.14,437.06
1151.59,444.019
1153.04,432.251
1154.5,433.075
1155.95,438.008
1157.4,442.543
1158.85,442.248
1160.3,440.63
1161.76,440.309
1163.21,437.196
1164.66,436.355
1166.11,431.315
1167.56,438.965
1169.01,441.1
1170.47,445.173
1171.92,447.72
1173.37,443.214
1174.82,454.093
1176.27,445.99
1177.72,445.941
1179.18,461.74
1180.63,448.244
1182.08,447.325
1183.53,454.586
1184.98,452.833
1186.44,451.435
1187.89,448.803
1189.34,450.103
1190.79,451.643
1192.24,444.414
1193.69,457.031
1195.15,462.818
1196.6,459.117
1198.05,452.753
1199.5,455.828
1200.95,465.272
1202.41,465.889
1203.86,462.831
1205.31,461.34
1206.76,476.247
1208.21,473.119
1209.66,466.426
1211.12,460.173
1212.57,466.75
1214.02,466.218
1215.47,457.315
1216.92,465.827
1218.37,470.664
1219.83,471.41
1221.28,473.7
1222.73,473.638
1224.18,471.694
1225.63,478.049
1227.09,480.277
1228.54,473.065
1229.99,466.91
1231.44,474.925
1232.89,467.043
1234.34,482.07
1235.8,480.596
1237.25,477.161
1238.7,469.138
1240.15,479.846
1241.6,493.489
1243.06,489.073
1244.51,488.19
1245.96,492.126
1247.41,510.402
1248.86,501.752
1250.31,492.41
1251.77,504.828
1253.22,511.529
1254.67,511.906
1256.12,508.91
1257.57,510.836
1259.02,520.081
1260.48,525.566
1261.93,541.853
1263.38,533.039
1264.83,542.421
1266.28,543.89
1267.74,555.109
1269.19,559.858
1270.64,562.578
1272.09,576.957
1273.54,594.562
1274.99,596.213
1276.45,594.212
1277.9,588.043
1279.35,604.983
1280.8,625.468
1282.25,628.734
1283.71,634.983
1285.16,636.403
1286.61,641.64
1288.06,661.083
1289.51,674.951
1290.96,676.22
1292.42,696.879
1293.87,724.998
1295.32,731.632
1296.77,759.138
1298.22,783.055
1299.67,799.098
1301.13,811.111
1302.58,836.665
1304.03,869.146
1305.48,887.048
1306.93,913.556
1308.39,952.144
1309.84,987.692
1311.29,1023.29
1312.74,1068.59
1314.19,1128.26
1315.64,1178.5
1317.1,1223.35
1318.55,1268.73
1320,1312.93
1321.45,1368.69
1322.9,1442.47
1324.36,1478.22
1325.81,1536.14
1327.26,1585.08
1328.71,1635.73
1330.16,1675.12
1331.61,1704.89
1333.07,1729.74
1334.52,1764.22
1335.97,1783.25
1337.42,1755.06
1338.87,1756.65
1340.33,1726.71
1341.78,1695.18
1343.23,1667.62
1344.68,1619.37
1346.13,1584.37
1347.58,1537.1
1349.04,1467.17
1350.49,1402.12
1351.94,1343.47
1353.39,1272.57
1354.84,1217.65
1356.29,1189.86
1357.75,1135.95
1359.2,1088.45
1360.65,1056.5
1362.1,1000.95
1363.55,954.674
1365.01,923.741
1366.46,894.895
1367.91,867.783
1369.36,848.58
1370.81,829.125
1372.26,810.086
1373.72,793.324
1375.17,778.852
1376.62,745.07
1378.07,737.743
1379.52,722.353
1380.98,714.884
1382.43,711.457
1383.88,697.855
1385.33,679.611
1386.78,679.735
1388.23,681.586
1389.69,664.211
1391.14,659.64
1392.59,678.408
1394.04,681.151
1395.49,655.939
1396.94,654.741
1398.4,644.032
1399.85,645.199
1401.3,648.696
1402.75,641.187
1404.2,638.263
1405.66,636.829
1407.11,646.198
1408.56,654.674
1410.01,647.729
1411.46,650.809
1412.91,634.637
1414.37,645.417
1415.82,647.059
1417.27,641.911
1418.72,637.664
1420.17,638.702
1421.63,645.856
1423.08,641.706
1424.53,650.334
1425.98,639.301
1427.43,644.232
1428.88,642.847
1430.34,661.238
1431.79,665.125
1433.24,662.831
1434.69,667.557
1436.14,673.455
1437.59,683.352
1439.05,679.779
1440.5,680.223
1441.95,693.262
1443.4,700.953
1444.85,700.5
1446.31,684.785
1447.76,697.385
1449.21,705.48
1450.66,714.648
1452.11,712.043
1453.56,710.974
1455.02,718.203
1456.47,730.785
1457.92,739.767
1459.37,750.232
1460.82,746.743
1462.28,750.533
1463.73,784.066
1465.18,791.726
1466.63,795.947
1468.08,792.898
1469.53,797.726
1470.99,803.323
1472.44,810.437
1473.89,831.29
1475.34,849.242
1476.79,853.152
1478.24,867.477
1479.7,867.699
1481.15,901.521
1482.6,899.919
1484.05,919.827
1485.5,932.235
1486.96,936.025
1488.41,952.858
1489.86,975.292
1491.31,985.224
1492.76,1006.91
1494.21,1028.55
1495.67,1051.23
1497.12,1064.93
1498.57,1091.99
1500.02,1108.31
1501.47,1147.12
1502.93,1155.17
1504.38,1191.96
1505.83,1229.8
1507.28,1278.26
1508.73,1315.22
1510.18,1356.91
1511.64,1398.79
1513.09,1447.88
1514.54,1510.36
1515.99,1567.64
1517.44,1625.73
1518.89,1669.23
1520.35,1740.3
1521.8,1810.36
1523.25,1916.31
1524.7,2010.11
1526.15,2153.72
1527.61,2255.85
1529.06,2416.37
1530.51,2584.36
1531.96,2774.61
1533.41,2994.02
1534.86,3203.92
1536.32,3457.94
1537.77,3775.9
1539.22,4124.91
1540.67,4521.58
1542.12,4930.4
1543.58,5386.76
1545.03,5876.44
1546.48,6411.78
1547.93,6999.94
1549.38,7619.3
1550.83,8273.14
1552.29,8977.62
1553.74,9681.16
1555.19,10350.8
1556.64,11033.8
1558.09,11746.6
1559.54,12374
1561,13016.4
1562.45,13540.8
1563.9,13924
1565.35,14147
1566.8,14737.6
1568.26,14155.6
1569.71,13918.9
1571.16,13604.7
1572.61,13112.8
1574.06,12475.8
1575.51,11714.9
1576.97,10946
1578.42,10164.9
1579.87,9397.04
1581.32,8636.34
1582.77,7896.54
1584.23,7226.28
1585.68,6530.85
1587.13,5936.08
1588.58,5448.67
1590.03,4967.64
1591.48,4536.67
1592.94,4206.86
1594.39,3927.77
1595.84,3638.49
1597.29,3409.91
1598.74,3187.38
1600.2,2993.3
1601.65,2856.46
1603.1,2718.59
1604.55,2571.52
1606,2459.85
1607.45,2342.52
1608.91,2223.28
1610.36,2111.69
1611.81,1989.92
1613.26,1937.87
1614.71,1839.14
1616.16,1760.53
1617.62,1665.47
1619.07,1590.59
1620.52,1533.83
1621.97,1461.93
1623.42,1393.05
1624.88,1353.32
1626.33,1308.15
1627.78,1255.55
1629.23,1193.46
1630.68,1154.77
1632.13,1133.73
1633.59,1109.08
1635.04,1071.23
1636.49,1043.8
1637.94,1020.06
1639.39,998.334
1640.85,979.748
1642.3,976.224
1643.75,948.776
1645.2,919.712
1646.65,908.151
1648.1,891.58
1649.56,863.257
1651.01,849.739
1652.46,840.965
1653.91,821.585
1655.36,807.175
1656.81,801.086
1658.27,795.348
1659.72,790.728
1661.17,777.125
1662.62,753.99
1664.07,749.096
1665.53,734.668
1666.98,735.333
1668.43,734.619
1669.88,712.012
1671.33,702.036
1672.78,695.241
1674.24,686.192
1675.69,682.185
1677.14,669.421
1678.59,668.037
1680.04,666.208
1681.5,662.818
1682.95,650.76
1684.4,645.15
1685.85,634.229
1687.3,639.133
1688.75,624.984
1690.21,624.434
1691.66,614.125
1693.11,613.925
1694.56,606.008
1696.01,600.776
1697.46,602.71
1698.92,599.95
1700.37,601.166
1701.82,601.206
1703.27,594.585
1704.72,590.657
1706.18,590.728
1707.63,592.53
1709.08,587.346
1710.53,579.562
1711.98,583.064
1713.43,586.126
1714.89,581.95
1716.34,570.713
1717.79,563.785
1719.24,558.424
1720.69,566.932
1722.15,565.995
1723.6,573.433
1725.05,563.311
1726.5,560.16
1727.95,559.813
1729.4,559.192
1730.86,570.265
1732.31,567.22
1733.76,561.735
1735.21,559.028
1736.66,558.704
1738.11,554.83
1739.57,557.421
1741.02,548.559
1742.47,550.285
1743.92,553.037
1745.37,548.044
1746.83,549.451
1748.28,545.35
1749.73,539.195
1751.18,551.563
1752.63,536.257
1754.08,520.445
1755.54,531.136
1756.99,540.553
1758.44,533.741
1759.89,517.418
1761.34,524.199
1762.8,531.007
1764.25,526.431
1765.7,522.029
1767.15,523.897
1768.6,515.634
1770.05,505.276
1771.51,509.452
1772.96,511.933
1774.41,506.212
1775.86,511.524
1777.31,506.541
1778.76,498.632
1780.22,504.264
1781.67,497.43
1783.12,492.534
1784.57,488.571
1786.02,479.03
1787.48,499.737
1788.93,475.67
1790.38,489.459
1791.83,485.003
1793.28,491.021
1794.73,481.244
1796.19,480.064
1797.64,483.636
1799.09,479.052
1800.54,475.369
1801.99,483.494
1803.45,482.425
1804.9,468.405
1806.35,467.509
1807.8,470.78
1809.25,467.944
1810.7,477.454
1812.16,475.866
1813.61,466.071
1815.06,465.636
1816.51,464.247
1817.96,459.84
1819.41,465.343
1820.87,473.931
1822.32,475.027
1823.77,477.175
1825.22,483.446
1826.67,481.946
1828.13,480.259
1829.58,494.527
1831.03,470.305
1832.48,467.394
1833.93,468.006
1835.38,472.772
1836.84,469.102
1838.29,482.287
1839.74,484.595
1841.19,486.779
1842.64,490.458
1844.1,483.636
1845.55,485.687
1847,491.558
1848.45,498.69
1849.9,511.897
1851.35,514.24
1852.81,507.22
1854.26,501.663
1855.71,503.35
1857.16,505.768
1858.61,504.539
1860.07,503.274
1861.52,509.749
1862.97,511.249
1864.42,508.116
1865.87,509.11
1867.32,510.504
1868.78,511.502
1870.23,508.373
1871.68,516.526
1873.13,503.052
1874.58,506.439
1876.03,500.754
1877.49,493.644
1878.94,491.412
1880.39,483.934
1881.84,484.648
1883.29,491.94
1884.75,500.336
1886.2,475.621
1887.65,484.741
1889.1,490.875
1890.55,481.386
1892,477.796
1893.46,477.858
1894.91,473.358
1896.36,466.617
1897.81,457.528
1899.26,449.487
1900.72,460.408
1902.17,464.584
1903.62,458.766
1905.07,458.354
1906.52,453.432
1907.97,454.661
1909.43,449.371
1910.88,453.188
1912.33,448.195
1913.78,446.762
1915.23,446.016
1916.68,440.766
1918.14,432.016
1919.59,436.442
1921.04,442.215
1922.49,443.164
1923.94,451.887
1925.4,446.411
1926.85,437.054
1928.3,423.123
1929.75,441.605
1931.2,440.364
1932.65,434.962
1934.11,443.877
1935.56,445.324
1937.01,439.486
1938.46,431.781
1939.91,424.687
1941.37,430.151
1942.82,440.796
1944.27,447.165
1945.72,448.173
1947.17,443.404
1948.62,445.754
1950.08,445.595
1951.53,437.102
1952.98,449.833
1954.43,447.312
1955.88,444.214
1957.33,445.408
1958.79,444.174
1960.24,444.006
1961.69,444.387
1963.14,449.385
1964.59,449.3
1966.05,442.283
1967.5,444.756
1968.95,455.061
1970.4,450.729
1971.85,444.259
1973.3,442.18
1974.76,440.439
1976.21,441.892
1977.66,453.991
1979.11,462.61
1980.56,460.657
1982.02,455.123
1983.47,455.194
1984.92,458.669
1986.37,455.487
1987.82,466.408
1989.27,463.555
1990.73,460.768
1992.18,465.312
1993.63,464.345
1995.08,458.562
1996.53,471.401
1997.98,466.36
1999.44,468.987
2000.89,467.252
2002.34,455.891
2003.79,475.373
2005.24,469.728
2006.7,459.698
2008.15,457.87
2009.6,454.679
2011.05,447.583
2012.5,454.861
2013.95,454.315
2015.41,432.909
2016.86,476.243
2018.31,449.016
2019.76,440.033
2021.21,454.701
2022.67,449.589
2024.12,445.275
2025.57,444.707
2027.02,452.93
2028.47,448.492
2029.92,475.701
2031.38,450.001
2032.83,442.371
2034.28,431.973
2035.73,432.996
2037.18,440.525
2038.63,424.923
2040.09,430.176
2041.54,433.814
2042.99,427.442
2044.44,424.856
2045.89,428.197
2047.35,422.331
2048.8,427.522
2050.25,418.055
2051.7,414.683
2053.15,414.439
2054.6,413
2056.06,413.626
2057.51,417.145
2058.96,416.155
2060.41,403.992
2061.86,405.297
2063.32,406.397
2064.77,419.452
2066.22,412.078
2067.67,408.075
2069.12,411.32
2070.57,409.221
2072.03,404.859
2073.48,402.259
2074.93,396.408
2076.38,396.793
2077.83,397.354
2079.28,399.273
2080.74,396.641
2082.19,399.81
2083.64,397.76
2085.09,394.795
2086.54,398.534
2088,401.784
2089.45,399.182
2090.9,397.859
2092.35,397.389
2093.8,395.059
2095.25,391.072
2096.71,393.172
2098.16,393.124
2099.61,393.567
2101.06,388.694
2102.51,390.01
2103.97,401.189
2105.42,407.934
2106.87,400.207
2108.32,398.419
2109.77,395.254
2111.22,391.486
2112.68,399.98
2114.13,408.289
2115.58,397.586
2117.03,397.133
2118.48,411.842
2119.94,412.291
2121.39,405.734
2122.84,401.371
2124.29,403.606
2125.74,409.63
2127.19,411.158
2128.65,396.383
2130.1,402.421
2131.55,415.348
2133,406.909
2134.45,402.602
2135.9,409.505
2137.36,403.183
2138.81,399.6
2140.26,406.676
2141.71,416.078
2143.16,406.373
2144.62,411.572
2146.07,411.88
2147.52,409.866
2148.97,415.337
2150.42,413.603
2151.87,418.103
2153.33,423.715
2154.78,417.214
2156.23,415.309
2157.68,416.806
2159.13,420.673
2160.58,421.743
2162.04,422.888
2163.49,416.35
2164.94,414.084
2166.39,418.549
2167.84,425.514
2169.3,422.067
2170.75,417.097
2172.2,415.563
2173.65,427.497
2175.1,425.235
2176.55,421.194
2178.01,427.387
2179.46,428.675
2180.91,421.052
2182.36,421.651
2183.81,424.473
2185.27,423.632
2186.72,439.833
2188.17,443.747
2189.62,443.085
2191.07,439.136
2192.52,426.558
2193.98,433.763
2195.43,422.433
2196.88,428.116
2198.33,444.25
2199.78,441.488
2201.24,454.24
2202.69,438.907
2204.14,436.695
2205.59,439.722
2207.04,446.052
2208.49,430.952
2209.95,434.913
2211.4,444.787
2212.85,431.066
2214.3,439.105
2215.75,420.239
2217.2,430.85
2218.66,438.475
2220.11,432.982
2221.56,442.631
2223.01,443.386
2224.46,439.969
2225.92,426.215
2227.37,426.217
2228.82,428.415
2230.27,444.831
2231.72,446.384
2233.17,436.836
2234.63,449.096
2236.08,445.444
2237.53,435.813
2238.98,445.204
2240.43,446.97
2241.89,452.18
2243.34,449.655
2244.79,449.349
2246.24,456.538
2247.69,458.207
2249.14,454.688
2250.6,452.709
2252.05,450.183
2253.5,453.383
2254.95,451.599
2256.4,447.072
2257.85,458.913
2259.31,466.866
2260.76,456.192
2262.21,458.132
2263.66,456.33
2265.11,458.283
2266.57,465.148
2268.02,462.716
2269.47,459.818
2270.92,458.531
2272.37,454.235
2273.82,468.574
2275.28,462.432
2276.73,458.811
2278.18,460.848
2279.63,461.456
2281.08,468.858
2282.54,474.002
2283.99,469.861
2285.44,485.021
2286.89,481.169
2288.34,479.598
2289.79,483.113
2291.25,485.758
2292.7,481.253
2294.15,476.008
2295.6,483.872
2297.05,479.767
2298.5,487.404
2299.96,493.014
2301.41,499.325
2302.86,486.752
2304.31,477.814
2305.76,506.94
2307.22,509.43
2308.67,496.653
2310.12,493.169
2311.57,491.678
2313.02,509.847
2314.47,519.175
2315.93,503.789
2317.38,504.499
2318.83,511.915
2320.28,494.762
2321.73,498.845
2323.19,510.233
2324.64,519.251
2326.09,521.47
2327.54,523.347
2328.99,518.088
2330.44,520.382
2331.9,524.346
2333.35,523.995
2334.8,530.106
2336.25,532.036
2337.7,533.647
2339.16,532.01
2340.61,532.099
2342.06,542.63
2343.51,547.077
2344.96,546.154
2346.41,553.254
2347.87,544.56
2349.32,548.639
2350.77,565.889
2352.22,568.667
2353.67,570.695
2355.12,571.898
2356.58,573.194
2358.03,568.512
2359.48,581.04
2360.93,567.527
2362.38,577.281
2363.84,585.398
2365.29,587.045
2366.74,585.873
2368.19,595.432
2369.64,609.11
2371.09,620.2
2372.55,632.005
2374,632.768
2375.45,647.059
2376.9,646.881
2378.35,652.468
2379.8,670.131
2381.26,668.556
2382.71,674.223
2384.16,675.519
2385.61,686.601
2387.06,697.03
2388.52,693.79
2389.97,721.012
2391.42,734.171
2392.87,748.43
2394.32,759.804
2395.77,783.742
2397.23,772.621
2398.68,778.213
2400.13,804.556
2401.58,824.807
2403.03,844.378
2404.49,848.279
2405.94,863.652
2407.39,886.671
2408.84,896.705
2410.29,910.046
2411.74,920.164
2413.2,932.781
2414.65,940.992
2416.1,971.711
2417.55,991.034
2419,990.097
2420.46,991.699
2421.91,996.51
2423.36,982.348
2424.81,991.912
2426.26,1022.24
2427.71,1017.15
2429.17,1020.05
2430.62,1044.59
2432.07,1031.23
2433.52,1033.8
2434.97,1005.08
2436.42,1014.16
2437.88,1026.41
2439.33,1014.22
2440.78,1010.73
2442.23,997.619
2443.68,986.929
2445.14,996.359
2446.59,982.317
2448.04,987.78
2449.49,986.929
2450.94,975.297
2452.39,958.384
2453.85,955.535
2455.3,946.929
2456.75,942.154
2458.2,934.725
2459.65,930.03
2461.1,922.681
2462.56,912.709
2464.01,918.3
2465.46,908.785
2466.91,888.81
2468.36,896.466
2469.82,877.418
2471.27,905.35
2472.72,900.779
2474.17,882.3
2475.62,873.908
2477.07,864.371
2478.53,860.86
2479.98,852.623
2481.43,856.449
2482.88,874.844
2484.33,875.776
2485.79,877.023
2487.24,859.56
2488.69,859.263
2490.14,856.799
2491.59,868.116
2493.04,866.079
2494.5,865.258
2495.95,856.183
2497.4,868.649
2498.85,859.32
2500.3,874.902
2501.76,881.612
2503.21,877.605
2504.66,891.429
2506.11,882.211
2507.56,874.325
2509.01,868.564
2510.47,900.318
2511.92,891.841
2513.37,892.174
2514.82,910.982
2516.27,915.34
2517.72,922.33
2519.18,919.064
2520.63,910.414
2522.08,923.506
2523.53,936.314
2524.98,943.938
2526.44,932.777
2527.89,945.705
2529.34,962.475
2530.79,979.535
2532.24,985.548
2533.69,988.415
2535.15,1002.91
2536.6,998.631
2538.05,1041.35
2539.5,1029.56
2540.95,1040.69
2542.41,1053.41
2543.86,1069.26
2545.31,1082.14
2546.76,1093.55
2548.21,1086.05
2549.66,1107.12
2551.12,1126.52
2552.57,1160.63
2554.02,1179.86
2555.47,1182.21
2556.92,1193.86
2558.37,1210.61
2559.83,1236.14
2561.28,1248.88
2562.73,1262.37
2564.18,1310.59
2565.63,1340.95
2567.09,1350.64
2568.54,1372.3
2569.99,1396.27
2571.44,1427.47
2572.89,1446.16
2574.34,1478.16
2575.8,1483.91
2577.25,1559.4
2578.7,1609.25
2580.15,1634.67
2581.6,1662.86
2583.06,1696.06
2584.51,1733.9
2585.96,1789.1
2587.41,1856.96
2588.86,1902.3
2590.31,1945.67
2591.77,1987.06
2593.22,2064.05
2594.67,2119.45
2596.12,2185.14
2597.57,2272.19
2599.02,2340.27
2600.48,2410.99
2601.93,2490.84
2603.38,2571.21
2604.83,2682.72
2606.28,2768.8
2607.74,2889.1
2609.19,2968.45
2610.64,3090.62
2612.09,3179.03
2613.54,3319.35
2614.99,3457.98
2616.45,3598.6
2617.9,3749.51
2619.35,3903.04
2620.8,4047.63
2622.25,4221.53
2623.71,4390.3
2625.16,4586.07
2626.61,4761.98
2628.06,4936.26
2629.51,5180.08
2630.96,5355.47
2632.42,5601.33
2633.87,5796.2
2635.32,6013.39
2636.77,6224.02
2638.22,6462.95
2639.68,6665.32
2641.13,6833.43
2642.58,7031.67
2644.03,7255.35
2645.48,7441.69
2646.93,7665.23
2648.39,7774.49
2649.84,7983.03
2651.29,8126.73
2652.74,8237.5
2654.19,8335.71
2655.64,8483.45
2657.1,8531.96
2658.55,8589.92
2660,8644.19
2661.45,8628.75
2662.9,8570.04
2664.36,8523.13
2665.81,8473.11
2667.26,8358.35
2668.71,8300.3
2670.16,8211.19
2671.61,8093
2673.07,7897.6
2674.52,7727.05
2675.97,7478.13
2677.42,7313.44
2678.87,7104.41
2680.32,6923.92
2681.78,6686.4
2683.23,6448.66
2684.68,6218.73
2686.13,6007.18
2687.58,5763.05
2689.04,5581.63
2690.49,5341.62
2691.94,5140.01
2693.39,4918.16
2694.84,4702.83
2696.29,4506.67
2697.75,4307.82
2699.2,4151.28
2700.65,3969.41
2702.1,3780.04
2703.55,3616.12
2705.01,3446.76
2706.46,3329.36
2707.91,3173.29
2709.36,3049.46
2710.81,2912.34
2712.26,2774.36
2713.72,2686.81
2715.17,2589.93
2716.62,2481.94
2718.07,2365.89
2719.52,2293.38
2720.98,2217.37
2722.43,2120.77
2723.88,2051.41
2725.33,1989.57
2726.78,1911.04
2728.23,1838.95
2729.69,1809.65
2731.14,1735.67
2732.59,1678.29
2734.04,1640.57
2735.49,1593.34
2736.94,1540.71
2738.4,1500.92
2739.85,1459.52
2741.3,1404.55
2742.75,1388.11
2744.2,1377.61
2745.66,1312.1
2747.11,1281.91
2748.56,1258.33
2750.01,1241.12
2751.46,1220.97
2752.91,1204.15
2754.37,1167.73
2755.82,1148.28
2757.27,1123.51
2758.72,1107.2
2760.17,1063.04
2761.63,1061.9
2763.08,1049.96
2764.53,1018.14
2765.98,1020.66
2767.43,1003.66
2768.88,968.986
2770.34,971.041
2771.79,948.745
2773.24,931.326
2774.69,918.358
2776.14,909.762
2777.59,920.781
2779.05,888.602
2780.5,880.147
2781.95,875.394
2783.4,879.863
2784.85,869.496
2786.31,850.094
2787.76,835.981
2789.21,835.404
2790.66,822.725
2792.11,812.318
2793.56,797.074
2795.02,795.587
2796.47,792.663
2797.92,791.518
2799.37,780.343
2800.82,780.658
2802.28,778.83
2803.73,759.569
2805.18,754.226
2806.63,755.362
2808.08,744.76
2809.53,728.645
2810.99,733.474
2812.44,731.876
2813.89,711.142
2815.34,714.045
2816.79,703.846
2818.24,710.934
2819.7,710.153
2821.15,703.833
2822.6,693.963
2824.05,689.712
2825.5,687.448
2826.96,694.376
2828.41,684.759
2829.86,691.216
2831.31,668.219
2832.76,660.404
2834.21,668.831
2835.67,673.269
2837.12,671.813
2838.57,671.103
2840.02,652.287
2841.47,663.701
2842.93,639.536
2844.38,648.718
2845.83,642.71
2847.28,635.329
2848.73,631.34
2850.18,641.609
2851.64,639.088
2853.09,642.532
2854.54,638.698
2855.99,632.928
2857.44,623.431
2858.9,638.529
2860.35,629.165
2861.8,623.848
2863.25,634.406
2864.7,624.842
2866.15,627.141
2867.61,633.208
2869.06,638.742
2870.51,634.504
2871.96,661.855
2873.41,641.538
2874.86,641.52
2876.32,624.962
2877.77,632.387
2879.22,627.576
2880.67,635.915
2882.12,646.624
2883.58,644.986
2885.03,643.02
2886.48,638.729
2887.93,621.044
2889.38,631.717
2890.83,625.956
2892.29,648.292
2893.74,638.369
2895.19,628.53
2896.64,626.138
2898.09,626.28
2899.54,628.548
2901,621.301
2902.45,621.873
2903.9,648.55
2905.35,622.694
2906.8,635.254
2908.26,635.884
2909.71,633.11
2911.16,622.654
2912.61,616.757
2914.06,608.506
2915.51,614.014
2916.97,606.585
2918.42,613.85
2919.87,609.314
2921.32,611.662
2922.77,601.987
2924.23,597.065
2925.68,589.707
2927.13,590.413
2928.58,602.169
2930.03,586.823
2931.48,586.268
2932.94,568.831
2934.39,576.527
2935.84,571.627
2937.29,567.34
2938.74,556.986
2940.2,560.213
2941.65,547.596
2943.1,531.597
2944.55,534.562
2946,537.238
2947.45,519.233
2948.91,511.369
2950.36,517.054
2951.81,522.601
2953.26,503.501
2954.71,507.828
2956.16,514.56
2957.62,503.687
2959.07,494.057
2960.52,497.989
2961.97,486.889
2963.42,485.807
2964.88,469.426
2966.33,470.953
2967.78,481.648
2969.23,473.997
2970.68,468.148
2972.13,470.775
2973.59,459.081
2975.04,456.299
2976.49,461.917
2977.94,458.567
2979.39,454.306
2980.84,451.812
2982.3,453.126
2983.75,444.117
2985.2,441.764
2986.65,433.163
2988.1,443.497
2989.56,443.886
2991.01,442.232
2992.46,445.484
2993.91,439.247
2995.36,434.028
2996.81,427.435
2998.27,430.117
2999.72,432.103
3001.17,422.329
3002.62,420.866
3004.07,417.465
3005.53,431.736
3006.98,427.431
3008.43,421.266
3009.88,422.088
3011.33,419.974
3012.78,421.637
3014.24,421.55
3015.69,405.812
3017.14,416.068
3018.59,412.435
3020.04,408.547
3021.5,416.135
3022.95,412.447
3024.4,411.419
3025.85,416.995
3027.3,415.499
3028.75,406.808
3030.21,426.495
3031.66,404.433
3033.11,413.395
3034.56,417.895
3036.01,408.353
3037.46,409.109
3038.92,411.596
3040.37,404.626
3041.82,410.756
3043.27,416.98
3044.72,402.091
3046.18,407.181
3047.63,410.056
3049.08,412.008
3050.53,413.259
3051.98,412.696
3053.43,410.285
3054.89,410.15
3056.34,411.212
3057.79,411.783
3059.24,419.871
3060.69,417.619
3062.15,416.241
3063.6,415.351
3065.05,418.224
3066.5,423.953
3067.95,419.301
3069.4,412.792
3070.86,417.745
3072.31,420.613
3073.76,421.064
3075.21,434.481
3076.66,420.362
3078.11,436.8
3079.57,435.764
3081.02,436.092
3082.47,435.957
3083.92,442.435
3085.37,444.041
3086.83,453.339
3088.28,446.238
3089.73,447.756
3091.18,447.929
3092.63,459.618
3094.08,472.036
3095.54,470.256
3096.99,473.19
3098.44,490.671
3099.89,485.372
3101.34,485.261
3102.8,506.066
3104.25,518.279
3105.7,524.993
3107.15,534.326
3108.6,531.025
3110.05,534.531
3111.51,542.093
3112.96,550.023
3114.41,575.732
3115.86,571.703
3117.31,576.429
3118.76,567.784
3120.22,589.561
3121.67,600.083
3123.12,599.595
3124.57,611.298
3126.02,627.51
3127.48,624.203
3128.93,660.111
3130.38,652.007
3131.83,646.912
3133.28,651.594
3134.73,665.396
3136.19,658.628
3137.64,662.21
3139.09,654.173
3140.54,676.114
3141.99,679.531
3143.45,684.044
3144.9,676.327
3146.35,683.88
3147.8,690.377
3149.25,702.737
3150.7,693.084
3152.16,713.264
3153.61,707.437
3155.06,692.965
3156.51,698.854
3157.96,702.542
3159.42,711.959
3160.87,690.058
3162.32,707.286
3163.77,710.747
3165.22,709.203
3166.67,720.08
3168.13,721.545
3169.58,708.786
3171.03,702.018
3172.48,717.648
3173.93,716.228
3175.38,730.443
3176.84,745.9
3178.29,745.115
3179.74,760.936
3181.19,762.174
3182.64,770.974
3184.1,792.778
3185.55,780.014
3187,795.751
3188.45,800.966
3189.9,798.143
3191.35,819.295
3192.81,813.521
3194.26,814.271
3195.71,827.585
3197.16,828.383
3198.61,819.912
3200.06,844.879
3201.52,841.04
3202.97,843.135
3204.42,824.687
3205.87,833.443
3207.32,837.33
3208.78,822.672
3210.23,834.89
3211.68,798.245
3213.13,775.324
3214.58,769.652
3216.03,753.48
3217.49,748.572
3218.94,731.299
3220.39,716.366
3221.84,698.055
3223.29,685.655
3224.75,654.829
3226.2,640.61
3227.65,633.86
3229.1,614.83
3230.55,595.375
3232,583.783
3233.46,564.855
3234.91,548.625
3236.36,537.926
3237.81,539.248
3239.26,506.008
3240.72,484.728
3242.17,480.312
3243.62,480.153
3245.07,466.888
3246.52,452.473
3247.97,434.74
3249.43,447.711
3250.88,420.865
3252.33,409.404
3253.78,406.115
3255.23,400.51
3256.68,391.988
3258.14,407.709
3259.59,392.999
3261.04,385.774
3262.49,377.139
3263.94,376.659
3265.4,368.903
3266.85,357.417
3268.3,370.827
3269.75,369.851
3271.2,358.643
3272.65,362.019
3274.11,355.967
3275.56,354.152
3277.01,351.974
3278.46,349.816
3279.91,343.875
3281.37,344.431
3282.82,350.588
3284.27,353.467
3285.72,332.992
3287.17,341.482
3288.62,339.275
3290.08,336.442
3291.53,332.569
3292.98,325.237
3294.43,338.372
3295.88,330.23
3297.33,334.683
3298.79,334.228
3300.24,342.056
3301.69,334.193
3303.14,334.531
3304.59,328.094
3306.05,352.2
3307.5,334.579
3308.95,330.972
3310.4,332.356
3311.85,327.402
3313.3,327.168
3314.76,324.495
3316.21,331.199
3317.66,328.723
3319.11,321.572
3320.56,327.93
3322.02,322.897
3323.47,325.227
3324.92,328.014
3326.37,330.482
3327.82,330.307
3329.27,327.46
3330.73,324.801
3332.18,327.772
3333.63,331.612
3335.08,316.648
3336.53,314.633
3337.98,330.847
3339.44,319.379
3340.89,319.849
3342.34,323.086
3343.79,327.2
3345.24,322.986
3346.7,320.704
3348.15,317.504
3349.6,320.518
3351.05,322.228
3352.5,311.853
3353.95,323.973
3355.41,317.126
3356.86,305.413
3358.31,313.907
3359.76,325.991
3361.21,319.872
3362.67,322.958
3364.12,315.591
3365.57,318.342
3367.02,320.958
3368.47,313.5
3369.92,318.805
3371.38,323.686
3372.83,318.898
3374.28,304.811
3375.73,309.382
3377.18,318.257
3378.63,320.918
3380.09,324.104
3381.54,309.039
3382.99,308.79
3384.44,308.66
3385.89,305.937
3387.35,314.831
3388.8,307.478
3390.25,311.641
3391.7,306.935
3393.15,305.324
3394.6,310.061
3396.06,313.917
3397.51,315.972
3398.96,319.831
3400.41,310.231
3401.86,308.41
3403.32,312.547
3404.77,315.041
3406.22,322.774
3407.67,306.489
3409.12,310.795
3410.57,307.282
3412.03,304.349
3413.48,297.845
3414.93,315.274
3416.38,314.039
3417.83,308.365
3419.28,307.322
3420.74,322.081
3422.19,305.973
3423.64,316.804
3425.09,310.792
3426.54,304.844
3428,295.594
3429.45,310.544
3430.9,312.85
3432.35,315.413
3433.8,315.737
3435.25,301.702
3436.71,303.545
3438.16,303.527
3439.61,314.476
3441.06,312.297
3442.51,303.573
3443.97,299.89
3445.42,296.375
3446.87,311.004
3448.32,301.815
3449.77,299.104
3451.22,301.444
3452.68,315.844
3454.13,295.723
3455.58,297.193
3457.03,312.57
3458.48,304.606
3459.94,305.336
3461.39,298.642
3462.84,304.486
3464.29,307.023
3465.74,305.675
3467.19,305.826
3468.65,294.275
3470.1,309.201
3471.55,304.351
3473,295.802
3474.45,288.485
3475.9,306.097
3477.36,313.178
3478.81,315.328
3480.26,310.694
3481.71,296.692
3483.16,304.647
3484.62,290.367
3486.07,308.505
3487.52,300.007
3488.97,293.066
3490.42,302.417
3491.87,304.82
3493.33,308.993
3494.78,302.011
3496.23,302.071
3497.68,303.248
3499.13,302.687
3500.58,307.131
3502.04,313.638
3503.49,302.046
3504.94,294.711
3506.39,291.165
3507.84,305.667
3509.3,316.221
3510.75,317.561
3512.2,300.865
3513.65,301.785
3515.1,307.693
3516.55,303.321
3518.01,308.315
3519.46,305.009
3520.91,303.056
3522.36,302.189
3523.81,303.899
3525.27,304.334
3526.72,297.445
3528.17,306.711
3529.62,300.373
3531.07,305.658
3532.52,309.414
3533.98,307.041
3535.43,311.44
3536.88,306.11
3538.33,293.865
3539.78,303.825
3541.24,306.493
3542.69,298.523
3544.14,307.142
3545.59,308.964
3547.04,302.558
3548.49,299.087
3549.95,305.686
3551.4,299.548
3552.85,294.747
3554.3,296.382
3555.75,307.825
3557.2,311.189
3558.66,300.115
3560.11,297.771
3561.56,301.034
3563.01,301.618
3564.46,303.494
3565.92,303.448
3567.37,300.862
3568.82,302.106
3570.27,302.69
3571.72,295.38
3573.17,298.714
3574.63,304.882
3576.08,303.255
3577.53,310.642
3578.98,289.824
3580.43,298.049
3581.89,295.878
3583.34,296.724
3584.79,292.326
3586.24,306.078
3587.69,296.738
3589.14,304.965
3590.6,305.637
3592.05,297.622
3593.5,298.389
3594.95,295.857
3596.4,292.402
3597.85,292.717
3599.31,303.236
3600.76,304.621
3602.21,294.316
3603.66,304.073
3605.11,286.147
3606.57,303.588
3608.02,302.462
3609.47,299.656
3610.92,301.982
3612.37,310.965
3613.82,298.429
3615.28,300.189
3616.73,293.478
3618.18,311.132
3619.63,292.764
3621.08,305.678
3622.54,302.197
3623.99,305.125
3625.44,307.769
3626.89,304.01
3628.34,294.929
3629.79,297.144
3631.25,298.28
3632.7,301.646
3634.15,298.179
3635.6,296.113
3637.05,293.128
3638.5,301.309
3639.96,298.211
3641.41,302.35
3642.86,299.953
3644.31,294.512
3645.76,301.945
3647.22,298.286
3648.67,298.349
3650.12,293.233
3651.57,295.389
3653.02,290.054
3654.47,301.063
3655.93,313.515
3657.38,301.73
3658.83,305.099
3660.28,301.393
3661.73,301.291
3663.19,295.969
3664.64,305.051
3666.09,289.545
3667.54,299.713
3668.99,301.585
3670.44,309.189
3671.9,301.124
3673.35,297.605
3674.8,310.611
3676.25,306.241
3677.7,292.347
3679.16,301.027
3680.61,301.396
3682.06,308.894
3683.51,301.581
3684.96,304.488
3686.41,304.361
3687.87,300.751
3689.32,305.764
3690.77,294.261
3692.22,306.951
3693.67,298.383
3695.12,300.82
3696.58,303.559
3698.03,306.58
3699.48,306.798
3700.93,306.521
3702.38,300.892
3703.84,310.093
3705.29,303.913
3706.74,295.963
3708.19,304.176
3709.64,318.432
3711.09,310.715
3712.55,307.524
3714,299.931
3715.45,302.17
3716.9,304.896
3718.35,308.103
3719.8,311.554
3721.26,304.754
3722.71,298.108
3724.16,304.62
3725.61,309.674
3727.06,309.502
3728.52,304.339
3729.97,302.577
3731.42,309.438
3732.87,307.409
3734.32,304.944
3735.77,315.672
3737.23,313.991
3738.68,308.207
3740.13,297.074
3741.58,312.254
3743.03,300.357
3744.49,302.492
3745.94,317.365
3747.39,308.703
3748.84,311.853
3750.29,315.846
3751.74,305.917
3753.2,306.462
3754.65,306.433
3756.1,298.948
3757.55,308.496
3759,304.495
3760.46,310.789
3761.91,313.548
3763.36,315.29
3764.81,316.288
3766.26,318.23
3767.71,302.681
3769.17,307.887
3770.62,315.001
3772.07,299.703
3773.52,303.872
3774.97,310.214
3776.42,302.239
3777.88,308.688
3779.33,309.704
3780.78,317.269
3782.23,317.881
3783.68,318.739
3785.14,325.742
3786.59,310.563
3788.04,307.308
3789.49,302.784
3790.94,316.14
3792.39,316.383
3793.85,313.078
3795.3,318.293
3796.75,320.212
3798.2,317.154
3799.65,314.168
3801.1,315.235
3802.56,296.689
3804.01,319.705
3805.46,314.666
3806.91,313.249
3808.36,323.648
3809.82,320.445
3811.27,313.876
3812.72,312.103
3814.17,313.609
3815.62,325.778
3817.07,321.902
3818.53,321.553
3819.98,335.941
3821.43,310.765
3822.88,311.391
3824.33,311.692
3825.79,320.975
3827.24,339.306
3828.69,337.911
3830.14,314.419
3831.59,327.068
3833.04,315.182
3834.5,318.834
3835.95,320.844
3837.4,325.273
3838.85,321.061
3840.3,320.342
3841.76,341.226
3843.21,306.981
3844.66,318.596
3846.11,319.116
3847.56,311.575
3849.01,338.535
3850.47,310.739
3851.92,323.999
3853.37,309.153
3854.82,314.722
3856.27,327.308
3857.72,327.701
3859.18,332.901
3860.63,331.531
3862.08,315.349
3863.53,327.576
3864.98,332.289
3866.44,343.803
3867.89,325.533
3869.34,321.64
3870.79,330.092
3872.24,331.722
3873.69,326.734
3875.15,331.65
3876.6,319.841
3878.05,324.814
3879.5,336.006
3880.95,323.539
3882.41,329.284
3883.86,335.688
3885.31,328.519
3886.76,326.651
3888.21,332.632
3889.66,333.988
3891.12,331.043
3892.57,344.443
3894.02,343.114
3895.47,345.817
3896.92,340.315
3898.37,339.975
3899.83,337.223
3901.28,332.138
3902.73,342.122
3904.18,337.479
3905.63,346.851
3907.09,342.536
3908.54,343.656
3909.99,353.217
3911.44,347.847
3912.89,349.008
3914.34,348.363
3915.8,335.602
3917.25,344.608
3918.7,361.031
3920.15,355.912
3921.6,367.406
3923.06,356.16
3924.51,342.897
3925.96,362.276
3927.41,359.122
3928.86,354.404
3930.31,374.988
3931.77,364.485
3933.22,366.37
3934.67,367.942
3936.12,366.159
3937.57,368.214
3939.02,369.881
3940.48,366.018
3941.93,361.315
3943.38,364.836
3944.83,370.566
3946.28,368.61
3947.74,370.215
3949.19,368.842
3950.64,372.728
3952.09,364.491
3953.54,360.762
3954.99,376.033
3956.45,373.297
3957.9,369.233
3959.35,391.742
3960.8,375.285
3962.25,381.018
3963.71,374.965
3965.16,376.875
3966.61,382.737
3968.06,381.855
3969.51,385.243
3970.96,378.099
3972.42,384.163
3973.87,385.548
3975.32,390.072
3976.77,385.732
3978.22,389.907
3979.68,388.689
3981.13,386.675
3982.58,398.642
3984.03,392.315
3985.48,405.068
3986.93,388.162
3988.39,400.254
3989.84,413.352
3991.29,400.317
3992.74,398.481
3994.19,394.376
3995.64,405.324
3997.1,405.461
3998.55,409.078
4000,407.897
