0,44384.7
1.77681,42205.6
3.2286,27064.6
4.68039,7827.97
6.13218,1334.82
7.58397,241.432
9.03575,150.641
10.4875,140.143
11.9393,139.361
13.3911,138.777
14.8429,136.918
16.2947,134.724
17.7465,131.33
19.1983,125.126
20.6501,119.795
22.1018,113.772
23.5536,109.358
25.0054,106.225
26.4572,99.5882
27.909,91.719
29.3608,85.23
30.8126,75.5252
32.2644,73.8054
33.7161,72.6499
35.1679,71.5986
36.6197,71.5991
38.0715,68.7676
39.5233,68.7033
40.9751,71.4801
42.4269,74.6801
43.8787,75.0266
45.3304,82.0654
46.7822,96.6999
48.234,119.382
49.6858,165.579
51.1376,257.093
52.5894,435.28
54.0412,680.367
55.493,982.802
56.9447,1309.4
58.3965,1681.08
59.8483,1981.03
61.3001,2249.96
62.7519,2456.3
64.2037,2602.41
65.6555,2654.41
67.1073,2736.51
68.559,2796.75
70.0108,2826.86
71.4626,2848.23
72.9144,2861.15
74.3662,2883.76
75.818,2935.09
77.2698,2969.24
78.7216,3033.13
80.1733,3134.43
81.6251,3192.09
83.0769,3261.94
84.5287,3306.34
85.9805,3287.6
87.4323,3208.37
88.8841,3098.59
90.3359,2966.65
91.7877,2814.76
93.2394,2659.81
94.6912,2528.64
96.143,2392.54
97.5948,2277.5
99.0466,2213.2
100.498,2185.18
101.95,2125.47
103.402,2066.79
104.854,2040.79
106.306,2026.85
107.757,1995.39
109.209,1955.36
110.661,1909
112.113,1885.1
113.564,1883.53
115.016,1851.95
116.468,1807.87
117.92,1782.96
119.372,1768.28
120.823,1719.24
122.275,1734.06
123.727,1699.41
125.179,1647.78
126.631,1622.8
128.082,1620.95
129.534,1579.05
130.986,1552.02
132.438,1535.19
133.889,1509.43
135.341,1481.53
136.793,1447.59
138.245,1427
139.697,1427.05
141.148,1430.72
142.6,1415.42
144.052,1416.21
145.504,1411.77
146.956,1399.91
148.407,1372.66
149.859,1343.86
151.311,1320.76
152.763,1324.76
154.215,1325.48
155.666,1313.37
157.118,1256.62
158.57,1231.27
160.022,1228.55
161.473,1227.15
162.925,1205.82
164.377,1213.61
165.829,1217.81
167.281,1205.34
168.732,1184.42
170.184,1198.6
171.636,1173.17
173.088,1143.22
174.54,1134.21
175.991,1137.84
177.443,1083.56
178.895,1092.15
180.347,1092.14
181.798,1080.95
183.25,1053.43
184.702,1071.1
186.154,1064.76
187.606,1055.47
189.057,1038.31
190.509,1021.56
191.961,1006.24
193.413,1015.94
194.865,1035.72
196.316,1036.96
197.768,1019.89
199.22,1015.28
200.672,1016.54
202.124,1024.63
203.575,1013.94
205.027,984.128
206.479,981.063
207.931,989.584
209.382,986.392
210.834,988.377
212.286,1009.8
213.738,999.082
215.19,987.472
216.641,999.241
218.093,1016.6
219.545,1026.21
220.997,1026.29
222.449,980.118
223.9,991.951
225.352,1004.82
226.804,1000.85
228.256,971.692
229.707,976.108
231.159,990.323
232.611,990.839
234.063,997.716
235.515,995.588
236.966,1003.53
238.418,1000.88
239.87,996.136
241.322,992.134
242.774,982.969
244.225,980.229
245.677,980.936
247.129,985.399
248.581,974.448
250.033,952.625
251.484,964.878
252.936,941.157
254.388,927.824
255.84,937.838
257.291,953.657
258.743,936.75
260.195,932.898
261.647,930.468
263.099,934.256
264.55,934.502
266.002,917.794
267.454,925.131
268.906,933.264
270.358,935.964
271.809,923.273
273.261,902.093
274.713,910.599
276.165,910.71
277.616,904.635
279.068,895.597
280.52,893.652
281.972,886.441
283.424,863.045
284.875,849.926
286.327,855.89
287.779,860.71
289.231,860.623
290.683,865.539
292.134,860.472
293.586,840.221
295.038,817.358
296.49,835.56
297.941,834.408
299.393,828.603
300.845,825.014
302.297,820.455
303.749,817.676
305.2,803.834
306.652,803.985
308.104,799.768
309.556,781.906
311.008,793.523
312.459,809.837
313.911,790.61
315.363,783.403
316.815,791.864
318.267,760.967
319.718,783.745
321.17,779.837
322.622,782.167
324.074,785.832
325.525,775.027
326.977,785.469
328.429,786.296
329.881,757.739
331.333,737.901
332.784,758.301
334.236,750.741
335.688,733.171
337.14,754.145
338.592,762.025
340.043,746.821
341.495,741.16
342.947,753.567
344.399,749.39
345.85,739.713
347.302,739.398
348.754,747.707
350.206,740.836
351.658,732.954
353.109,733.182
354.561,738.108
356.013,736.938
357.465,712.867
358.917,716.497
360.368,719.322
361.82,718.868
363.272,721.918
364.724,730.357
366.176,717.282
367.627,707.295
369.079,708.958
370.531,720.722
371.983,724.734
373.434,705.91
374.886,709.252
376.338,713.448
377.79,713.998
379.242,709.209
380.693,714.656
382.145,689.355
383.597,701.128
385.049,716.112
386.501,726.459
387.952,729.314
389.404,719.202
390.856,708.084
392.308,708.933
393.759,713.308
395.211,714.546
396.663,700.195
398.115,721.116
399.567,713.026
401.018,701.807
402.47,697.048
403.922,709.013
405.374,708.607
406.826,711.322
408.277,710.079
409.729,707.827
411.181,709.718
412.633,722.23
414.085,712.115
415.536,699.891
416.988,703.535
418.44,712.667
419.892,709.558
421.343,732.362
422.795,706.978
424.247,697.235
425.699,699.047
427.151,701.724
428.602,696.306
430.054,685.871
431.506,709.073
432.958,712.863
434.41,705.745
435.861,710.312
437.313,688.183
438.765,687.426
440.217,714.753
441.668,727.015
443.12,713.041
444.572,680.348
446.024,704.619
447.476,692.985
448.927,689.498
450.379,690.437
451.831,691.846
453.283,697.745
454.735,677.257
456.186,684.196
457.638,694.04
459.09,701.472
460.542,703.742
461.993,701.771
463.445,701.279
464.897,689.227
466.349,690.664
467.801,695.856
469.252,678.216
470.704,680.556
472.156,691.025
473.608,701.622
475.06,698.598
476.511,679.556
477.963,674.662
479.415,689.527
480.867,697.923
482.319,693.224
483.77,678.583
485.222,667.958
486.674,688.501
488.126,700.086
489.577,687.894
491.029,681.366
492.481,679.918
493.933,662.447
495.385,664.914
496.836,664.969
498.288,675.778
499.74,675.505
501.192,665.109
502.644,660.132
504.095,666.61
505.547,673.196
506.999,678.585
508.451,677.101
509.902,666.712
511.354,679.337
512.806,664.208
514.258,666.991
515.71,671.732
517.161,674.707
518.613,665.91
520.065,644.917
521.517,671.283
522.969,671.053
524.42,658.592
525.872,647.634
527.324,657.232
528.776,658.615
530.228,668.549
531.679,681.157
533.131,670.916
534.583,657.991
536.035,663.068
537.486,685.559
538.938,678.65
540.39,662.434
541.842,660.054
543.294,666.117
544.745,672.342
546.197,671.553
547.649,666.867
549.101,659.115
550.553,671.823
552.004,681.082
553.456,665.43
554.908,667.747
556.36,655.849
557.811,657.145
559.263,660.572
560.715,669.871
562.167,672.905
563.619,694.47
565.07,675.653
566.522,672.566
567.974,676.169
569.426,666.991
570.878,654.4
572.329,666.822
573.781,652.61
575.233,664.336
576.685,673.333
578.137,672.832
579.588,657.674
581.04,649.412
582.492,661.972
583.944,655.678
585.395,657.226
586.847,662.456
588.299,660.761
589.751,657.032
591.203,655.818
592.654,649.806
594.106,658.188
595.558,669.728
597.01,664.287
598.462,652.512
599.913,663.766
601.365,646.165
602.817,644.324
604.269,660.363
605.72,658.793
607.172,673.559
608.624,677.697
610.076,679.355
611.528,667.513
612.979,655.157
614.431,657.765
615.883,647.266
617.335,654.232
618.787,662.596
620.238,676.686
621.69,672.704
623.142,650.037
624.594,668.423
626.046,665.81
627.497,673.894
628.949,668.62
630.401,672.419
631.853,678.055
633.304,656.608
634.756,650.19
636.208,666.698
637.66,670.419
639.112,672.755
640.563,677.827
642.015,674.333
643.467,666.389
644.919,670.672
646.371,682.677
647.822,687.376
649.274,685.479
650.726,684.563
652.178,694.428
653.629,668.997
655.081,671.225
656.533,683.777
657.985,690.598
659.437,689.047
660.888,697.992
662.34,685.429
663.792,676.362
665.244,683.339
666.696,683.683
668.147,682.868
669.599,705.641
671.051,709.723
672.503,687.788
673.954,686.606
675.406,685.62
676.858,679.125
678.31,693.005
679.762,711.102
681.213,697.261
682.665,683.152
684.117,681.319
685.569,693.548
687.021,715.287
688.472,715.324
689.924,702.483
691.376,696.477
692.828,702.28
694.28,710.167
695.731,701.369
697.183,700.191
698.635,685.094
700.087,686.287
701.538,689.729
702.99,691.442
704.442,687.833
705.894,694.362
707.346,712.915
708.797,718.724
710.249,702.19
711.701,705.893
713.153,706.232
714.605,693.139
716.056,696.441
717.508,697.816
718.96,714.089
720.412,703.681
721.863,696.302
723.315,699.983
724.767,705.008
726.219,705.373
727.671,706.508
729.122,687.783
730.574,686
732.026,692.305
733.478,708.627
734.93,719.214
736.381,711.962
737.833,692.55
739.285,699.7
740.737,701.634
742.189,704.279
743.64,711.198
745.092,707.048
746.544,705.358
747.996,715.062
749.447,703.895
750.899,713.851
752.351,715.192
753.803,697.092
755.255,707.228
756.706,697.816
758.158,696.848
759.61,717.158
761.062,723.901
762.514,725.989
763.965,719.112
765.417,705.75
766.869,706.927
768.321,716.602
769.772,713.655
771.224,718.056
772.676,722.346
774.128,704.886
775.58,709.567
777.031,698.71
778.483,711.643
779.935,700.683
781.387,697.023
782.839,707.421
784.29,713.804
785.742,720.55
787.194,735.667
788.646,724.701
790.098,729.398
791.549,731.721
793.001,726.355
794.453,735.026
795.905,725.845
797.356,708.423
798.808,710.325
800.26,703.995
801.712,712.323
803.164,731.547
804.615,732.971
806.067,740.514
807.519,721.413
808.971,727.439
810.423,726.663
811.874,727.173
813.326,720.844
814.778,732.851
816.23,734.825
817.681,735.048
819.133,724.058
820.585,737.391
822.037,739.043
823.489,730.438
824.94,725.986
826.392,741.1
827.844,748.961
829.296,753.893
830.748,756.472
832.199,758.674
833.651,747.279
835.103,749.71
836.555,751.908
838.007,751.206
839.458,746.164
840.91,752.481
842.362,757.978
843.814,762.625
845.265,746.341
846.717,743.31
848.169,767.652
849.621,787.515
851.073,790.661
852.524,782.663
853.976,780.336
855.428,774.28
856.88,777.864
858.332,774.454
859.783,782.502
861.235,784.506
862.687,776.756
864.139,769.864
865.59,765.951
867.042,769.547
868.494,760.918
869.946,760.134
871.398,775.32
872.849,767.764
874.301,745.672
875.753,753.36
877.205,758.105
878.657,769.512
880.108,764.042
881.56,765.875
883.012,766.8
884.464,770.897
885.915,772.788
887.367,775.29
888.819,770.244
890.271,791.035
891.723,781.868
893.174,798.195
894.626,793.449
896.078,780.941
897.53,787.636
898.982,789.053
900.433,784.149
901.885,798.839
903.337,775.005
904.789,782.87
906.241,801.618
907.692,804.183
909.144,789.024
910.596,785.348
912.048,801.721
913.499,802.126
914.951,804.517
916.403,804.596
917.855,803.222
919.307,811.259
920.758,814.086
922.21,811.354
923.662,818.748
925.114,821.758
926.566,821.051
928.017,811.95
929.469,806.184
930.921,817.207
932.373,817.382
933.824,816.397
935.276,815.643
936.728,841.683
938.18,833.567
939.632,820.956
941.083,829.675
942.535,798.553
943.987,825.276
945.439,830.612
946.891,816.62
948.342,815.968
949.794,815.794
951.246,817.922
952.698,822.869
954.15,816.977
955.601,823.354
957.053,827.023
958.505,820.233
959.957,832.169
961.408,826.864
962.86,807.63
964.312,811.275
965.764,841.834
967.216,818.43
968.667,822.377
970.119,830.033
971.571,828.968
973.023,817.874
974.475,816.937
975.926,835.457
977.378,834.797
978.83,822.234
980.282,827.634
981.733,824.362
983.185,835.083
984.637,845.463
986.089,835.314
987.541,837.085
988.992,830.938
990.444,835.48
991.896,843.62
993.348,829.119
994.8,835.512
996.251,859.805
997.703,859.336
999.155,844.716
1000.61,864.197
1002.06,862.728
1003.51,865.888
1004.96,859.622
1006.41,864.101
1007.87,862.648
1009.32,881.62
1010.77,885.615
1012.22,868.517
1013.67,896.272
1015.12,872.734
1016.58,885.742
1018.03,892.333
1019.48,896.082
1020.93,898.512
1022.38,888.918
1023.84,899.012
1025.29,922.55
1026.74,935.821
1028.19,931.858
1029.64,934.455
1031.09,953.077
1032.55,959.2
1034,945.589
1035.45,955.881
1036.9,969.143
1038.35,964.156
1039.8,964.759
1041.26,972.153
1042.71,980.086
1044.16,1004.07
1045.61,1008.56
1047.06,988.655
1048.52,995.977
1049.97,1024.94
1051.42,1008.8
1052.87,1022.77
1054.32,1040
1055.77,1020.68
1057.23,1021.92
1058.68,1060.39
1060.13,1048.9
1061.58,1079.72
1063.03,1073.68
1064.49,1079.85
1065.94,1099.77
1067.39,1113.15
1068.84,1105.43
1070.29,1115.65
1071.74,1130.62
1073.2,1126.03
1074.65,1152.3
1076.1,1146.5
1077.55,1180.15
1079,1175.79
1080.46,1168.94
1081.91,1179.64
1083.36,1191.69
1084.81,1168.81
1086.26,1200.66
1087.71,1195.69
1089.17,1172.94
1090.62,1179.83
1092.07,1186.87
1093.52,1160.33
1094.97,1145.35
1096.42,1194.14
1097.88,1198.42
1099.33,1158.86
1100.78,1163.73
1102.23,1164.65
1103.68,1160.12
1105.14,1164.6
1106.59,1156.3
1108.04,1140.16
1109.49,1131.44
1110.94,1157.01
1112.39,1148.7
1113.85,1142.33
1115.3,1121.58
1116.75,1113.88
1118.2,1110.62
1119.65,1107.72
1121.11,1116.95
1122.56,1102.12
1124.01,1108.91
1125.46,1072.22
1126.91,1091.53
1128.36,1071.79
1129.82,1068.05
1131.27,1078.25
1132.72,1087.24
1134.17,1086.52
1135.62,1074.44
1137.07,1071.26
1138.53,1065.61
1139.98,1068.13
1141.43,1065.89
1142.88,1051.5
1144.33,1063.22
1145.79,1075.37
1147.24,1054.16
1148.69,1035.82
1150.14,1063.68
1151.59,1067.2
1153.04,1073.85
1154.5,1064.6
1155.95,1063.34
1157.4,1063.87
1158.85,1057.44
1160.3,1062.73
1161.76,1074.39
1163.21,1058.95
1164.66,1065.26
1166.11,1068.24
1167.56,1055.91
1169.01,1052.96
1170.47,1065.08
1171.92,1077.56
1173.37,1069.72
1174.82,1072.77
1176.27,1064.99
1177.72,1077.15
1179.18,1086.24
1180.63,1101.39
1182.08,1094.39
1183.53,1079.05
1184.98,1078.05
1186.44,1078.8
1187.89,1082.2
1189.34,1094.54
1190.79,1081.55
1192.24,1102.95
1193.69,1081.28
1195.15,1093.84
1196.6,1100.53
1198.05,1108.67
1199.5,1110.1
1200.95,1115.37
1202.41,1126.34
1203.86,1113.76
1205.31,1126.94
1206.76,1138.53
1208.21,1134.38
1209.66,1122.48
1211.12,1116.51
1212.57,1124.06
1214.02,1130.82
1215.47,1130.65
1216.92,1121.89
1218.37,1149.1
1219.83,1151.2
1221.28,1144.96
1222.73,1159.72
1224.18,1150.63
1225.63,1131.52
1227.09,1126.99
1228.54,1155.26
1229.99,1171.94
1231.44,1143.56
1232.89,1137.23
1234.34,1176.43
1235.8,1170.28
1237.25,1166.19
1238.7,1181
1240.15,1188.77
1241.6,1182.3
1243.06,1184.13
1244.51,1204.27
1245.96,1202.34
1247.41,1223.33
1248.86,1239.87
1250.31,1229.66
1251.77,1213.43
1253.22,1228.53
1254.67,1241.26
1256.12,1254.62
1257.57,1282.02
1259.02,1292.23
1260.48,1294.42
1261.93,1313.13
1263.38,1290.45
1264.83,1335.06
1266.28,1332.32
1267.74,1327.6
1269.19,1349.33
1270.64,1375.35
1272.09,1390.57
1273.54,1408.77
1274.99,1419.58
1276.45,1435.7
1277.9,1452.17
1279.35,1496.88
1280.8,1465.16
1282.25,1504.47
1283.71,1539.28
1285.16,1566.59
1286.61,1588.55
1288.06,1610.92
1289.51,1656.9
1290.96,1713.52
1292.42,1706.9
1293.87,1766.79
1295.32,1811.89
1296.77,1845.54
1298.22,1913.04
1299.67,1983.5
1301.13,2045.61
1302.58,2092.22
1304.03,2137.02
1305.48,2210.16
1306.93,2304.43
1308.39,2372.71
1309.84,2498.36
1311.29,2591.41
1312.74,2684.13
1314.19,2815.97
1315.64,2946.68
1317.1,3057.67
1318.55,3186.85
1320,3329.79
1321.45,3445.4
1322.9,3582.83
1324.36,3731.22
1325.81,3882.06
1327.26,4044.63
1328.71,4114.08
1330.16,4188.23
1331.61,4306.5
1333.07,4392.27
1334.52,4441.29
1335.97,4517.8
1337.42,4493.5
1338.87,4467.45
1340.33,4397.9
1341.78,4360.09
1343.23,4238.16
1344.68,4103.14
1346.13,4002.06
1347.58,3886.79
1349.04,3747.22
1350.49,3593.14
1351.94,3419.67
1353.39,3300.28
1354.84,3183.24
1356.29,2988.09
1357.75,2888.03
1359.2,2769.44
1360.65,2671.37
1362.1,2552.77
1363.55,2440.79
1365.01,2379.29
1366.46,2295.06
1367.91,2184.42
1369.36,2137.72
1370.81,2064.63
1372.26,1996.56
1373.72,1987.84
1375.17,1938.48
1376.62,1906.94
1378.07,1853.86
1379.52,1806.73
1380.98,1775.45
1382.43,1742.14
1383.88,1731.06
1385.33,1704.57
1386.78,1671.35
1388.23,1671.3
1389.69,1638.77
1391.14,1614.18
1392.59,1616.77
1394.04,1614.71
1395.49,1581.22
1396.94,1558.97
1398.4,1549.93
1399.85,1546.42
1401.3,1544.11
1402.75,1537.1
1404.2,1542.14
1405.66,1543.99
1407.11,1520.1
1408.56,1530.92
1410.01,1515.55
1411.46,1531.63
1412.91,1543.03
1414.37,1515.24
1415.82,1520.84
1417.27,1528.41
1418.72,1537.79
1420.17,1537.25
1421.63,1537.78
1423.08,1544.6
1424.53,1543.44
1425.98,1534.66
1427.43,1576.06
1428.88,1537.86
1430.34,1563.89
1431.79,1562.15
1433.24,1572.23
1434.69,1567.52
1436.14,1583.73
1437.59,1609.98
1439.05,1605.95
1440.5,1621.52
1441.95,1610.04
1443.4,1611.19
1444.85,1610.11
1446.31,1626.62
1447.76,1625.38
1449.21,1630.98
1450.66,1655.05
1452.11,1683.05
1453.56,1699.36
1455.02,1709.14
1456.47,1702.43
1457.92,1700.83
1459.37,1738.59
1460.82,1766.96
1462.28,1778.05
1463.73,1769.87
1465.18,1822.08
1466.63,1795.78
1468.08,1835.87
1469.53,1856.1
1470.99,1858.1
1472.44,1872.57
1473.89,1895.08
1475.34,1932.69
1476.79,1989.59
1478.24,2001.04
1479.7,2007.27
1481.15,2057.1
1482.6,2084.23
1484.05,2118.27
1485.5,2169.26
1486.96,2191.74
1488.41,2226.41
1489.86,2261.65
1491.31,2303.28
1492.76,2330.72
1494.21,2347.18
1495.67,2431.01
1497.12,2535.75
1498.57,2563.52
1500.02,2591.6
1501.47,2661.33
1502.93,2748.65
1504.38,2748.87
1505.83,2877.74
1507.28,2924.8
1508.73,3041.27
1510.18,3148.27
1511.64,3250.22
1513.09,3370.77
1514.54,3465.02
1515.99,3616.33
1517.44,3805.87
1518.89,3964.62
1520.35,4094.42
1521.8,4250.03
1523.25,4475.74
1524.7,4713.1
1526.15,5076.03
1527.61,5325.29
1529.06,5714.31
1530.51,6081.33
1531.96,6523.31
1533.41,7032.11
1534.86,7555.99
1536.32,8158.97
1537.77,8882.99
1539.22,9666.41
1540.67,10515
1542.12,11384.4
1543.58,12525.5
1545.03,13681.9
1546.48,14983.1
1547.93,16238.8
1549.38,17572.9
1550.83,18951.1
1552.29,20462.1
1553.74,21919.4
1555.19,23344.3
1556.64,24845.5
1558.09,26235.1
1559.54,27495.4
1561,28618.4
1562.45,29526.5
1563.9,30092.1
1565.35,30485.2
1566.8,30560.2
1568.26,30353
1569.71,29569
1571.16,28608.1
1572.61,27451
1574.06,26059.2
1575.51,24572.1
1576.97,22989.9
1578.42,21402.1
1579.87,19885.9
1581.32,18376.3
1582.77,16952.7
1584.23,15633.5
1585.68,14352.9
1587.13,13286.8
1588.58,12170.5
1590.03,11175.7
1591.48,10301.8
1592.94,9456.6
1594.39,8850.59
1595.84,8311.84
1597.29,7741.21
1598.74,7354.17
1600.2,6969.62
1601.65,6586.94
1603.1,6230.78
1604.55,5930.58
1606,5633.85
1607.45,5350.01
1608.91,5113.92
1610.36,4892.35
1611.81,4667.35
1613.26,4389.76
1614.71,4180.78
1616.16,3987.3
1617.62,3789.86
1619.07,3629.51
1620.52,3431.34
1621.97,3328.25
1623.42,3198.26
1624.88,3055.08
1626.33,2963.28
1627.78,2848.38
1629.23,2750.74
1630.68,2660.15
1632.13,2548.21
1633.59,2496.97
1635.04,2471.97
1636.49,2423.73
1637.94,2338.14
1639.39,2254.19
1640.85,2229.17
1642.3,2180.21
1643.75,2137.69
1645.2,2091.19
1646.65,2081.87
1648.1,2058.41
1649.56,2028.86
1651.01,1968.15
1652.46,1940.01
1653.91,1909.32
1655.36,1882.02
1656.81,1878.03
1658.27,1826.07
1659.72,1780.43
1661.17,1772.22
1662.62,1752.96
1664.07,1720.85
1665.53,1714.34
1666.98,1714.17
1668.43,1670.84
1669.88,1624.72
1671.33,1615.89
1672.78,1610.94
1674.24,1567.21
1675.69,1537.39
1677.14,1550.94
1678.59,1552.28
1680.04,1527.01
1681.5,1503.45
1682.95,1501.67
1684.4,1506.18
1685.85,1494.37
1687.3,1479.58
1688.75,1461.69
1690.21,1443.63
1691.66,1432.69
1693.11,1396.2
1694.56,1413.86
1696.01,1418.99
1697.46,1396.51
1698.92,1387.91
1700.37,1371.43
1701.82,1364.31
1703.27,1361.92
1704.72,1372.69
1706.18,1373.14
1707.63,1364.2
1709.08,1348.1
1710.53,1355.18
1711.98,1349.05
1713.43,1319.54
1714.89,1328.62
1716.34,1327.76
1717.79,1329.17
1719.24,1313.15
1720.69,1326.81
1722.15,1356
1723.6,1327.05
1725.05,1343.1
1726.5,1325.84
1727.95,1304.74
1729.4,1318.24
1730.86,1318
1732.31,1335.42
1733.76,1347.24
1735.21,1303.18
1736.66,1291.03
1738.11,1305.99
1739.57,1298.23
1741.02,1279.29
1742.47,1285.86
1743.92,1291.42
1745.37,1269.53
1746.83,1257.58
1748.28,1260.06
1749.73,1270.61
1751.18,1277.06
1752.63,1262.37
1754.08,1238.81
1755.54,1264.06
1756.99,1267.19
1758.44,1248.14
1759.89,1214.31
1761.34,1234.36
1762.8,1223.2
1764.25,1215.15
1765.7,1207.26
1767.15,1218.42
1768.6,1223.33
1770.05,1220.06
1771.51,1207.17
1772.96,1175.86
1774.41,1173.4
1775.86,1182.16
1777.31,1184.99
1778.76,1167.88
1780.22,1151.65
1781.67,1171.22
1783.12,1183
1784.57,1173.41
1786.02,1142.86
1787.48,1145.94
1788.93,1168.17
1790.38,1146.4
1791.83,1132.86
1793.28,1160.62
1794.73,1190.65
1796.19,1137.35
1797.64,1116.79
1799.09,1136.31
1800.54,1128.9
1801.99,1127.99
1803.45,1139.34
1804.9,1140.57
1806.35,1138.77
1807.8,1143.36
1809.25,1134.75
1810.7,1121.26
1812.16,1114.6
1813.61,1114.43
1815.06,1115.56
1816.51,1108.7
1817.96,1120.55
1819.41,1127.52
1820.87,1117.33
1822.32,1105.47
1823.77,1119.86
1825.22,1125.94
1826.67,1145.56
1828.13,1109.71
1829.58,1136.68
1831.03,1126.55
1832.48,1117.81
1833.93,1112.95
1835.38,1096.85
1836.84,1150.43
1838.29,1139.31
1839.74,1161.83
1841.19,1168.04
1842.64,1161.31
1844.1,1169.93
1845.55,1164.27
1847,1168.84
1848.45,1164.76
1849.9,1156.16
1851.35,1172.86
1852.81,1197.92
1854.26,1199.64
1855.71,1193.45
1857.16,1209.96
1858.61,1213.96
1860.07,1191.89
1861.52,1181.83
1862.97,1179.94
1864.42,1192.83
1865.87,1198.37
1867.32,1229.54
1868.78,1209.82
1870.23,1180.87
1871.68,1169.43
1873.13,1187.07
1874.58,1158.71
1876.03,1152.93
1877.49,1188.57
1878.94,1166.61
1880.39,1139.67
1881.84,1145.01
1883.29,1156.79
1884.75,1153.68
1886.2,1151.8
1887.65,1126.6
1889.1,1112.68
1890.55,1123.41
1892,1126.96
1893.46,1107.19
1894.91,1110.49
1896.36,1114.8
1897.81,1098.1
1899.26,1092.38
1900.72,1085.72
1902.17,1084.14
1903.62,1079.63
1905.07,1086.75
1906.52,1067.43
1907.97,1064.96
1909.43,1080.55
1910.88,1069.91
1912.33,1072.61
1913.78,1060.95
1915.23,1071.94
1916.68,1072.13
1918.14,1049.96
1919.59,1059.39
1921.04,1029.4
1922.49,1057.08
1923.94,1052.56
1925.4,1058.91
1926.85,1062.27
1928.3,1045.25
1929.75,1017.87
1931.2,1053
1932.65,1064.66
1934.11,1057.37
1935.56,1062.06
1937.01,1038.58
1938.46,1056.13
1939.91,1053.79
1941.37,1064.2
1942.82,1064.47
1944.27,1066.12
1945.72,1085.67
1947.17,1067.07
1948.62,1065.73
1950.08,1053.44
1951.53,1060.49
1952.98,1064.2
1954.43,1065.36
1955.88,1052.73
1957.33,1077
1958.79,1086.44
1960.24,1055.94
1961.69,1043.01
1963.14,1065.39
1964.59,1062.42
1966.05,1077.01
1967.5,1080.99
1968.95,1079.43
1970.4,1093.2
1971.85,1092.93
1973.3,1089.23
1974.76,1102.25
1976.21,1097.11
1977.66,1092.55
1979.11,1093.94
1980.56,1085.43
1982.02,1098.83
1983.47,1087.43
1984.92,1081.96
1986.37,1095.79
1987.82,1111.34
1989.27,1107.71
1990.73,1101.84
1992.18,1099.46
1993.63,1101.57
1995.08,1104.81
1996.53,1122.44
1997.98,1086.12
1999.44,1085.95
2000.89,1132.33
2002.34,1088.9
2003.79,1103.89
2005.24,1096.33
2006.7,1122.47
2008.15,1096.79
2009.6,1113.59
2011.05,1109.19
2012.5,1105.87
2013.95,1115.85
2015.41,1091.08
2016.86,1072.23
2018.31,1071.95
2019.76,1067.81
2021.21,1062.92
2022.67,1053.98
2024.12,1043.97
2025.57,1074.98
2027.02,1066.23
2028.47,1073.62
2029.92,1033.25
2031.38,1051.87
2032.83,1058.12
2034.28,1054.93
2035.73,1030.09
2037.18,1039.23
2038.63,1026.73
2040.09,1023.92
2041.54,999.154
2042.99,1021.95
2044.44,1028.53
2045.89,1014.39
2047.35,1003.59
2048.8,1014.1
2050.25,1007.64
2051.7,1009.01
2053.15,1022.26
2054.6,1009.71
2056.06,983.104
2057.51,999.646
2058.96,994.699
2060.41,984.549
2061.86,989.878
2063.32,997.438
2064.77,987.639
2066.22,977.41
2067.67,978.617
2069.12,992.928
2070.57,971.494
2072.03,989.203
2073.48,985.669
2074.93,975.123
2076.38,968.682
2077.83,984.97
2079.28,987.234
2080.74,973.685
2082.19,968.968
2083.64,985.232
2085.09,999.344
2086.54,989.989
2088,978.538
2089.45,972.463
2090.9,955.793
2092.35,951.926
2093.8,960.368
2095.25,966.324
2096.71,955.825
2098.16,980.118
2099.61,990.458
2101.06,994.484
2102.51,992.793
2103.97,987.829
2105.42,966.546
2106.87,962.52
2108.32,960.296
2109.77,952.18
2111.22,954.316
2112.68,952.093
2114.13,958.081
2115.58,952.244
2117.03,958.692
2118.48,975.028
2119.94,968.555
2121.39,987.742
2122.84,974.464
2124.29,981.436
2125.74,987.631
2127.19,990.656
2128.65,1013.63
2130.1,982.945
2131.55,976.195
2133,987.527
2134.45,981.881
2135.9,980.928
2137.36,991.339
2138.81,978.188
2140.26,972.86
2141.71,957.215
2143.16,987.996
2144.62,990.926
2146.07,984.184
2147.52,979.618
2148.97,983.136
2150.42,998.518
2151.87,982.556
2153.33,1013.46
2154.78,1006.41
2156.23,997.828
2157.68,991.204
2159.13,1000.63
2160.58,1010.4
2162.04,1004
2163.49,1036.34
2164.94,1030.71
2166.39,1006.02
2167.84,1012.16
2169.3,1010.72
2170.75,1018.67
2172.2,1020.89
2173.65,1018.67
2175.1,1032.08
2176.55,1042.92
2178.01,1039.73
2179.46,1019.02
2180.91,1036.51
2182.36,1042.36
2183.81,1054.55
2185.27,1047.88
2186.72,1061.1
2188.17,1069.39
2189.62,1048.86
2191.07,1049.94
2192.52,1058.07
2193.98,1057.48
2195.43,1044.1
2196.88,1056.42
2198.33,1055.75
2199.78,1039.69
2201.24,1041.85
2202.69,1056.75
2204.14,1069.59
2205.59,1031.35
2207.04,1070.5
2208.49,1060.45
2209.95,1058.01
2211.4,1080.43
2212.85,1061.63
2214.3,1055.74
2215.75,1039.85
2217.2,1059.25
2218.66,1060.57
2220.11,1080.43
2221.56,1075.79
2223.01,1062.3
2224.46,1075.84
2225.92,1083.32
2227.37,1081.9
2228.82,1043.47
2230.27,1088.7
2231.72,1050.4
2233.17,1050.86
2234.63,1081.26
2236.08,1082.56
2237.53,1076.78
2238.98,1068.43
2240.43,1103.98
2241.89,1080.01
2243.34,1093.92
2244.79,1077.25
2246.24,1100.08
2247.69,1096.3
2249.14,1095.9
2250.6,1088.06
2252.05,1092.13
2253.5,1078.21
2254.95,1090.54
2256.4,1094
2257.85,1117.46
2259.31,1117.89
2260.76,1114.54
2262.21,1104.93
2263.66,1121.17
2265.11,1124.35
2266.57,1118.1
2268.02,1119.38
2269.47,1144.87
2270.92,1138.31
2272.37,1125.14
2273.82,1135.79
2275.28,1142.13
2276.73,1139.49
2278.18,1124.25
2279.63,1143.85
2281.08,1152.12
2282.54,1140.92
2283.99,1156.5
2285.44,1159.17
2286.89,1163.7
2288.34,1162.95
2289.79,1142.13
2291.25,1169.06
2292.7,1177.36
2294.15,1166.38
2295.6,1176.99
2297.05,1201.33
2298.5,1200.43
2299.96,1153.16
2301.41,1169.66
2302.86,1188.34
2304.31,1201.76
2305.76,1207.58
2307.22,1184.42
2308.67,1204.12
2310.12,1192.7
2311.57,1218.97
2313.02,1222.33
2314.47,1226.06
2315.93,1225.51
2317.38,1225.38
2318.83,1217.79
2320.28,1225.29
2321.73,1218.9
2323.19,1236.25
2324.64,1238.56
2326.09,1237.33
2327.54,1247.4
2328.99,1259.43
2330.44,1260.21
2331.9,1266.14
2333.35,1294.72
2334.8,1283.24
2336.25,1294.9
2337.7,1285.15
2339.16,1293.11
2340.61,1313.17
2342.06,1319.28
2343.51,1308.02
2344.96,1336.47
2346.41,1316.11
2347.87,1306.32
2349.32,1329.65
2350.77,1350.75
2352.22,1382.34
2353.67,1351.64
2355.12,1355.12
2356.58,1359.35
2358.03,1396.05
2359.48,1387.82
2360.93,1422.73
2362.38,1394.71
2363.84,1407.91
2365.29,1429.19
2366.74,1455.14
2368.19,1430.97
2369.64,1470.43
2371.09,1465.6
2372.55,1486.27
2374,1498.58
2375.45,1510.2
2376.9,1539.47
2378.35,1552.07
2379.8,1552.47
2381.26,1577.19
2382.71,1573.82
2384.16,1595.25
2385.61,1641.48
2387.06,1684.42
2388.52,1688.26
2389.97,1667.89
2391.42,1680.82
2392.87,1756.78
2394.32,1787.3
2395.77,1854.27
2397.23,1854.66
2398.68,1863.45
2400.13,1885.01
2401.58,1934.45
2403.03,1952.33
2404.49,2002.34
2405.94,2033.24
2407.39,2054.91
2408.84,2092.57
2410.29,2144.81
2411.74,2148.76
2413.2,2171.6
2414.65,2211.83
2416.1,2230.22
2417.55,2267.21
2419,2286.91
2420.46,2303.3
2421.91,2292.58
2423.36,2312.45
2424.81,2351.51
2426.26,2367.36
2427.71,2325.06
2429.17,2349.95
2430.62,2383.76
2432.07,2359.11
2433.52,2336.86
2434.97,2366.7
2436.42,2359.39
2437.88,2353.18
2439.33,2331.02
2440.78,2337.27
2442.23,2302.94
2443.68,2288.29
2445.14,2277.77
2446.59,2255.64
2448.04,2233.8
2449.49,2221.45
2450.94,2256.48
2452.39,2216.36
2453.85,2239.09
2455.3,2215
2456.75,2155.75
2458.2,2129.06
2459.65,2124.47
2461.1,2149.95
2462.56,2120.09
2464.01,2102.31
2465.46,2129.79
2466.91,2107.62
2468.36,2081.68
2469.82,2083.42
2471.27,2051.8
2472.72,2060.5
2474.17,2066.53
2475.62,2051.21
2477.07,2100.24
2478.53,2066.34
2479.98,2056.31
2481.43,2027.48
2482.88,2047.04
2484.33,2065.44
2485.79,2060.01
2487.24,2037.35
2488.69,2024.35
2490.14,2036.35
2491.59,2055.51
2493.04,2057.69
2494.5,2024.01
2495.95,2092.49
2497.4,2059.15
2498.85,2058.48
2500.3,2044.27
2501.76,2088.79
2503.21,2064.76
2504.66,2056.18
2506.11,2099.93
2507.56,2073.12
2509.01,2087.85
2510.47,2092.76
2511.92,2102.48
2513.37,2127.67
2514.82,2128.18
2516.27,2140.28
2517.72,2143.71
2519.18,2185.19
2520.63,2191.1
2522.08,2211.88
2523.53,2234.66
2524.98,2221.15
2526.44,2239.27
2527.89,2247.54
2529.34,2266.78
2530.79,2324.25
2532.24,2346.17
2533.69,2363.91
2535.15,2405.55
2536.6,2412.07
2538.05,2412.53
2539.5,2443.66
2540.95,2494.53
2542.41,2501.19
2543.86,2515.34
2545.31,2562.67
2546.76,2613.76
2548.21,2647.29
2549.66,2668.8
2551.12,2722.32
2552.57,2766.79
2554.02,2785.19
2555.47,2845.49
2556.92,2858.57
2558.37,2911.2
2559.83,2941.74
2561.28,3033.36
2562.73,3065.34
2564.18,3127.33
2565.63,3183.42
2567.09,3265.5
2568.54,3321.25
2569.99,3365.49
2571.44,3418.3
2572.89,3464.31
2574.34,3587.26
2575.8,3674.47
2577.25,3740.31
2578.7,3825.77
2580.15,3900.38
2581.6,4039.32
2583.06,4161.2
2584.51,4198.07
2585.96,4320.5
2587.41,4457.26
2588.86,4559.22
2590.31,4676.13
2591.77,4841.06
2593.22,4998.14
2594.67,5118.34
2596.12,5254.33
2597.57,5437.45
2599.02,5671.75
2600.48,5853.79
2601.93,6003.09
2603.38,6255.21
2604.83,6494.84
2606.28,6689.23
2607.74,6864.19
2609.19,7183.13
2610.64,7520.83
2612.09,7790.72
2613.54,8101.79
2614.99,8353.77
2616.45,8685.72
2617.9,9067.71
2619.35,9412.13
2620.8,9677.61
2622.25,10021.1
2623.71,10479.9
2625.16,10888.4
2626.61,11317.4
2628.06,11751.7
2629.51,12212.2
2630.96,12667.2
2632.42,13086.5
2633.87,13537.7
2635.32,14031.8
2636.77,14386.5
2638.22,14848.6
2639.68,15306.3
2641.13,15681.8
2642.58,16090
2644.03,16548.1
2645.48,16846
2646.93,17229.9
2648.39,17671.4
2649.84,17744
2651.29,18059.4
2652.74,18289.9
2654.19,18449.3
2655.64,18639.4
2657.1,18708.6
2658.55,18723.5
2660,18699.7
2661.45,18656.9
2662.9,18440
2664.36,18415.9
2665.81,18169.3
2667.26,17996.9
2668.71,17783.8
2670.16,17414.7
2671.61,17025.7
2673.07,16615.9
2674.52,16386.9
2675.97,15856.9
2677.42,15424.5
2678.87,14961.6
2680.32,14541.1
2681.78,14115.2
2683.23,13697.7
2684.68,13169.9
2686.13,12648
2687.58,12141.8
2689.04,11664.3
2690.49,11248.8
2691.94,10832.7
2693.39,10307.1
2694.84,9965.97
2696.29,9550.39
2697.75,9155.94
2699.2,8761.01
2700.65,8433.74
2702.1,8099.8
2703.55,7693.58
2705.01,7377.16
2706.46,7036.68
2707.91,6769.06
2709.36,6600.2
2710.81,6282.82
2712.26,5963.32
2713.72,5786.24
2715.17,5626.7
2716.62,5417.19
2718.07,5191.1
2719.52,4960.94
2720.98,4805.45
2722.43,4638.44
2723.88,4513.17
2725.33,4358.11
2726.78,4202.24
2728.23,4063.44
2729.69,3937.01
2731.14,3831.39
2732.59,3752.18
2734.04,3643.23
2735.49,3536.53
2736.94,3450.52
2738.4,3372.65
2739.85,3276.78
2741.3,3212.17
2742.75,3133.44
2744.2,3093.81
2745.66,2978.7
2747.11,2951.69
2748.56,2876.89
2750.01,2822.42
2751.46,2756.23
2752.91,2690.02
2754.37,2648.52
2755.82,2640.67
2757.27,2572.74
2758.72,2528.02
2760.17,2507.55
2761.63,2454.59
2763.08,2398.83
2764.53,2435.69
2765.98,2332.04
2767.43,2343.67
2768.88,2288.28
2770.34,2236.08
2771.79,2220.02
2773.24,2191.87
2774.69,2208.75
2776.14,2214.5
2777.59,2135.05
2779.05,2160.73
2780.5,2078
2781.95,2035.61
2783.4,2071.51
2784.85,2015.26
2786.31,1965.82
2787.76,1971.32
2789.21,1952.08
2790.66,1958.43
2792.11,1955.51
2793.56,1909.38
2795.02,1914.6
2796.47,1861.96
2797.92,1837.14
2799.37,1852.98
2800.82,1811.72
2802.28,1821.88
2803.73,1790.78
2805.18,1797.65
2806.63,1815.38
2808.08,1789.81
2809.53,1757.21
2810.99,1761.47
2812.44,1710
2813.89,1742.47
2815.34,1729.74
2816.79,1711.14
2818.24,1700.53
2819.7,1675.69
2821.15,1658.74
2822.6,1676.06
2824.05,1611.77
2825.5,1616.74
2826.96,1631.76
2828.41,1649.9
2829.86,1622.7
2831.31,1634.46
2832.76,1613.49
2834.21,1585.74
2835.67,1610.26
2837.12,1603.84
2838.57,1575.94
2840.02,1615.7
2841.47,1579.98
2842.93,1587.97
2844.38,1557.23
2845.83,1576.54
2847.28,1569.65
2848.73,1563.38
2850.18,1549.36
2851.64,1586.4
2853.09,1572.68
2854.54,1568.64
2855.99,1550.98
2857.44,1536.27
2858.9,1515.31
2860.35,1567.66
2861.8,1527.68
2863.25,1564.05
2864.7,1572.68
2866.15,1561.97
2867.61,1549.77
2869.06,1546.11
2870.51,1583.67
2871.96,1550.36
2873.41,1517.29
2874.86,1554.58
2876.32,1529.96
2877.77,1583.29
2879.22,1568.81
2880.67,1554.52
2882.12,1521.15
2883.58,1521.38
2885.03,1540.27
2886.48,1567.53
2887.93,1564.89
2889.38,1599.05
2890.83,1568.66
2892.29,1570.03
2893.74,1556.94
2895.19,1578.39
2896.64,1570.93
2898.09,1542.91
2899.54,1571.87
2901,1563.86
2902.45,1569.66
2903.9,1573.61
2905.35,1599.22
2906.8,1584.96
2908.26,1565.51
2909.71,1557.59
2911.16,1542.85
2912.61,1565.73
2914.06,1573.27
2915.51,1558.02
2916.97,1561.15
2918.42,1530.36
2919.87,1542.49
2921.32,1498.06
2922.77,1524.26
2924.23,1497.44
2925.68,1488.93
2927.13,1497.02
2928.58,1505.22
2930.03,1471.13
2931.48,1487.95
2932.94,1445.17
2934.39,1431.26
2935.84,1419.42
2937.29,1405.34
2938.74,1435.19
2940.2,1422.08
2941.65,1364.4
2943.1,1344.5
2944.55,1363.99
2946,1344.73
2947.45,1336.64
2948.91,1339.9
2950.36,1315.72
2951.81,1308.06
2953.26,1289.78
2954.71,1254.66
2956.16,1277.47
2957.62,1253.57
2959.07,1229.09
2960.52,1234.76
2961.97,1225.51
2963.42,1221.85
2964.88,1199.17
2966.33,1212.53
2967.78,1204.96
2969.23,1185.34
2970.68,1187.76
2972.13,1185.34
2973.59,1188.42
2975.04,1180.5
2976.49,1153.61
2977.94,1158.48
2979.39,1129.27
2980.84,1143.04
2982.3,1136.43
2983.75,1140.55
2985.2,1117.25
2986.65,1117.15
2988.1,1124.99
2989.56,1103.7
2991.01,1104.27
2992.46,1115.86
2993.91,1089.47
2995.36,1101.81
2996.81,1125.81
2998.27,1097.16
2999.72,1090.15
3001.17,1067.07
3002.62,1060
3004.07,1061.01
3005.53,1087.89
3006.98,1071.55
3008.43,1079
3009.88,1084.18
3011.33,1070.36
3012.78,1073.3
3014.24,1065.64
3015.69,1075.19
3017.14,1063.89
3018.59,1059.28
3020.04,1038.16
3021.5,1064.68
3022.95,1061.71
3024.4,1050.47
3025.85,1046.11
3027.3,1048.49
3028.75,1075.07
3030.21,1045.56
3031.66,1046.93
3033.11,1055.43
3034.56,1036.44
3036.01,1032.87
3037.46,1052.12
3038.92,1052.25
3040.37,1033.85
3041.82,1050.41
3043.27,1026.27
3044.72,1049.84
3046.18,1032.17
3047.63,1040.82
3049.08,1036.25
3050.53,1064.67
3051.98,1054.97
3053.43,1048.99
3054.89,1051.65
3056.34,1072.34
3057.79,1058.8
3059.24,1041.16
3060.69,1046.28
3062.15,1059.6
3063.6,1039.9
3065.05,1042.14
3066.5,1072.79
3067.95,1068.52
3069.4,1082.57
3070.86,1084.75
3072.31,1089.4
3073.76,1063.47
3075.21,1074.22
3076.66,1101.77
3078.11,1093.68
3079.57,1090.93
3081.02,1113.67
3082.47,1105.15
3083.92,1111.56
3085.37,1115.71
3086.83,1150.57
3088.28,1127
3089.73,1128.85
3091.18,1151.72
3092.63,1173.95
3094.08,1186.44
3095.54,1170.35
3096.99,1189.52
3098.44,1248.37
3099.89,1212.56
3101.34,1249.53
3102.8,1250.31
3104.25,1257.94
3105.7,1281.57
3107.15,1284.31
3108.6,1313.48
3110.05,1337.89
3111.51,1299.47
3112.96,1342.87
3114.41,1371.59
3115.86,1389.88
3117.31,1409.93
3118.76,1428.87
3120.22,1472.77
3121.67,1445.23
3123.12,1468.91
3124.57,1514.12
3126.02,1508.75
3127.48,1507.12
3128.93,1520.72
3130.38,1538.66
3131.83,1572.63
3133.28,1585.32
3134.73,1577.52
3136.19,1608.6
3137.64,1620.57
3139.09,1610.53
3140.54,1631
3141.99,1625.35
3143.45,1621.99
3144.9,1667.44
3146.35,1652.43
3147.8,1635.22
3149.25,1686.76
3150.7,1648.22
3152.16,1663.38
3153.61,1641.87
3155.06,1674.1
3156.51,1664.58
3157.96,1668.52
3159.42,1638.15
3160.87,1677.62
3162.32,1674.88
3163.77,1651.46
3165.22,1682.58
3166.67,1706.71
3168.13,1679.86
3169.58,1681.19
3171.03,1735.91
3172.48,1721.61
3173.93,1725.89
3175.38,1732.79
3176.84,1768.2
3178.29,1788.8
3179.74,1844.11
3181.19,1782.74
3182.64,1810.16
3184.1,1868
3185.55,1838.89
3187,1838.2
3188.45,1869.75
3189.9,1941.64
3191.35,1936.68
3192.81,1948.27
3194.26,1911.74
3195.71,1962.3
3197.16,1992.49
3198.61,1981.41
3200.06,1977.01
3201.52,1998.74
3202.97,2008.16
3204.42,1992.41
3205.87,1960.63
3207.32,1952.64
3208.78,1939.22
3210.23,1926.37
3211.68,1870.65
3213.13,1826.14
3214.58,1830.86
3216.03,1795.2
3217.49,1788.72
3218.94,1775.26
3220.39,1703.46
3221.84,1678.44
3223.29,1616.29
3224.75,1578.09
3226.2,1547.52
3227.65,1513.97
3229.1,1494.03
3230.55,1443.54
3232,1390.88
3233.46,1368.56
3234.91,1331.2
3236.36,1291.54
3237.81,1258.7
3239.26,1251.68
3240.72,1213.78
3242.17,1198.43
3243.62,1151.18
3245.07,1138.9
3246.52,1121.57
3247.97,1115.08
3249.43,1096.79
3250.88,1059.08
3252.33,1038.02
3253.78,1048.39
3255.23,1023.57
3256.68,1015.88
3258.14,1004.32
3259.59,964.172
3261.04,969.548
3262.49,954.706
3263.94,942.841
3265.4,961.686
3266.85,936.226
3268.3,950.25
3269.75,920.089
3271.2,941.967
3272.65,930.127
3274.11,905.873
3275.56,888.37
3277.01,926.235
3278.46,920.557
3279.91,911.043
3281.37,896.391
3282.82,889.935
3284.27,894.311
3285.72,899.441
3287.17,881.763
3288.62,879.992
3290.08,904.317
3291.53,899.83
3292.98,884.559
3294.43,880.326
3295.88,885.861
3297.33,893.961
3298.79,873.989
3300.24,848.584
3301.69,847.369
3303.14,851.046
3304.59,876.546
3306.05,857.296
3307.5,848.671
3308.95,847.067
3310.4,857.772
3311.85,886.06
3313.3,867.071
3314.76,859.535
3316.21,857.462
3317.66,854.389
3319.11,837.879
3320.56,848.941
3322.02,861.219
3323.47,863.514
3324.92,851.276
3326.37,837.744
3327.82,831.661
3329.27,852.165
3330.73,845.304
3332.18,826.372
3333.63,833.074
3335.08,828.627
3336.53,843.342
3337.98,860.282
3339.44,850.664
3340.89,850.371
3342.34,837.331
3343.79,843.946
3345.24,843.573
3346.7,833.972
3348.15,833.606
3349.6,832.121
3351.05,847.313
3352.5,837.95
3353.95,842.207
3355.41,856.494
3356.86,824.489
3358.31,835.735
3359.76,830.191
3361.21,824.601
3362.67,834.043
3364.12,800.649
3365.57,839.404
3367.02,831.716
3368.47,828.651
3369.92,839.046
3371.38,833.614
3372.83,855.136
3374.28,831.176
3375.73,822.631
3377.18,824.982
3378.63,837.363
3380.09,820.368
3381.54,805.914
3382.99,814.094
3384.44,822.218
3385.89,829.802
3387.35,822.973
3388.8,834.813
3390.25,834.194
3391.7,827.205
3393.15,823.886
3394.6,830.692
3396.06,839.594
3397.51,805.724
3398.96,815.341
3400.41,811.307
3401.86,806.153
3403.32,828.071
3404.77,842.112
3406.22,848.012
3407.67,820.304
3409.12,817.866
3410.57,816.23
3412.03,827.245
3413.48,816.993
3414.93,831.073
3416.38,809.901
3417.83,818.573
3419.28,831.915
3420.74,826.109
3422.19,840.364
3423.64,824.958
3425.09,820.995
3426.54,819.065
3428,804.771
3429.45,806.844
3430.9,807.058
3432.35,806.947
3433.8,802.126
3435.25,785.245
3436.71,803.842
3438.16,817.954
3439.61,812.887
3441.06,821.345
3442.51,808.789
3443.97,816.731
3445.42,835.314
3446.87,806.574
3448.32,804.969
3449.77,806.836
3451.22,806.502
3452.68,816.929
3454.13,803.834
3455.58,797.393
3457.03,801.928
3458.48,804.572
3459.94,783.61
3461.39,793.114
3462.84,787.429
3464.29,803.397
3465.74,813.475
3467.19,825.014
3468.65,801.419
3470.1,811.434
3471.55,801.229
3473,796.258
3474.45,811.108
3475.9,797.33
3477.36,793.542
3478.81,776.101
3480.26,785.487
3481.71,812.291
3483.16,809.544
3484.62,824.839
3486.07,808.94
3487.52,817.437
3488.97,821.813
3490.42,836.672
3491.87,787.636
3493.33,802.182
3494.78,815.802
3496.23,798.084
3497.68,794.86
3499.13,811.172
3500.58,817.294
3502.04,803.238
3503.49,821.083
3504.94,808.559
3506.39,817.565
3507.84,806.232
3509.3,781.391
3510.75,813.483
3512.2,806.097
3513.65,806.184
3515.1,811.958
3516.55,837.426
3518.01,827.809
3519.46,818.978
3520.91,802.023
3522.36,808.384
3523.81,824.466
3525.27,781.302
3526.72,792.585
3528.17,799.117
3529.62,808.9
3531.07,820.717
3532.52,809.837
3533.98,828.611
3535.43,807.161
3536.88,819.828
3538.33,809.861
3539.78,808.368
3541.24,813.181
3542.69,787.997
3544.14,813.657
3545.59,825.276
3547.04,791.775
3548.49,800.689
3549.95,802.325
3551.4,803.413
3552.85,781.851
3554.3,802.468
3555.75,796.154
3557.2,806.828
3558.66,783.765
3560.11,794.041
3561.56,804.842
3563.01,789.247
3564.46,801.38
3565.92,811.918
3567.37,801.602
3568.82,807.201
3570.27,800.141
3571.72,808.877
3573.17,794.209
3574.63,806.041
3576.08,813.983
3577.53,782.649
3578.98,792.177
3580.43,798.338
3581.89,807.495
3583.34,818.144
3584.79,804.517
3586.24,797.751
3587.69,800.347
3589.14,800.435
3590.6,804.008
3592.05,791.064
3593.5,791.235
3594.95,804.08
3596.4,787.252
3597.85,797.854
3599.31,793.453
3600.76,793.978
3602.21,793.087
3603.66,801.03
3605.11,799.831
3606.57,796.726
3608.02,807.066
3609.47,795.956
3610.92,800.84
3612.37,805.073
3613.82,795.86
3615.28,802.349
3616.73,792.547
3618.18,783.639
3619.63,814.324
3621.08,779.462
3622.54,795.845
3623.99,780.695
3625.44,803.603
3626.89,813.832
3628.34,796.671
3629.79,801.872
3631.25,798.521
3632.7,806.732
3634.15,788.677
3635.6,792.66
3637.05,820.09
3638.5,808.202
3639.96,821.313
3641.41,786.63
3642.86,788.349
3644.31,801.88
3645.76,787.73
3647.22,792.257
3648.67,798.878
3650.12,778.624
3651.57,803.143
3653.02,794.463
3654.47,801.372
3655.93,795.289
3657.38,774.498
3658.83,817.294
3660.28,804.747
3661.73,799.426
3663.19,794.057
3664.64,799.807
3666.09,810.37
3667.54,817.35
3668.99,794.939
3670.44,785.769
3671.9,813.125
3673.35,827.404
3674.8,816.667
3676.25,801.737
3677.7,815.206
3679.16,807.932
3680.61,817.596
3682.06,797.941
3683.51,802.492
3684.96,804.795
3686.41,820.217
3687.87,797.33
3689.32,793.585
3690.77,788.491
3692.22,826.912
3693.67,795.273
3695.12,798.06
3696.58,823.417
3698.03,790.112
3699.48,796.726
3700.93,813.514
3702.38,819.804
3703.84,802.103
3705.29,818.43
3706.74,816.437
3708.19,809.75
3709.64,793.929
3711.09,793.291
3712.55,803.246
3714,802.047
3715.45,821.408
3716.9,818.43
3718.35,805.914
3719.8,820.566
3721.26,798.942
3722.71,816.04
3724.16,816.254
3725.61,824.148
3727.06,827.078
3728.52,832.852
3729.97,830.207
3731.42,841.302
3732.87,812.164
3734.32,820.995
3735.77,811.886
3737.23,824.172
3738.68,823.378
3740.13,814.658
3741.58,806.859
3743.03,847.933
3744.49,824.331
3745.94,817.842
3747.39,822.028
3748.84,816.882
3750.29,819.359
3751.74,817.31
3753.2,813.832
3754.65,813.244
3756.1,830.183
3757.55,815.007
3759,825.276
3760.46,840.579
3761.91,824.442
3763.36,835.21
3764.81,835.607
3766.26,810.425
3767.71,822.766
3769.17,831.954
3770.62,833.312
3772.07,832.741
3773.52,830.287
3774.97,812.323
3776.42,822.131
3777.88,816.524
3779.33,839.221
3780.78,831.875
3782.23,829.826
3783.68,839.483
3785.14,810.886
3786.59,819.065
3788.04,832.479
3789.49,848.751
3790.94,855.882
3792.39,828.738
3793.85,826.515
3795.3,831.851
3796.75,835.33
3798.2,842.326
3799.65,813.284
3801.1,817.628
3802.56,836.148
3804.01,836.386
3805.46,855.31
3806.91,837.22
3808.36,847.027
3809.82,831.025
3811.27,821.265
3812.72,831.613
3814.17,847.258
3815.62,848.179
3817.07,852.022
3818.53,842.922
3819.98,841.762
3821.43,845.145
3822.88,841.111
3824.33,862.735
3825.79,857.272
3827.24,840.102
3828.69,841.151
3830.14,820.026
3831.59,847.575
3833.04,842.437
3834.5,841.087
3835.95,827.031
3837.4,825.943
3838.85,861.338
3840.3,831.446
3841.76,846.948
3843.21,845.352
3844.66,843.763
3846.11,843.843
3847.56,834.194
3849.01,866.055
3850.47,864.125
3851.92,865.602
3853.37,854.048
3854.82,878.714
3856.27,868.549
3857.72,872.909
3859.18,853.007
3860.63,864.3
3862.08,853.952
3863.53,869.637
3864.98,897.201
3866.44,874.052
3867.89,871.765
3869.34,859.924
3870.79,850.037
3872.24,877.213
3873.69,883.78
3875.15,868.62
3876.6,873.973
3878.05,873.901
3879.5,877.975
3880.95,899.838
3882.41,883.669
3883.86,869.057
3885.31,868.652
3886.76,889.458
3888.21,878.293
3889.66,881.477
3891.12,885.464
3892.57,857.161
3894.02,893.04
3895.47,886.06
3896.92,909.201
3898.37,878.658
3899.83,876.911
3901.28,894.62
3902.73,891.166
3904.18,897.209
3905.63,917.682
3907.09,873.266
3908.54,907.422
3909.99,910.932
3911.44,914.212
3912.89,936.178
3914.34,915.665
3915.8,911.043
3917.25,937.369
3918.7,919.985
3920.15,895.303
3921.6,926.188
3923.06,893.58
3924.51,891.079
3925.96,912.346
3927.41,935.757
3928.86,925.481
3930.31,938.298
3931.77,944.842
3933.22,945.509
3934.67,946.764
3936.12,946.915
3937.57,936.535
3939.02,909.296
3940.48,946.097
3941.93,976.338
3943.38,976.211
3944.83,946.383
3946.28,966.554
3947.74,979.292
3949.19,990.942
3950.64,975.512
3952.09,980.277
3953.54,950.441
3954.99,978.172
3956.45,973.01
3957.9,966.546
3959.35,988.067
3960.8,973.344
3962.25,988.06
3963.71,977.672
3965.16,971.057
3966.61,982.842
3968.06,988.711
3969.51,988.75
3970.96,1009.76
3972.42,994.222
3973.87,995.771
3975.32,1009.91
3976.77,1010.59
3978.22,998.352
3979.68,1019.37
3981.13,1009.79
3982.58,1018.19
3984.03,1031.19
3985.48,1035.28
3986.93,1010.9
3988.39,1033.92
3989.84,1036.77
3991.29,1017.97
3992.74,1034.8
3994.19,1021.83
3995.64,1026.89
3997.1,1043.88
3998.55,1037.87
4000,1040.68
