0,16978.5
1.77681,16145
3.2286,10353.1
4.68039,2994.45
6.13218,510.612
7.58397,92.3554
9.03575,57.6251
10.4875,53.6091
11.9393,53.3101
13.3911,53.0865
14.8429,52.3754
16.2947,51.5363
17.7465,50.2379
19.1983,47.8648
20.6501,45.8255
22.1018,43.5216
23.5536,41.8328
25.0054,40.6344
26.4572,38.0956
27.909,35.0854
29.3608,32.6032
30.8126,28.8908
32.2644,28.2329
33.7161,27.7909
35.1679,27.3887
36.6197,27.3889
38.0715,26.3058
39.5233,26.2812
40.9751,27.3434
42.4269,28.5675
43.8787,28.7001
45.3304,31.3926
46.7822,36.9908
48.234,45.6675
49.6858,63.3393
51.1376,98.3464
52.5894,166.508
54.0412,260.262
55.493,375.953
56.9447,500.888
58.3965,643.066
59.8483,757.809
61.3001,860.679
62.7519,939.612
64.2037,995.503
65.6555,1015.4
67.1073,1046.8
68.559,1069.84
70.0108,1081.36
71.4626,1089.54
72.9144,1094.48
74.3662,1103.13
75.818,1122.76
77.2698,1135.83
78.7216,1160.27
80.1733,1199.02
81.6251,1221.08
83.0769,1247.79
84.5287,1264.78
85.9805,1257.61
87.4323,1227.3
88.8841,1185.31
90.3359,1134.84
91.7877,1076.73
93.2394,1017.46
94.6912,967.284
96.143,915.224
97.5948,871.215
99.0466,846.617
100.498,835.9
101.95,813.058
103.402,790.611
104.854,780.668
106.306,775.334
107.757,763.301
109.209,747.987
110.661,730.252
112.113,721.111
113.564,720.51
115.016,708.428
116.468,691.568
117.92,682.038
119.372,676.421
120.823,657.665
122.275,663.331
123.727,650.077
125.179,630.328
126.631,620.774
128.082,620.066
129.534,604.038
130.986,593.697
132.438,587.257
133.889,577.405
135.341,566.733
136.793,553.75
138.245,545.872
139.697,545.891
141.148,547.297
142.6,541.443
144.052,541.747
145.504,540.046
146.956,535.51
148.407,525.084
149.859,514.069
151.311,505.232
152.763,506.763
154.215,507.04
155.666,502.404
157.118,480.698
158.57,471.001
160.022,469.959
161.473,469.425
162.925,461.265
164.377,464.245
165.829,465.849
167.281,461.08
168.732,453.078
170.184,458.504
171.636,448.773
173.088,437.318
174.54,433.87
175.991,435.258
177.443,414.497
178.895,417.781
180.347,417.778
181.798,413.498
183.25,402.969
184.702,409.731
186.154,407.304
187.606,403.749
189.057,397.185
190.509,390.778
191.961,384.918
193.413,388.63
194.865,396.194
196.316,396.668
197.768,390.14
199.22,388.378
200.672,388.858
202.124,391.953
203.575,387.864
205.027,376.46
206.479,375.288
207.931,378.547
209.382,377.326
210.834,378.086
212.286,386.282
213.738,382.181
215.19,377.739
216.641,382.241
218.093,388.882
219.545,392.558
220.997,392.588
222.449,374.926
223.9,379.453
225.352,384.377
226.804,382.858
228.256,371.703
229.707,373.392
231.159,378.83
232.611,379.027
234.063,381.658
235.515,380.844
236.966,383.882
238.418,382.867
239.87,381.054
241.322,379.522
242.774,376.017
244.225,374.969
245.677,375.239
247.129,376.946
248.581,372.757
250.033,364.409
251.484,369.097
252.936,360.022
254.388,354.922
255.84,358.753
257.291,364.804
258.743,358.336
260.195,356.863
261.647,355.934
263.099,357.383
264.55,357.477
266.002,351.085
267.454,353.892
268.906,357.003
270.358,358.036
271.809,353.181
273.261,345.079
274.713,348.333
276.165,348.375
277.616,346.051
279.068,342.594
280.52,341.85
281.972,339.092
283.424,330.142
284.875,325.124
286.327,327.405
287.779,329.249
289.231,329.216
290.683,331.096
292.134,329.158
293.586,321.411
295.038,312.665
296.49,319.628
297.941,319.188
299.393,316.967
300.845,315.594
302.297,313.85
303.749,312.787
305.2,307.492
306.652,307.55
308.104,305.936
309.556,299.104
311.008,303.548
312.459,309.788
313.911,302.433
315.363,299.676
316.815,302.913
318.267,291.094
319.718,299.807
321.17,298.312
322.622,299.204
324.074,300.606
325.525,296.472
326.977,300.467
328.429,300.783
329.881,289.859
331.333,282.27
332.784,290.074
334.236,287.182
335.688,280.461
337.14,288.484
338.592,291.499
340.043,285.683
341.495,283.517
342.947,288.263
344.399,286.665
345.85,282.964
347.302,282.843
348.754,286.021
350.206,283.393
351.658,280.378
353.109,280.465
354.561,282.35
356.013,281.902
357.465,272.694
358.917,274.083
360.368,275.164
361.82,274.99
363.272,276.156
364.724,279.385
366.176,274.383
367.627,270.563
369.079,271.199
370.531,275.699
371.983,277.234
373.434,270.033
374.886,271.311
376.338,272.916
377.79,273.127
379.242,271.295
380.693,273.379
382.145,263.7
383.597,268.203
385.049,273.935
386.501,277.893
387.952,278.986
389.404,275.117
390.856,270.864
392.308,271.189
393.759,272.863
395.211,273.336
396.663,267.847
398.115,275.85
399.567,272.755
401.018,268.464
402.47,266.643
403.922,271.22
405.374,271.065
406.826,272.103
408.277,271.628
409.729,270.766
411.181,271.49
412.633,276.276
414.085,272.407
415.536,267.731
416.988,269.124
418.44,272.618
419.892,271.429
421.343,280.152
422.795,270.442
424.247,266.714
425.699,267.408
427.151,268.432
428.602,266.359
430.054,262.367
431.506,271.243
432.958,272.693
434.41,269.97
435.861,271.717
437.313,263.252
438.765,262.962
440.217,273.416
441.668,278.106
443.12,272.761
444.572,260.255
446.024,269.539
447.476,265.089
448.927,263.755
450.379,264.114
451.831,264.653
453.283,266.909
454.735,259.072
456.186,261.727
457.638,265.492
459.09,268.335
460.542,269.204
461.993,268.45
463.445,268.262
464.897,263.651
466.349,264.201
467.801,266.187
469.252,259.439
470.704,260.334
472.156,264.339
473.608,268.393
475.06,267.236
476.511,259.952
477.963,258.08
479.415,263.766
480.867,266.978
482.319,265.18
483.77,259.579
485.222,255.515
486.674,263.373
488.126,267.805
489.577,263.141
491.029,260.644
492.481,260.09
493.933,253.407
495.385,254.351
496.836,254.372
498.288,258.506
499.74,258.402
501.192,254.425
502.644,252.522
504.095,255
505.547,257.519
506.999,259.58
508.451,259.013
509.902,255.038
511.354,259.868
512.806,254.081
514.258,255.145
515.71,256.959
517.161,258.097
518.613,254.732
520.065,246.701
521.517,256.787
522.969,256.699
524.42,251.932
525.872,247.741
527.324,251.412
528.776,251.941
530.228,255.741
531.679,260.564
533.131,256.647
534.583,251.702
536.035,253.645
537.486,262.248
538.938,259.605
540.39,253.402
541.842,252.491
543.294,254.811
544.745,257.192
546.197,256.89
547.649,255.098
549.101,252.132
550.553,256.994
552.004,260.535
553.456,254.548
554.908,255.434
556.36,250.883
557.811,251.379
559.263,252.69
560.715,256.247
562.167,257.407
563.619,265.657
565.07,258.459
566.522,257.278
567.974,258.656
569.426,255.145
570.878,250.329
572.329,255.081
573.781,249.644
575.233,254.129
576.685,257.571
578.137,257.38
579.588,251.581
581.04,248.421
582.492,253.225
583.944,250.818
585.395,251.41
586.847,253.41
588.299,252.762
589.751,251.336
591.203,250.871
592.654,248.571
594.106,251.778
595.558,256.192
597.01,254.111
598.462,249.606
599.913,253.912
601.365,247.179
602.817,246.474
604.269,252.61
605.72,252.009
607.172,257.658
608.624,259.241
610.076,259.875
611.528,255.345
612.979,250.618
614.431,251.616
615.883,247.6
617.335,250.264
618.787,253.464
620.238,258.854
621.69,257.33
623.142,248.66
624.594,255.693
626.046,254.693
627.497,257.786
628.949,255.768
630.401,257.222
631.853,259.377
633.304,251.173
634.756,248.718
636.208,255.033
637.66,256.456
639.112,257.35
640.563,259.29
642.015,257.954
643.467,254.915
644.919,256.553
646.371,261.145
647.822,262.943
649.274,262.217
650.726,261.867
652.178,265.641
653.629,255.913
655.081,256.765
656.533,261.566
657.985,264.176
659.437,263.582
660.888,267.004
662.34,262.198
663.792,258.73
665.244,261.399
666.696,261.53
668.147,261.219
669.599,269.93
671.051,271.491
672.503,263.101
673.954,262.649
675.406,262.272
676.858,259.787
678.31,265.096
679.762,272.019
681.213,266.724
682.665,261.327
684.117,260.626
685.569,265.304
687.021,273.62
688.472,273.634
689.924,268.722
691.376,266.425
692.828,268.644
694.28,271.661
695.731,268.296
697.183,267.845
698.635,262.07
700.087,262.526
701.538,263.843
702.99,264.499
704.442,263.118
705.894,265.616
707.346,272.713
708.797,274.935
710.249,268.61
711.701,270.026
713.153,270.156
714.605,265.147
716.056,266.411
717.508,266.937
718.96,273.162
720.412,269.18
721.863,266.358
723.315,267.766
724.767,269.688
726.219,269.828
727.671,270.262
729.122,263.099
730.574,262.417
732.026,264.828
733.478,271.072
734.93,275.122
736.381,272.348
737.833,264.922
739.285,267.657
740.737,268.397
742.189,269.409
743.64,272.056
745.092,270.468
746.544,269.822
747.996,273.534
749.447,269.262
750.899,273.07
752.351,273.584
753.803,266.66
755.255,270.537
756.706,266.937
758.158,266.566
759.61,274.336
761.062,276.915
762.514,277.714
763.965,275.083
765.417,269.972
766.869,270.422
768.321,274.123
769.772,272.996
771.224,274.679
772.676,276.32
774.128,269.641
775.58,271.432
777.031,267.279
778.483,272.226
779.935,268.033
781.387,266.633
782.839,270.611
784.29,273.053
785.742,275.633
787.194,281.416
788.646,277.221
790.098,279.018
791.549,279.906
793.001,277.854
794.453,281.171
795.905,277.659
797.356,270.994
798.808,271.722
800.26,269.3
801.712,272.486
803.164,279.84
804.615,280.385
806.067,283.27
807.519,275.963
808.971,278.268
810.423,277.971
811.874,278.167
813.326,275.746
814.778,280.339
816.23,281.094
817.681,281.179
819.133,276.975
820.585,282.075
822.037,282.707
823.489,279.416
824.94,277.713
826.392,283.494
827.844,286.501
829.296,288.388
830.748,289.374
832.199,290.217
833.651,285.858
835.103,286.788
836.555,287.629
838.007,287.36
839.458,285.432
840.91,287.848
842.362,289.951
843.814,291.728
845.265,285.499
846.717,284.339
848.169,293.651
849.621,301.249
851.073,302.453
852.524,299.394
853.976,298.503
855.428,296.186
856.88,297.558
858.332,296.253
859.783,299.332
861.235,300.098
862.687,297.134
864.139,294.497
865.59,293
867.042,294.376
868.494,291.075
869.946,290.775
871.398,296.584
872.849,293.694
874.301,285.243
875.753,288.184
877.205,289.999
878.657,294.363
880.108,292.27
881.56,292.971
883.012,293.325
884.464,294.892
885.915,295.616
887.367,296.573
888.819,294.643
890.271,302.596
891.723,299.089
893.174,305.335
894.626,303.519
896.078,298.735
897.53,301.296
898.982,301.838
900.433,299.962
901.885,305.581
903.337,296.464
904.789,299.473
906.241,306.644
907.692,307.625
909.144,301.827
910.596,300.42
912.048,306.684
913.499,306.839
914.951,307.753
916.403,307.783
917.855,307.258
919.307,310.332
920.758,311.414
922.21,310.369
923.662,313.197
925.114,314.348
926.566,314.078
928.017,310.597
929.469,308.391
930.921,312.608
932.373,312.674
933.824,312.298
935.276,312.009
936.728,321.97
938.18,318.866
939.632,314.041
941.083,317.377
942.535,305.472
943.987,315.694
945.439,317.736
946.891,312.383
948.342,312.134
949.794,312.067
951.246,312.881
952.698,314.774
954.15,312.52
955.601,314.959
957.053,316.362
958.505,313.765
959.957,318.331
961.408,316.302
962.86,308.944
964.312,310.338
965.764,322.028
967.216,313.075
968.667,314.585
970.119,317.514
971.571,317.107
973.023,312.863
974.475,312.504
975.926,319.589
977.378,319.336
978.83,314.531
980.282,316.596
981.733,315.345
983.185,319.446
984.637,323.416
986.089,319.534
987.541,320.211
988.992,317.86
990.444,319.598
991.896,322.711
993.348,317.164
994.8,319.61
996.251,328.903
997.703,328.723
999.155,323.131
1000.61,330.583
1002.06,330.021
1003.51,331.23
1004.96,328.833
1006.41,330.546
1007.87,329.99
1009.32,337.248
1010.77,338.776
1012.22,332.235
1013.67,342.852
1015.12,333.848
1016.58,338.824
1018.03,341.346
1019.48,342.78
1020.93,343.709
1022.38,340.039
1023.84,343.901
1025.29,352.905
1026.74,357.981
1028.19,356.465
1029.64,357.458
1031.09,364.582
1032.55,366.924
1034,361.718
1035.45,365.655
1036.9,370.728
1038.35,368.82
1039.8,369.051
1041.26,371.879
1042.71,374.914
1044.16,384.088
1045.61,385.805
1047.06,378.192
1048.52,380.993
1049.97,392.072
1051.42,385.899
1052.87,391.242
1054.32,397.832
1055.77,390.444
1057.23,390.917
1058.68,405.633
1060.13,401.237
1061.58,413.027
1063.03,410.718
1064.49,413.079
1065.94,420.698
1067.39,425.813
1068.84,422.861
1070.29,426.773
1071.74,432.497
1073.2,430.741
1074.65,440.793
1076.1,438.572
1077.55,451.444
1079,449.776
1080.46,447.157
1081.91,451.249
1083.36,455.861
1084.81,447.109
1086.26,459.29
1087.71,457.389
1089.17,448.688
1090.62,451.322
1092.07,454.014
1093.52,443.861
1094.97,438.132
1096.42,456.796
1097.88,458.434
1099.33,443.302
1100.78,445.165
1102.23,445.514
1103.68,443.782
1105.14,445.496
1106.59,442.321
1108.04,436.148
1109.49,432.813
1110.94,442.594
1112.39,439.414
1113.85,436.977
1115.3,429.04
1116.75,426.093
1118.2,424.847
1119.65,423.738
1121.11,427.268
1122.56,421.597
1124.01,424.194
1125.46,410.156
1126.91,417.544
1128.36,409.995
1129.82,408.561
1131.27,412.465
1132.72,415.904
1134.17,415.627
1135.62,411.007
1137.07,409.792
1138.53,407.629
1139.98,408.592
1141.43,407.738
1142.88,402.23
1144.33,406.714
1145.79,411.362
1147.24,403.251
1148.69,396.234
1150.14,406.891
1151.59,408.239
1153.04,410.782
1154.5,407.243
1155.95,406.76
1157.4,406.963
1158.85,404.506
1160.3,406.529
1161.76,410.989
1163.21,405.083
1164.66,407.495
1166.11,408.634
1167.56,403.919
1169.01,402.789
1170.47,407.428
1171.92,412.201
1173.37,409.202
1174.82,410.369
1176.27,407.392
1177.72,412.043
1179.18,415.521
1180.63,421.317
1182.08,418.638
1183.53,412.772
1184.98,412.389
1186.44,412.675
1187.89,413.975
1189.34,418.696
1190.79,413.729
1192.24,421.913
1193.69,413.622
1195.15,418.428
1196.6,420.989
1198.05,424.103
1199.5,424.647
1200.95,426.664
1202.41,430.859
1203.86,426.047
1205.31,431.09
1206.76,435.522
1208.21,433.937
1209.66,429.386
1211.12,427.101
1212.57,429.99
1214.02,432.573
1215.47,432.509
1216.92,429.158
1218.37,439.566
1219.83,440.371
1221.28,437.983
1222.73,443.63
1224.18,440.152
1225.63,432.843
1227.09,431.108
1228.54,441.923
1229.99,448.303
1231.44,437.448
1232.89,435.027
1234.34,450.022
1235.8,447.671
1237.25,446.103
1238.7,451.769
1240.15,454.743
1241.6,452.267
1243.06,452.969
1244.51,460.67
1245.96,459.935
1247.41,467.961
1248.86,474.288
1250.31,470.385
1251.77,464.175
1253.22,469.95
1254.67,474.823
1256.12,479.933
1257.57,490.413
1259.02,494.32
1260.48,495.155
1261.93,502.316
1263.38,493.636
1264.83,510.703
1266.28,509.655
1267.74,507.851
1269.19,516.162
1270.64,526.114
1272.09,531.938
1273.54,538.898
1274.99,543.035
1276.45,549.202
1277.9,555.499
1279.35,572.603
1280.8,560.469
1282.25,575.507
1283.71,588.825
1285.16,599.269
1286.61,607.672
1288.06,616.226
1289.51,633.818
1290.96,655.475
1292.42,652.942
1293.87,675.853
1295.32,693.105
1296.77,705.977
1298.22,731.798
1299.67,758.753
1301.13,782.509
1302.58,800.339
1304.03,817.478
1305.48,845.457
1306.93,881.516
1308.39,907.636
1309.84,955.704
1311.29,991.295
1312.74,1026.77
1314.19,1077.2
1315.64,1127.2
1317.1,1169.66
1318.55,1219.07
1320,1273.75
1321.45,1317.97
1322.9,1370.55
1324.36,1427.31
1325.81,1485.01
1327.26,1547.2
1328.71,1573.77
1330.16,1602.13
1331.61,1647.37
1333.07,1680.18
1334.52,1698.93
1335.97,1728.2
1337.42,1718.9
1338.87,1708.94
1340.33,1682.34
1341.78,1667.87
1343.23,1621.23
1344.68,1569.58
1346.13,1530.92
1347.58,1486.82
1349.04,1433.43
1350.49,1374.49
1351.94,1308.13
1353.39,1262.46
1354.84,1217.69
1356.29,1143.04
1357.75,1104.76
1359.2,1059.4
1360.65,1021.88
1362.1,976.516
1363.55,933.679
1365.01,910.154
1366.46,877.935
1367.91,835.611
1369.36,817.745
1370.81,789.788
1372.26,763.747
1373.72,760.412
1375.17,741.532
1376.62,729.465
1378.07,709.16
1379.52,691.131
1380.98,679.164
1382.43,666.424
1383.88,662.186
1385.33,652.052
1386.78,639.344
1388.23,639.326
1389.69,626.883
1391.14,617.475
1392.59,618.465
1394.04,617.678
1395.49,604.868
1396.94,596.356
1398.4,592.898
1399.85,591.556
1401.3,590.672
1402.75,587.989
1404.2,589.918
1405.66,590.626
1407.11,581.485
1408.56,585.626
1410.01,579.748
1411.46,585.896
1412.91,590.259
1414.37,579.626
1415.82,581.768
1417.27,584.666
1418.72,588.254
1420.17,588.047
1421.63,588.251
1423.08,590.86
1424.53,590.413
1425.98,587.057
1427.43,602.893
1428.88,588.281
1430.34,598.236
1431.79,597.571
1433.24,601.429
1434.69,599.624
1436.14,605.828
1437.59,615.868
1439.05,614.327
1440.5,620.282
1441.95,615.892
1443.4,616.333
1444.85,615.919
1446.31,622.235
1447.76,621.758
1449.21,623.903
1450.66,633.108
1452.11,643.819
1453.56,650.059
1455.02,653.798
1456.47,651.234
1457.92,650.621
1459.37,665.066
1460.82,675.917
1462.28,680.161
1463.73,677.032
1465.18,697.003
1466.63,686.944
1468.08,702.28
1469.53,710.017
1470.99,710.782
1472.44,716.317
1473.89,724.93
1475.34,739.314
1476.79,761.08
1478.24,765.461
1479.7,767.846
1481.15,786.905
1482.6,797.285
1484.05,810.306
1485.5,829.809
1486.96,838.409
1488.41,851.672
1489.86,865.151
1491.31,881.079
1492.76,891.574
1494.21,897.872
1495.67,929.936
1497.12,970.006
1498.57,980.626
1500.02,991.368
1501.47,1018.04
1502.93,1051.44
1504.38,1051.53
1505.83,1100.83
1507.28,1118.83
1508.73,1163.38
1510.18,1204.31
1511.64,1243.31
1513.09,1289.42
1514.54,1325.48
1515.99,1383.36
1517.44,1455.87
1518.89,1516.59
1520.35,1566.25
1521.8,1625.77
1523.25,1712.11
1524.7,1802.91
1526.15,1941.74
1527.61,2037.09
1529.06,2185.9
1530.51,2326.3
1531.96,2495.37
1533.41,2690
1534.86,2890.41
1536.32,3121.06
1537.77,3398.02
1539.22,3697.71
1540.67,4022.33
1542.12,4354.89
1543.58,4791.4
1545.03,5233.74
1546.48,5731.49
1547.93,6211.87
1549.38,6722.2
1550.83,7249.39
1552.29,7827.4
1553.74,8384.88
1555.19,8929.93
1556.64,9504.18
1558.09,10035.7
1559.54,10517.8
1561,10947.4
1562.45,11294.8
1563.9,11511.2
1565.35,11661.6
1566.8,11690.2
1568.26,11611
1569.71,11311.1
1571.16,10943.5
1572.61,10500.9
1574.06,9968.48
1575.51,9399.61
1576.97,8794.35
1578.42,8186.96
1579.87,7606.98
1581.32,7029.51
1582.77,6484.94
1584.23,5980.29
1585.68,5490.44
1587.13,5082.61
1588.58,4655.61
1590.03,4275.05
1591.48,3940.77
1592.94,3617.45
1594.39,3385.63
1595.84,3179.54
1597.29,2961.26
1598.74,2813.2
1600.2,2666.1
1601.65,2519.71
1603.1,2383.47
1604.55,2268.63
1606,2155.13
1607.45,2046.55
1608.91,1956.24
1610.36,1871.48
1611.81,1785.41
1613.26,1679.22
1614.71,1599.28
1616.16,1525.27
1617.62,1449.74
1619.07,1388.4
1620.52,1312.6
1621.97,1273.16
1623.42,1223.44
1624.88,1168.66
1626.33,1133.55
1627.78,1089.6
1629.23,1052.25
1630.68,1017.59
1632.13,974.772
1633.59,955.169
1635.04,945.606
1636.49,927.154
1637.94,894.412
1639.39,862.299
1640.85,852.729
1642.3,833.998
1643.75,817.733
1645.2,799.947
1646.65,796.38
1648.1,787.406
1649.56,776.102
1651.01,752.878
1652.46,742.115
1653.91,730.377
1655.36,719.933
1656.81,718.408
1658.27,698.531
1659.72,681.069
1661.17,677.931
1662.62,670.561
1664.07,658.279
1665.53,655.791
1666.98,655.724
1668.43,639.15
1669.88,621.506
1671.33,618.131
1672.78,616.235
1674.24,599.509
1675.69,588.099
1677.14,593.284
1678.59,593.795
1680.04,584.131
1681.5,575.118
1682.95,574.434
1684.4,576.163
1685.85,571.643
1687.3,565.986
1688.75,559.142
1690.21,552.234
1691.66,548.048
1693.11,534.092
1694.56,540.845
1696.01,542.81
1697.46,534.21
1698.92,530.92
1700.37,524.614
1701.82,521.892
1703.27,520.977
1704.72,525.097
1706.18,525.27
1707.63,521.849
1709.08,515.691
1710.53,518.398
1711.98,516.056
1713.43,504.767
1714.89,508.239
1716.34,507.911
1717.79,508.449
1719.24,502.322
1720.69,507.547
1722.15,518.714
1723.6,507.638
1725.05,513.777
1726.5,507.176
1727.95,499.105
1729.4,504.269
1730.86,504.178
1732.31,510.84
1733.76,515.36
1735.21,498.509
1736.66,493.861
1738.11,499.582
1739.57,496.614
1741.02,489.368
1742.47,491.884
1743.92,494.007
1745.37,485.635
1746.83,481.063
1748.28,482.014
1749.73,486.048
1751.18,488.518
1752.63,482.898
1754.08,473.884
1755.54,483.545
1756.99,484.742
1758.44,477.454
1759.89,464.513
1761.34,472.18
1762.8,467.912
1764.25,464.835
1765.7,461.815
1767.15,466.083
1768.6,467.964
1770.05,466.712
1771.51,461.782
1772.96,449.803
1774.41,448.862
1775.86,452.215
1777.31,453.297
1778.76,446.75
1780.22,440.544
1781.67,448.029
1783.12,452.534
1784.57,448.865
1786.02,437.181
1787.48,438.36
1788.93,446.863
1790.38,438.536
1791.83,433.356
1793.28,443.974
1794.73,455.46
1796.19,435.073
1797.64,427.208
1799.09,434.675
1800.54,431.84
1801.99,431.491
1803.45,435.835
1804.9,436.303
1806.35,435.616
1807.8,437.372
1809.25,434.076
1810.7,428.918
1812.16,426.369
1813.61,426.305
1815.06,426.737
1816.51,424.112
1817.96,428.648
1819.41,431.312
1820.87,427.414
1822.32,422.879
1823.77,428.383
1825.22,430.707
1826.67,438.214
1828.13,424.498
1829.58,434.818
1831.03,430.941
1832.48,427.597
1833.93,425.737
1835.38,419.58
1836.84,440.076
1838.29,435.823
1839.74,444.435
1841.19,446.814
1842.64,444.238
1844.1,447.537
1845.55,445.371
1847,447.118
1848.45,445.559
1849.9,442.269
1851.35,448.655
1852.81,458.242
1854.26,458.899
1855.71,456.532
1857.16,462.848
1858.61,464.379
1860.07,455.937
1861.52,452.088
1862.97,451.365
1864.42,456.295
1865.87,458.416
1867.32,470.339
1868.78,462.796
1870.23,451.72
1871.68,447.343
1873.13,454.093
1874.58,443.245
1876.03,441.033
1877.49,454.667
1878.94,446.264
1880.39,435.96
1881.84,438.004
1883.29,442.509
1884.75,441.319
1886.2,440.599
1887.65,430.959
1889.1,425.637
1890.55,429.738
1892,431.099
1893.46,423.535
1894.91,424.799
1896.36,426.445
1897.81,420.057
1899.26,417.869
1900.72,415.324
1902.17,414.716
1903.62,412.994
1905.07,415.715
1906.52,408.327
1907.97,407.38
1909.43,413.346
1910.88,409.275
1912.33,410.308
1913.78,405.845
1915.23,410.05
1916.68,410.123
1918.14,401.644
1919.59,405.25
1921.04,393.779
1922.49,404.366
1923.94,402.638
1925.4,405.065
1926.85,406.353
1928.3,399.843
1929.75,389.368
1931.2,402.805
1932.65,407.267
1934.11,404.478
1935.56,406.271
1937.01,397.288
1938.46,404.002
1939.91,403.108
1941.37,407.091
1942.82,407.194
1944.27,407.823
1945.72,415.302
1947.17,408.188
1948.62,407.677
1950.08,402.975
1951.53,405.672
1952.98,407.091
1954.43,407.535
1955.88,402.704
1957.33,411.985
1958.79,415.597
1960.24,403.932
1961.69,398.986
1963.14,407.544
1964.59,406.41
1966.05,411.991
1967.5,413.513
1968.95,412.915
1970.4,418.182
1971.85,418.082
1973.3,416.666
1974.76,421.645
1976.21,419.68
1977.66,417.933
1979.11,418.468
1980.56,415.211
1982.02,420.336
1983.47,415.977
1984.92,413.884
1986.37,419.176
1987.82,425.124
1989.27,423.735
1990.73,421.487
1992.18,420.579
1993.63,421.384
1995.08,422.627
1996.53,429.368
1997.98,415.475
1999.44,415.409
2000.89,433.153
2002.34,416.539
2003.79,422.274
2005.24,419.382
2006.7,429.38
2008.15,419.555
2009.6,425.983
2011.05,424.3
2012.5,423.031
2013.95,426.849
2015.41,417.371
2016.86,410.162
2018.31,410.053
2019.76,408.47
2021.21,406.599
2022.67,403.181
2024.12,399.351
2025.57,411.213
2027.02,407.866
2028.47,410.694
2029.92,395.252
2031.38,402.373
2032.83,404.764
2034.28,403.546
2035.73,394.04
2037.18,397.54
2038.63,392.758
2040.09,391.683
2041.54,382.208
2042.99,390.93
2044.44,393.445
2045.89,388.035
2047.35,383.906
2048.8,387.925
2050.25,385.455
2051.7,385.978
2053.15,391.045
2054.6,386.245
2056.06,376.068
2057.51,382.396
2058.96,380.504
2060.41,376.621
2061.86,378.66
2063.32,381.552
2064.77,377.803
2066.22,373.89
2067.67,374.352
2069.12,379.826
2070.57,371.627
2072.03,378.401
2073.48,377.05
2074.93,373.015
2076.38,370.552
2077.83,376.782
2079.28,377.648
2080.74,372.466
2082.19,370.661
2083.64,376.883
2085.09,382.281
2086.54,378.702
2088,374.322
2089.45,371.998
2090.9,365.621
2092.35,364.142
2093.8,367.371
2095.25,369.649
2096.71,365.633
2098.16,374.926
2099.61,378.881
2101.06,380.422
2102.51,379.775
2103.97,377.876
2105.42,369.734
2106.87,368.194
2108.32,367.344
2109.77,364.239
2111.22,365.056
2112.68,364.206
2114.13,366.496
2115.58,364.263
2117.03,366.73
2118.48,372.979
2119.94,370.503
2121.39,377.843
2122.84,372.763
2124.29,375.43
2125.74,377.8
2127.19,378.957
2128.65,387.746
2130.1,376.008
2131.55,373.425
2133,377.761
2134.45,375.601
2135.9,375.236
2137.36,379.219
2138.81,374.188
2140.26,372.15
2141.71,366.165
2143.16,377.94
2144.62,379.061
2146.07,376.482
2147.52,374.735
2148.97,376.081
2150.42,381.965
2151.87,375.859
2153.33,387.682
2154.78,384.985
2156.23,381.701
2157.68,379.167
2159.13,382.773
2160.58,386.51
2162.04,384.061
2163.49,396.431
2164.94,394.277
2166.39,384.833
2167.84,387.184
2169.3,386.634
2170.75,389.672
2172.2,390.523
2173.65,389.672
2175.1,394.803
2176.55,398.95
2178.01,397.728
2179.46,389.806
2180.91,396.498
2182.36,398.734
2183.81,403.4
2185.27,400.848
2186.72,405.906
2188.17,409.075
2189.62,401.222
2191.07,401.635
2192.52,404.746
2193.98,404.518
2195.43,399.402
2196.88,404.114
2198.33,403.859
2199.78,397.716
2201.24,398.542
2202.69,404.238
2204.14,409.151
2205.59,394.523
2207.04,409.5
2208.49,405.654
2209.95,404.721
2211.4,413.3
2212.85,406.107
2214.3,403.853
2215.75,397.777
2217.2,405.198
2218.66,405.703
2220.11,413.3
2221.56,411.523
2223.01,406.362
2224.46,411.544
2225.92,414.403
2227.37,413.862
2228.82,399.162
2230.27,416.463
2231.72,401.811
2233.17,401.987
2234.63,413.616
2236.08,414.115
2237.53,411.903
2238.98,408.707
2240.43,422.308
2241.89,413.139
2243.34,418.459
2244.79,412.082
2246.24,420.816
2247.69,419.37
2249.14,419.218
2250.6,416.217
2252.05,417.775
2253.5,412.45
2254.95,417.165
2256.4,418.489
2257.85,427.463
2259.31,427.627
2260.76,426.348
2262.21,422.672
2263.66,428.882
2265.11,430.1
2266.57,427.709
2268.02,428.198
2269.47,437.95
2270.92,435.44
2272.37,430.4
2273.82,434.474
2275.28,436.901
2276.73,435.89
2278.18,430.06
2279.63,437.561
2281.08,440.723
2282.54,436.437
2283.99,442.397
2285.44,443.418
2286.89,445.152
2288.34,444.867
2289.79,436.901
2291.25,447.203
2292.7,450.377
2294.15,446.179
2295.6,450.235
2297.05,459.546
2298.5,459.202
2299.96,441.121
2301.41,447.431
2302.86,454.579
2304.31,459.71
2305.76,461.936
2307.22,453.078
2308.67,460.615
2310.12,456.247
2311.57,466.293
2313.02,467.581
2314.47,469.009
2315.93,468.796
2317.38,468.747
2318.83,465.843
2320.28,468.711
2321.73,466.268
2323.19,472.906
2324.64,473.79
2326.09,473.319
2327.54,477.168
2328.99,481.771
2330.44,482.071
2331.9,484.338
2333.35,495.271
2334.8,490.878
2336.25,495.341
2337.7,491.61
2339.16,494.654
2340.61,502.331
2342.06,504.667
2343.51,500.359
2344.96,511.241
2346.41,503.455
2347.87,499.709
2349.32,508.631
2350.77,516.706
2352.22,528.788
2353.67,517.043
2355.12,518.377
2356.58,519.993
2358.03,534.034
2359.48,530.887
2360.93,544.238
2362.38,533.521
2363.84,538.569
2365.29,546.711
2366.74,556.636
2368.19,547.391
2369.64,562.487
2371.09,560.64
2372.55,568.544
2374,573.256
2375.45,577.7
2376.9,588.898
2378.35,593.716
2379.8,593.871
2381.26,603.324
2382.71,602.036
2384.16,610.232
2385.61,627.919
2387.06,644.345
2388.52,645.812
2389.97,638.02
2391.42,642.968
2392.87,672.022
2394.32,683.7
2395.77,709.315
2397.23,709.467
2398.68,712.827
2400.13,721.078
2401.58,739.988
2403.03,746.83
2404.49,765.959
2405.94,777.779
2407.39,786.067
2408.84,800.475
2410.29,820.458
2411.74,821.968
2413.2,830.705
2414.65,846.095
2416.1,853.13
2417.55,867.281
2419,874.815
2420.46,881.085
2421.91,876.984
2423.36,884.584
2424.81,899.528
2426.26,905.591
2427.71,889.409
2429.17,898.929
2430.62,911.864
2432.07,902.435
2433.52,893.923
2434.97,905.339
2436.42,902.541
2437.88,900.166
2439.33,891.69
2440.78,894.081
2442.23,880.948
2443.68,875.343
2445.14,871.318
2446.59,862.854
2448.04,854.5
2449.49,849.777
2450.94,863.177
2452.39,847.829
2453.85,856.524
2455.3,847.307
2456.75,824.641
2458.2,814.431
2459.65,812.678
2461.1,822.424
2462.56,811.001
2464.01,804.2
2465.46,814.711
2466.91,806.232
2468.36,796.31
2469.82,796.976
2471.27,784.879
2472.72,788.205
2474.17,790.514
2475.62,784.654
2477.07,803.41
2478.53,790.441
2479.98,786.604
2481.43,775.577
2482.88,783.056
2484.33,790.098
2485.79,788.02
2487.24,779.35
2488.69,774.377
2490.14,778.967
2491.59,786.298
2493.04,787.133
2494.5,774.249
2495.95,800.445
2497.4,787.689
2498.85,787.434
2500.3,781.999
2501.76,799.029
2503.21,789.837
2504.66,786.556
2506.11,803.288
2507.56,793.036
2509.01,798.668
2510.47,800.545
2511.92,804.263
2513.37,813.899
2514.82,814.097
2516.27,818.724
2517.72,820.036
2519.18,835.903
2520.63,838.166
2522.08,846.116
2523.53,854.828
2524.98,849.661
2526.44,856.594
2527.89,859.756
2529.34,867.117
2530.79,889.099
2532.24,897.483
2533.69,904.27
2535.15,920.2
2536.6,922.694
2538.05,922.867
2539.5,934.779
2540.95,954.236
2542.41,956.785
2543.86,962.199
2545.31,980.304
2546.76,999.847
2548.21,1012.67
2549.66,1020.9
2551.12,1041.37
2552.57,1058.39
2554.02,1065.42
2555.47,1088.49
2556.92,1093.49
2558.37,1113.63
2559.83,1125.31
2561.28,1160.36
2562.73,1172.59
2564.18,1196.3
2565.63,1217.76
2567.09,1249.16
2568.54,1270.48
2569.99,1287.41
2571.44,1307.61
2572.89,1325.21
2574.34,1372.24
2575.8,1405.6
2577.25,1430.79
2578.7,1463.48
2580.15,1492.02
2581.6,1545.17
2583.06,1591.79
2584.51,1605.89
2585.96,1652.73
2587.41,1705.04
2588.86,1744.05
2590.31,1788.77
2591.77,1851.86
2593.22,1911.94
2594.67,1957.93
2596.12,2009.95
2597.57,2080
2599.02,2169.63
2600.48,2239.26
2601.93,2296.37
2603.38,2392.82
2604.83,2484.48
2606.28,2558.84
2607.74,2625.77
2609.19,2747.77
2610.64,2876.96
2612.09,2980.2
2613.54,3099.19
2614.99,3195.58
2616.45,3322.56
2617.9,3468.69
2619.35,3600.44
2620.8,3701.99
2622.25,3833.38
2623.71,4008.91
2625.16,4165.17
2626.61,4329.28
2628.06,4495.39
2629.51,4671.56
2630.96,4845.59
2632.42,5005.99
2633.87,5178.6
2635.32,5367.59
2636.77,5503.29
2638.22,5680.06
2639.68,5855.13
2641.13,5998.79
2642.58,6154.94
2644.03,6330.16
2645.48,6444.14
2646.93,6590.96
2648.39,6759.87
2649.84,6787.63
2651.29,6908.3
2652.74,6996.46
2654.19,7057.46
2655.64,7130.15
2657.1,7156.64
2658.55,7162.32
2660,7153.24
2661.45,7136.87
2662.9,7053.87
2664.36,7044.67
2665.81,6950.34
2667.26,6884.39
2668.71,6802.85
2670.16,6661.69
2671.61,6512.86
2673.07,6356.11
2674.52,6268.5
2675.97,6065.78
2677.42,5900.37
2678.87,5723.29
2680.32,5562.44
2681.78,5399.52
2683.23,5239.79
2684.68,5037.92
2686.13,4838.27
2687.58,4644.64
2689.04,4461.97
2690.49,4303.03
2691.94,4143.85
2693.39,3942.8
2694.84,3812.3
2696.29,3653.33
2697.75,3502.44
2699.2,3351.36
2700.65,3226.17
2702.1,3098.43
2703.55,2943.04
2705.01,2822
2706.46,2691.75
2707.91,2589.38
2709.36,2524.79
2710.81,2403.38
2712.26,2281.16
2713.72,2213.42
2715.17,2152.39
2716.62,2072.25
2718.07,1985.76
2719.52,1897.72
2720.98,1838.24
2722.43,1774.35
2723.88,1726.43
2725.33,1667.11
2726.78,1607.49
2728.23,1554.4
2729.69,1506.03
2731.14,1465.63
2732.59,1435.33
2734.04,1393.65
2735.49,1352.83
2736.94,1319.93
2738.4,1290.14
2739.85,1253.47
2741.3,1228.76
2742.75,1198.64
2744.2,1183.48
2745.66,1139.45
2747.11,1129.12
2748.56,1100.5
2750.01,1079.66
2751.46,1054.35
2752.91,1029.02
2754.37,1013.14
2755.82,1010.14
2757.27,984.153
2758.72,967.047
2760.17,959.215
2761.63,938.959
2763.08,917.627
2764.53,931.729
2765.98,892.079
2767.43,896.529
2768.88,875.34
2770.34,855.372
2771.79,849.23
2773.24,838.461
2774.69,844.916
2776.14,847.115
2777.59,816.725
2779.05,826.546
2780.5,794.901
2781.95,778.685
2783.4,792.419
2784.85,770.902
2786.31,751.988
2787.76,754.093
2789.21,746.732
2790.66,749.16
2792.11,748.045
2793.56,730.398
2795.02,732.394
2796.47,712.259
2797.92,702.763
2799.37,708.823
2800.82,693.041
2802.28,696.927
2803.73,685.031
2805.18,687.658
2806.63,694.439
2808.08,684.66
2809.53,672.19
2810.99,673.818
2812.44,654.129
2813.89,666.551
2815.34,661.682
2816.79,654.567
2818.24,650.508
2819.7,641.003
2821.15,634.52
2822.6,641.146
2824.05,616.554
2825.5,618.456
2826.96,624.201
2828.41,631.139
2829.86,620.734
2831.31,625.233
2832.76,617.21
2834.21,606.596
2835.67,615.974
2837.12,613.519
2838.57,602.847
2840.02,618.055
2841.47,604.394
2842.93,607.45
2844.38,595.69
2845.83,603.075
2847.28,600.441
2848.73,598.042
2850.18,592.68
2851.64,606.848
2853.09,601.599
2854.54,600.056
2855.99,593.299
2857.44,587.673
2858.9,579.653
2860.35,599.679
2861.8,584.386
2863.25,598.3
2864.7,601.599
2866.15,597.504
2867.61,592.835
2869.06,591.437
2870.51,605.803
2871.96,593.063
2873.41,580.41
2874.86,594.676
2876.32,585.258
2877.77,605.657
2879.22,600.119
2880.67,594.651
2882.12,581.886
2883.58,581.977
2885.03,589.201
2886.48,599.63
2887.93,598.619
2889.38,611.688
2890.83,600.062
2892.29,600.584
2893.74,595.578
2895.19,603.783
2896.64,600.931
2898.09,590.213
2899.54,601.289
2901,598.227
2902.45,600.444
2903.9,601.957
2905.35,611.751
2906.8,606.298
2908.26,598.856
2909.71,595.827
2911.16,590.189
2912.61,598.941
2914.06,601.824
2915.51,595.991
2916.97,597.191
2918.42,585.41
2919.87,590.052
2921.32,573.055
2922.77,583.077
2924.23,572.818
2925.68,569.562
2927.13,572.657
2928.58,575.795
2930.03,562.754
2931.48,569.188
2932.94,552.823
2934.39,547.504
2935.84,542.971
2937.29,537.585
2938.74,549.008
2940.2,543.992
2941.65,521.925
2943.1,514.315
2944.55,521.77
2946,514.403
2947.45,511.308
2948.91,512.553
2950.36,503.303
2951.81,500.374
2953.26,493.381
2954.71,479.948
2956.16,488.673
2957.62,479.532
2959.07,470.166
2960.52,472.335
2961.97,468.796
2963.42,467.395
2964.88,458.719
2966.33,463.832
2967.78,460.937
2969.23,453.43
2970.68,454.354
2972.13,453.43
2973.59,454.609
2975.04,451.58
2976.49,441.294
2977.94,443.156
2979.39,431.98
2980.84,437.251
2982.3,434.72
2983.75,436.297
2985.2,427.384
2986.65,427.344
2988.1,430.343
2989.56,422.201
2991.01,422.42
2992.46,426.852
2993.91,416.758
2995.36,421.478
2996.81,430.659
2998.27,419.698
2999.72,417.016
3001.17,408.188
3002.62,405.484
3004.07,405.87
3005.53,416.153
3006.98,409.901
3008.43,412.751
3009.88,414.734
3011.33,409.448
3012.78,410.569
3014.24,407.641
3015.69,411.292
3017.14,406.973
3018.59,405.208
3020.04,397.13
3021.5,407.273
3022.95,406.137
3024.4,401.839
3025.85,400.171
3027.3,401.079
3028.75,411.247
3030.21,399.961
3031.66,400.484
3033.11,403.737
3034.56,396.471
3036.01,395.107
3037.46,402.467
3038.92,402.519
3040.37,395.48
3041.82,401.814
3043.27,392.579
3044.72,401.595
3046.18,394.839
3047.63,398.148
3049.08,396.398
3050.53,407.27
3051.98,403.558
3053.43,401.27
3054.89,402.288
3056.34,410.205
3057.79,405.025
3059.24,398.275
3060.69,400.235
3062.15,405.329
3063.6,397.795
3065.05,398.652
3066.5,410.378
3067.95,408.744
3069.4,414.118
3070.86,414.953
3072.31,416.73
3073.76,406.812
3075.21,410.925
3076.66,421.46
3078.11,418.368
3079.57,417.313
3081.02,426.014
3082.47,422.754
3083.92,425.206
3085.37,426.795
3086.83,440.128
3088.28,431.111
3089.73,431.819
3091.18,440.568
3092.63,449.074
3094.08,453.853
3095.54,447.695
3096.99,455.028
3098.44,477.542
3099.89,463.844
3101.34,477.986
3102.8,478.283
3104.25,481.203
3105.7,490.24
3107.15,491.288
3108.6,502.446
3110.05,511.785
3111.51,497.088
3112.96,513.689
3114.41,524.677
3115.86,531.674
3117.31,539.344
3118.76,546.586
3120.22,563.383
3121.67,552.847
3123.12,561.906
3124.57,579.198
3126.02,577.144
3127.48,576.521
3128.93,581.725
3130.38,588.585
3131.83,601.581
3133.28,606.435
3134.73,603.452
3136.19,615.342
3137.64,619.92
3139.09,616.077
3140.54,623.909
3141.99,621.749
3143.45,620.461
3144.9,637.85
3146.35,632.108
3147.8,625.525
3149.25,645.241
3150.7,630.495
3152.16,636.294
3153.61,628.068
3155.06,640.395
3156.51,636.753
3157.96,638.263
3159.42,626.643
3160.87,641.744
3162.32,640.693
3163.77,631.734
3165.22,643.64
3166.67,652.872
3168.13,642.598
3169.58,643.108
3171.03,664.039
3172.48,658.571
3173.93,660.208
3175.38,662.848
3176.84,676.391
3178.29,684.271
3179.74,705.43
3181.19,681.953
3182.64,692.443
3184.1,714.571
3185.55,703.434
3187,703.17
3188.45,715.239
3189.9,742.738
3191.35,740.842
3192.81,745.274
3194.26,731.3
3195.71,750.642
3197.16,762.189
3198.61,757.951
3200.06,756.268
3201.52,764.58
3202.97,768.186
3204.42,762.162
3205.87,750.004
3207.32,746.945
3208.78,741.811
3210.23,736.899
3211.68,715.582
3213.13,698.558
3214.58,700.363
3216.03,686.72
3217.49,684.244
3218.94,679.091
3220.39,651.626
3221.84,642.057
3223.29,618.283
3224.75,603.668
3226.2,591.975
3227.65,579.14
3229.1,571.512
3230.55,552.2
3232,532.056
3233.46,523.517
3234.91,509.227
3236.36,494.056
3237.81,481.494
3239.26,478.809
3240.72,464.309
3242.17,458.437
3243.62,440.362
3245.07,435.665
3246.52,429.037
3247.97,426.552
3249.43,419.555
3250.88,405.132
3252.33,397.075
3253.78,401.043
3255.23,391.549
3256.68,388.606
3258.14,384.183
3259.59,368.826
3261.04,370.883
3262.49,365.205
3263.94,360.666
3265.4,367.875
3266.85,358.136
3268.3,363.501
3269.75,351.963
3271.2,360.332
3272.65,355.803
3274.11,346.525
3275.56,339.83
3277.01,354.314
3278.46,352.142
3279.91,348.503
3281.37,342.898
3282.82,340.428
3284.27,342.102
3285.72,344.065
3287.17,337.302
3288.62,336.625
3290.08,345.93
3291.53,344.213
3292.98,338.372
3294.43,336.752
3295.88,338.87
3297.33,341.968
3298.79,334.328
3300.24,324.61
3301.69,324.145
3303.14,325.552
3304.59,335.306
3306.05,327.943
3307.5,324.644
3308.95,324.03
3310.4,328.125
3311.85,338.946
3313.3,331.682
3314.76,328.799
3316.21,328.007
3317.66,326.831
3319.11,320.515
3320.56,324.747
3322.02,329.443
3323.47,330.321
3324.92,325.64
3326.37,320.464
3327.82,318.137
3329.27,325.98
3330.73,323.356
3332.18,316.113
3333.63,318.677
3335.08,316.976
3336.53,322.605
3337.98,329.085
3339.44,325.406
3340.89,325.294
3342.34,320.306
3343.79,322.836
3345.24,322.693
3346.7,319.02
3348.15,318.881
3349.6,318.313
3351.05,324.124
3352.5,320.542
3353.95,322.171
3355.41,327.636
3356.86,315.393
3358.31,319.695
3359.76,317.574
3361.21,315.436
3362.67,319.048
3364.12,306.274
3365.57,321.098
3367.02,318.158
3368.47,316.985
3369.92,320.962
3371.38,318.884
3372.83,327.116
3374.28,317.951
3375.73,314.682
3377.18,315.582
3378.63,320.318
3380.09,313.817
3381.54,308.288
3382.99,311.417
3384.44,314.524
3385.89,317.426
3387.35,314.813
3388.8,319.343
3390.25,319.106
3391.7,316.432
3393.15,315.162
3394.6,317.766
3396.06,321.171
3397.51,308.215
3398.96,311.894
3400.41,310.35
3401.86,308.379
3403.32,316.763
3404.77,322.134
3406.22,324.391
3407.67,313.792
3409.12,312.86
3410.57,312.234
3412.03,316.447
3413.48,312.526
3414.93,317.912
3416.38,309.813
3417.83,313.13
3419.28,318.234
3420.74,316.013
3422.19,321.466
3423.64,315.573
3425.09,314.057
3426.54,313.318
3428,307.85
3429.45,308.643
3430.9,308.725
3432.35,308.683
3433.8,306.839
3435.25,300.381
3436.71,307.495
3438.16,312.893
3439.61,310.955
3441.06,314.19
3442.51,309.387
3443.97,312.425
3445.42,319.534
3446.87,308.54
3448.32,307.926
3449.77,308.64
3451.22,308.513
3452.68,312.501
3454.13,307.492
3455.58,305.028
3457.03,306.763
3458.48,307.774
3459.94,299.756
3461.39,303.391
3462.84,301.217
3464.29,307.325
3465.74,311.18
3467.19,315.594
3468.65,306.568
3470.1,310.399
3471.55,306.495
3473,304.594
3474.45,310.275
3475.9,305.004
3477.36,303.555
3478.81,296.883
3480.26,300.474
3481.71,310.727
3483.16,309.676
3484.62,315.527
3486.07,309.445
3487.52,312.696
3488.97,314.37
3490.42,320.053
3491.87,301.296
3493.33,306.86
3494.78,312.07
3496.23,305.292
3497.68,304.059
3499.13,310.299
3500.58,312.641
3502.04,307.264
3503.49,314.09
3504.94,309.299
3506.39,312.744
3507.84,308.409
3509.3,298.907
3510.75,311.183
3512.2,308.358
3513.65,308.391
3515.1,310.6
3516.55,320.342
3518.01,316.663
3519.46,313.285
3520.91,306.799
3522.36,309.233
3523.81,315.384
3525.27,298.873
3526.72,303.189
3528.17,305.687
3529.62,309.43
3531.07,313.95
3532.52,309.788
3533.98,316.97
3535.43,308.765
3536.88,313.61
3538.33,309.798
3539.78,309.226
3541.24,311.067
3542.69,301.434
3544.14,311.25
3545.59,315.694
3547.04,302.879
3548.49,306.289
3549.95,306.915
3551.4,307.331
3552.85,299.083
3554.3,306.969
3555.75,304.554
3557.2,308.637
3558.66,299.815
3560.11,303.746
3561.56,307.878
3563.01,301.912
3564.46,306.553
3565.92,310.584
3567.37,306.638
3568.82,308.78
3570.27,306.079
3571.72,309.421
3573.17,303.81
3574.63,308.336
3576.08,311.374
3577.53,299.388
3578.98,303.033
3580.43,305.39
3581.89,308.892
3583.34,312.966
3584.79,307.753
3586.24,305.165
3587.69,306.158
3589.14,306.192
3590.6,307.559
3592.05,302.607
3593.5,302.672
3594.95,307.586
3596.4,301.149
3597.85,305.204
3599.31,303.521
3600.76,303.722
3602.21,303.381
3603.66,306.419
3605.11,305.961
3606.57,304.773
3608.02,308.728
3609.47,304.478
3610.92,306.347
3612.37,307.966
3613.82,304.442
3615.28,306.924
3616.73,303.174
3618.18,299.767
3619.63,311.505
3621.08,298.169
3622.54,304.436
3623.99,298.64
3625.44,307.404
3626.89,311.317
3628.34,304.752
3629.79,306.741
3631.25,305.46
3632.7,308.601
3634.15,301.694
3635.6,303.218
3637.05,313.71
3638.5,309.163
3639.96,314.178
3641.41,300.911
3642.86,301.569
3644.31,306.745
3645.76,301.332
3647.22,303.063
3648.67,305.596
3650.12,297.848
3651.57,307.228
3653.02,303.907
3654.47,306.55
3655.93,304.223
3657.38,296.27
3658.83,312.641
3660.28,307.841
3661.73,305.806
3663.19,303.752
3664.64,305.952
3666.09,309.992
3667.54,312.662
3668.99,304.089
3670.44,300.582
3671.9,311.046
3673.35,316.508
3674.8,312.401
3676.25,306.69
3677.7,311.842
3679.16,309.059
3680.61,312.756
3682.06,305.238
3683.51,306.978
3684.96,307.859
3686.41,313.759
3687.87,305.004
3689.32,303.571
3690.77,301.623
3692.22,316.32
3693.67,304.217
3695.12,305.283
3696.58,314.983
3698.03,302.243
3699.48,304.773
3700.93,311.195
3702.38,313.601
3703.84,306.83
3705.29,313.075
3706.74,312.313
3708.19,309.755
3709.64,303.703
3711.09,303.459
3712.55,307.267
3714,306.808
3715.45,314.215
3716.9,313.075
3718.35,308.288
3719.8,313.893
3721.26,305.62
3722.71,312.161
3724.16,312.243
3725.61,315.263
3727.06,316.384
3728.52,318.592
3729.97,317.581
3731.42,321.824
3732.87,310.679
3734.32,314.057
3735.77,310.572
3737.23,315.272
3738.68,314.968
3740.13,311.632
3741.58,308.649
3743.03,324.361
3744.49,315.333
3745.94,312.851
3747.39,314.452
3748.84,312.483
3750.29,313.431
3751.74,312.647
3753.2,311.317
3754.65,311.092
3756.1,317.571
3757.55,311.766
3759,315.694
3760.46,321.548
3761.91,315.375
3763.36,319.494
3764.81,319.646
3766.26,310.013
3767.71,314.734
3769.17,318.249
3770.62,318.768
3772.07,318.55
3773.52,317.611
3774.97,310.739
3776.42,314.491
3777.88,312.346
3779.33,321.029
3780.78,318.219
3782.23,317.435
3783.68,321.129
3785.14,310.189
3786.59,313.318
3788.04,318.449
3789.49,324.674
3790.94,327.402
3792.39,317.019
3793.85,316.168
3795.3,318.209
3796.75,319.54
3798.2,322.216
3799.65,311.107
3801.1,312.769
3802.56,319.853
3804.01,319.944
3805.46,327.183
3806.91,320.263
3808.36,324.015
3809.82,317.893
3811.27,314.16
3812.72,318.118
3814.17,324.103
3815.62,324.455
3817.07,325.926
3818.53,322.444
3819.98,322.001
3821.43,323.295
3822.88,321.752
3824.33,330.024
3825.79,327.934
3827.24,321.366
3828.69,321.767
3830.14,313.686
3831.59,324.224
3833.04,322.259
3834.5,321.742
3835.95,316.365
3837.4,315.949
3838.85,329.489
3840.3,318.054
3841.76,323.984
3843.21,323.374
3844.66,322.766
3846.11,322.797
3847.56,319.106
3849.01,331.293
3850.47,330.555
3851.92,331.12
3853.37,326.7
3854.82,336.136
3856.27,332.247
3857.72,333.915
3859.18,326.302
3860.63,330.622
3862.08,326.664
3863.53,332.664
3864.98,343.208
3866.44,334.353
3867.89,333.478
3869.34,328.948
3870.79,325.166
3872.24,335.562
3873.69,338.074
3875.15,332.275
3876.6,334.322
3878.05,334.295
3879.5,335.853
3880.95,344.216
3882.41,338.031
3883.86,332.442
3885.31,332.287
3886.76,340.246
3888.21,335.975
3889.66,337.193
3891.12,338.718
3892.57,327.891
3894.02,341.616
3895.47,338.946
3896.92,347.798
3898.37,336.115
3899.83,335.446
3901.28,342.221
3902.73,340.899
3904.18,343.211
3905.63,351.043
3907.09,334.052
3908.54,347.118
3909.99,348.46
3911.44,349.715
3912.89,358.118
3914.34,350.271
3915.8,348.503
3917.25,358.573
3918.7,351.924
3920.15,342.482
3921.6,354.296
3923.06,341.823
3924.51,340.866
3925.96,349.001
3927.41,357.957
3928.86,354.026
3930.31,358.929
3931.77,361.432
3933.22,361.687
3934.67,362.167
3936.12,362.225
3937.57,358.254
3939.02,347.835
3940.48,361.912
3941.93,373.48
3943.38,373.432
3944.83,362.021
3946.28,369.738
3947.74,374.61
3949.19,379.067
3950.64,373.164
3952.09,374.987
3953.54,363.574
3954.99,374.182
3956.45,372.207
3957.9,369.734
3959.35,377.967
3960.8,372.335
3962.25,377.964
3963.71,373.991
3965.16,371.46
3966.61,375.968
3968.06,378.213
3969.51,378.228
3970.96,386.267
3972.42,380.321
3973.87,380.914
3975.32,386.321
3976.77,386.582
3978.22,381.901
3979.68,389.942
3981.13,386.276
3982.58,389.49
3984.03,394.463
3985.48,396.027
3986.93,386.701
3988.39,395.508
3989.84,396.598
3991.29,389.408
3992.74,395.845
3994.19,390.881
3995.64,392.816
3997.1,399.317
3998.55,397.017
4000,398.093
