0,20163.6
1.77681,19173.7
3.2286,12295.3
4.68039,3556.19
6.13218,606.4
7.58397,109.681
9.03575,68.4353
10.4875,63.6659
11.9393,63.3108
13.3911,63.0453
14.8429,62.2007
16.2947,61.2043
17.7465,59.6623
19.1983,56.844
20.6501,54.4221
22.1018,51.686
23.5536,49.6804
25.0054,48.2572
26.4572,45.2422
27.909,41.6673
29.3608,38.7194
30.8126,34.3105
32.2644,33.5293
33.7161,33.0043
35.1679,32.5267
36.6197,32.527
38.0715,31.2406
39.5233,31.2114
40.9751,32.4729
42.4269,33.9266
43.8787,34.084
45.3304,37.2817
46.7822,43.9301
48.234,54.2345
49.6858,75.2215
51.1376,116.796
52.5894,197.744
54.0412,309.086
55.493,446.48
56.9447,594.852
58.3965,763.702
59.8483,899.97
61.3001,1022.14
62.7519,1115.88
64.2037,1182.25
65.6555,1205.88
67.1073,1243.18
68.559,1270.54
70.0108,1284.22
71.4626,1293.93
72.9144,1299.8
74.3662,1310.07
75.818,1333.39
77.2698,1348.9
78.7216,1377.93
80.1733,1423.95
81.6251,1450.14
83.0769,1481.87
84.5287,1502.04
85.9805,1493.53
87.4323,1457.54
88.8841,1407.67
90.3359,1347.73
91.7877,1278.72
93.2394,1208.33
94.6912,1148.74
96.143,1086.92
97.5948,1034.65
99.0466,1005.44
100.498,992.71
101.95,965.584
103.402,938.926
104.854,927.118
106.306,920.783
107.757,906.492
109.209,888.306
110.661,867.244
112.113,856.388
113.564,855.674
115.016,841.326
116.468,821.303
117.92,809.985
119.372,803.315
120.823,781.04
122.275,787.769
123.727,772.028
125.179,748.574
126.631,737.228
128.082,736.387
129.534,717.353
130.986,705.072
132.438,697.424
133.889,685.724
135.341,673.05
136.793,657.63
138.245,648.276
139.697,648.297
141.148,649.967
142.6,643.015
144.052,643.376
145.504,641.356
146.956,635.969
148.407,623.588
149.859,610.506
151.311,600.011
152.763,601.829
154.215,602.158
155.666,596.652
157.118,570.875
158.57,559.359
160.022,558.122
161.473,557.487
162.925,547.796
164.377,551.335
165.829,553.24
167.281,547.576
168.732,538.073
170.184,544.517
171.636,532.961
173.088,519.356
174.54,515.262
175.991,516.91
177.443,492.255
178.895,496.155
180.347,496.151
181.798,491.068
183.25,478.564
184.702,486.594
186.154,483.712
187.606,479.491
189.057,471.694
190.509,464.086
191.961,457.126
193.413,461.535
194.865,470.518
196.316,471.081
197.768,463.328
199.22,461.236
200.672,461.806
202.124,465.482
203.575,460.626
205.027,447.082
206.479,445.69
207.931,449.561
209.382,448.111
210.834,449.013
212.286,458.746
213.738,453.876
215.19,448.601
216.641,453.948
218.093,461.835
219.545,466.2
220.997,466.236
222.449,445.261
223.9,450.636
225.352,456.484
226.804,454.68
228.256,441.433
229.707,443.439
231.159,449.896
232.611,450.131
234.063,453.255
235.515,452.288
236.966,455.896
238.418,454.691
239.87,452.537
241.322,450.719
242.774,446.556
244.225,445.311
245.677,445.632
247.129,447.66
248.581,442.685
250.033,432.771
251.484,438.337
252.936,427.561
254.388,421.504
255.84,426.053
257.291,433.24
258.743,425.559
260.195,423.809
261.647,422.705
263.099,424.426
264.55,424.538
266.002,416.947
267.454,420.28
268.906,423.975
270.358,425.201
271.809,419.436
273.261,409.814
274.713,413.678
276.165,413.729
277.616,410.969
279.068,406.863
280.52,405.979
281.972,402.704
283.424,392.075
284.875,386.115
286.327,388.825
287.779,391.014
289.231,390.975
290.683,393.208
292.134,390.906
293.586,381.707
295.038,371.32
296.49,379.589
297.941,379.066
299.393,376.428
300.845,374.798
302.297,372.727
303.749,371.464
305.2,365.176
306.652,365.244
308.104,363.329
309.556,355.214
311.008,360.492
312.459,367.903
313.911,359.168
315.363,355.894
316.815,359.738
318.267,345.702
319.718,356.05
321.17,354.274
322.622,355.333
324.074,356.998
325.525,352.089
326.977,356.833
328.429,357.208
329.881,344.235
331.333,335.223
332.784,344.49
334.236,341.056
335.688,333.074
337.14,342.603
338.592,346.183
340.043,339.275
341.495,336.704
342.947,342.34
344.399,340.442
345.85,336.046
347.302,335.903
348.754,339.678
350.206,336.556
351.658,332.976
353.109,333.079
354.561,335.317
356.013,334.786
357.465,323.85
358.917,325.499
360.368,326.783
361.82,326.577
363.272,327.962
364.724,331.796
366.176,325.856
367.627,321.319
369.079,322.074
370.531,327.419
371.983,329.241
373.434,320.69
374.886,322.208
376.338,324.114
377.79,324.364
379.242,322.188
380.693,324.663
382.145,313.169
383.597,318.517
385.049,325.324
386.501,330.025
387.952,331.322
389.404,326.728
390.856,321.677
392.308,322.063
393.759,324.051
395.211,324.613
396.663,318.094
398.115,327.598
399.567,323.923
401.018,318.826
402.47,316.664
403.922,322.099
405.374,321.915
406.826,323.148
408.277,322.584
409.729,321.561
411.181,322.42
412.633,328.104
414.085,323.509
415.536,317.956
416.988,319.611
418.44,323.76
419.892,322.347
421.343,332.707
422.795,321.175
424.247,316.749
425.699,317.572
427.151,318.788
428.602,316.327
430.054,311.586
431.506,322.127
432.958,323.848
434.41,320.615
435.861,322.69
437.313,312.637
438.765,312.293
440.217,324.707
441.668,330.277
443.12,323.929
444.572,309.077
446.024,320.103
447.476,314.818
448.927,313.234
450.379,313.66
451.831,314.301
453.283,316.98
454.735,307.673
456.186,310.825
457.638,315.297
459.09,318.674
460.542,319.705
461.993,318.809
463.445,318.586
464.897,313.111
466.349,313.764
467.801,316.122
469.252,308.109
470.704,309.172
472.156,313.927
473.608,318.742
475.06,317.368
476.511,308.718
477.963,306.494
479.415,313.247
480.867,317.061
482.319,314.927
483.77,308.275
485.222,303.448
486.674,312.781
488.126,318.044
489.577,312.505
491.029,309.54
492.481,308.882
493.933,300.945
495.385,302.066
496.836,302.09
498.288,307.001
499.74,306.877
501.192,302.154
502.644,299.893
504.095,302.836
505.547,305.828
506.999,308.276
508.451,307.602
509.902,302.882
511.354,308.618
512.806,301.745
514.258,303.009
515.71,305.163
517.161,306.514
518.613,302.518
520.065,292.981
521.517,304.959
522.969,304.855
524.42,299.193
525.872,294.215
527.324,298.576
528.776,299.204
530.228,303.717
531.679,309.444
533.131,304.792
534.583,298.92
536.035,301.227
537.486,311.445
538.938,308.306
540.39,300.939
541.842,299.858
543.294,302.612
544.745,305.44
546.197,305.082
547.649,302.953
549.101,299.431
550.553,305.204
552.004,309.411
553.456,302.3
554.908,303.352
556.36,297.947
557.811,298.536
559.263,300.093
560.715,304.318
562.167,305.696
563.619,315.492
565.07,306.944
566.522,305.542
567.974,307.179
569.426,303.009
570.878,297.289
572.329,302.932
573.781,296.476
575.233,301.803
576.685,305.89
578.137,305.663
579.588,298.777
581.04,295.023
582.492,300.729
583.944,297.87
585.395,298.573
586.847,300.949
588.299,300.179
589.751,298.485
591.203,297.933
592.654,295.202
594.106,299.01
595.558,304.253
597.01,301.781
598.462,296.431
599.913,301.544
601.365,293.548
602.817,292.712
604.269,299.998
605.72,299.285
607.172,305.993
608.624,307.873
610.076,308.626
611.528,303.246
612.979,297.633
614.431,298.818
615.883,294.048
617.335,297.213
618.787,301.012
620.238,307.413
621.69,305.604
623.142,295.307
624.594,303.66
626.046,302.473
627.497,306.145
628.949,303.749
630.401,305.475
631.853,308.035
633.304,298.292
634.756,295.377
636.208,302.876
637.66,304.566
639.112,305.628
640.563,307.932
642.015,306.344
643.467,302.736
644.919,304.681
646.371,310.135
647.822,312.27
649.274,311.408
650.726,310.992
652.178,315.473
653.629,303.921
655.081,304.933
656.533,310.635
657.985,313.734
659.437,313.029
660.888,317.093
662.34,311.385
663.792,307.266
665.244,310.436
666.696,310.592
668.147,310.222
669.599,320.568
671.051,322.422
672.503,312.457
673.954,311.92
675.406,311.472
676.858,308.522
678.31,314.827
679.762,323.049
681.213,316.761
682.665,310.351
684.117,309.518
685.569,315.074
687.021,324.95
688.472,324.966
689.924,319.133
691.376,316.405
692.828,319.041
694.28,322.624
695.731,318.627
697.183,318.092
698.635,311.233
700.087,311.775
701.538,313.339
702.99,314.117
704.442,312.477
705.894,315.444
707.346,323.872
708.797,326.511
710.249,319
711.701,320.682
713.153,320.836
714.605,314.888
716.056,316.388
717.508,317.013
718.96,324.405
720.412,319.677
721.863,316.325
723.315,317.997
724.767,320.28
726.219,320.446
727.671,320.961
729.122,312.455
730.574,311.645
732.026,314.509
733.478,321.924
734.93,326.734
736.381,323.439
737.833,314.62
739.285,317.869
740.737,318.747
742.189,319.949
743.64,323.092
745.092,321.207
746.544,320.439
747.996,324.847
749.447,319.774
750.899,324.297
752.351,324.907
753.803,316.684
755.255,321.288
756.706,317.013
758.158,316.573
759.61,325.8
761.062,328.863
762.514,329.812
763.965,326.687
765.417,320.617
766.869,321.152
768.321,325.547
769.772,324.208
771.224,326.207
772.676,328.157
774.128,320.225
775.58,322.351
777.031,317.419
778.483,323.294
779.935,318.315
781.387,316.652
782.839,321.376
784.29,324.276
785.742,327.341
787.194,334.208
788.646,329.226
790.098,331.36
791.549,332.415
793.001,329.978
794.453,333.917
795.905,329.746
797.356,321.831
798.808,322.695
800.26,319.82
801.712,323.603
803.164,332.336
804.615,332.984
806.067,336.41
807.519,327.732
808.971,330.47
810.423,330.118
811.874,330.35
813.326,327.474
814.778,332.929
816.23,333.826
817.681,333.927
819.133,328.934
820.585,334.991
822.037,335.742
823.489,331.833
824.94,329.81
826.392,336.676
827.844,340.247
829.296,342.488
830.748,343.66
832.199,344.66
833.651,339.484
835.103,340.588
836.555,341.586
838.007,341.267
839.458,338.977
840.91,341.847
842.362,344.344
843.814,346.455
845.265,339.057
846.717,337.68
848.169,348.739
849.621,357.762
851.073,359.192
852.524,355.558
853.976,354.501
855.428,351.75
856.88,353.378
858.332,351.829
859.783,355.485
861.235,356.395
862.687,352.875
864.139,349.744
865.59,347.966
867.042,349.6
868.494,345.68
869.946,345.323
871.398,352.222
872.849,348.79
874.301,338.753
875.753,342.246
877.205,344.402
878.657,349.584
880.108,347.098
881.56,347.932
883.012,348.351
884.464,350.213
885.915,351.072
887.367,352.209
888.819,349.916
890.271,359.362
891.723,355.197
893.174,362.614
894.626,360.458
896.078,354.776
897.53,357.817
898.982,358.461
900.433,356.233
901.885,362.907
903.337,352.079
904.789,355.652
906.241,364.169
907.692,365.335
909.144,358.448
910.596,356.778
912.048,364.216
913.499,364.4
914.951,365.486
916.403,365.522
917.855,364.898
919.307,368.549
920.758,369.833
922.21,368.592
923.662,371.951
925.114,373.319
926.566,372.997
928.017,368.863
929.469,366.244
930.921,371.251
932.373,371.331
933.824,370.883
935.276,370.541
936.728,382.37
938.18,378.683
939.632,372.954
941.083,376.915
942.535,362.777
943.987,374.917
945.439,377.341
946.891,370.984
948.342,370.688
949.794,370.609
951.246,371.576
952.698,373.824
954.15,371.147
955.601,374.044
957.053,375.71
958.505,372.626
959.957,378.048
961.408,375.638
962.86,366.9
964.312,368.556
965.764,382.439
967.216,371.807
968.667,373.6
970.119,377.078
971.571,376.594
973.023,371.554
974.475,371.129
975.926,379.542
977.378,379.242
978.83,373.535
980.282,375.988
981.733,374.502
983.185,379.372
984.637,384.088
986.089,379.477
987.541,380.281
988.992,377.489
990.444,379.553
991.896,383.251
993.348,376.663
994.8,379.567
996.251,390.603
997.703,390.39
999.155,383.748
1000.61,392.598
1002.06,391.931
1003.51,393.367
1004.96,390.52
1006.41,392.555
1007.87,391.895
1009.32,400.514
1010.77,402.328
1012.22,394.561
1013.67,407.17
1015.12,396.477
1016.58,402.386
1018.03,405.381
1019.48,407.083
1020.93,408.187
1022.38,403.829
1023.84,408.415
1025.29,419.108
1026.74,425.137
1028.19,423.336
1029.64,424.516
1031.09,432.976
1032.55,435.758
1034,429.574
1035.45,434.25
1036.9,440.275
1038.35,438.009
1039.8,438.283
1041.26,441.642
1042.71,445.246
1044.16,456.141
1045.61,458.18
1047.06,449.139
1048.52,452.465
1049.97,465.623
1051.42,458.292
1052.87,464.638
1054.32,472.463
1055.77,463.689
1057.23,464.252
1058.68,481.728
1060.13,476.507
1061.58,490.509
1063.03,487.767
1064.49,490.57
1065.94,499.618
1067.39,505.694
1068.84,502.187
1070.29,506.834
1071.74,513.631
1073.2,511.546
1074.65,523.484
1076.1,520.846
1077.55,536.132
1079,534.152
1080.46,531.042
1081.91,535.901
1083.36,541.378
1084.81,530.984
1086.26,545.451
1087.71,543.193
1089.17,532.86
1090.62,535.988
1092.07,539.185
1093.52,527.127
1094.97,520.323
1096.42,542.489
1097.88,544.434
1099.33,526.464
1100.78,528.675
1102.23,529.09
1103.68,527.034
1105.14,529.068
1106.59,525.298
1108.04,517.967
1109.49,514.006
1110.94,525.623
1112.39,521.846
1113.85,518.952
1115.3,509.525
1116.75,506.026
1118.2,504.547
1119.65,503.23
1121.11,507.422
1122.56,500.686
1124.01,503.771
1125.46,487.1
1126.91,495.874
1128.36,486.908
1129.82,485.205
1131.27,489.841
1132.72,493.925
1134.17,493.597
1135.62,488.11
1137.07,486.667
1138.53,484.098
1139.98,485.242
1141.43,484.228
1142.88,477.687
1144.33,483.012
1145.79,488.532
1147.24,478.899
1148.69,470.565
1150.14,483.221
1151.59,484.823
1153.04,487.843
1154.5,483.64
1155.95,483.066
1157.4,483.308
1158.85,480.389
1160.3,482.792
1161.76,488.088
1163.21,481.075
1164.66,483.939
1166.11,485.292
1167.56,479.693
1169.01,478.351
1170.47,483.86
1171.92,489.528
1173.37,485.967
1174.82,487.352
1176.27,483.816
1177.72,489.34
1179.18,493.471
1180.63,500.354
1182.08,497.172
1183.53,490.206
1184.98,489.751
1186.44,490.09
1187.89,491.634
1189.34,497.241
1190.79,491.342
1192.24,501.061
1193.69,491.216
1195.15,496.923
1196.6,499.965
1198.05,503.663
1199.5,504.308
1200.95,506.704
1202.41,511.686
1203.86,505.972
1205.31,511.96
1206.76,517.224
1208.21,515.341
1209.66,509.937
1211.12,507.224
1212.57,510.654
1214.02,513.721
1215.47,513.645
1216.92,509.666
1218.37,522.026
1219.83,522.982
1221.28,520.146
1222.73,526.853
1224.18,522.722
1225.63,514.042
1227.09,511.982
1228.54,524.826
1229.99,532.402
1231.44,519.511
1232.89,516.636
1234.34,534.444
1235.8,531.652
1237.25,529.79
1238.7,536.518
1240.15,540.05
1241.6,537.11
1243.06,537.943
1244.51,547.089
1245.96,546.216
1247.41,555.748
1248.86,563.263
1250.31,558.627
1251.77,551.252
1253.22,558.111
1254.67,563.898
1256.12,569.966
1257.57,582.412
1259.02,587.052
1260.48,588.044
1261.93,596.548
1263.38,586.24
1264.83,606.509
1266.28,605.264
1267.74,603.121
1269.19,612.992
1270.64,624.811
1272.09,631.727
1273.54,639.992
1274.99,644.906
1276.45,652.23
1277.9,659.708
1279.35,680.02
1280.8,665.611
1282.25,683.469
1283.71,699.285
1285.16,711.689
1286.61,721.668
1288.06,731.827
1289.51,752.72
1290.96,778.439
1292.42,775.43
1293.87,802.64
1295.32,823.128
1296.77,838.414
1298.22,869.08
1299.67,901.092
1301.13,929.304
1302.58,950.478
1304.03,970.833
1305.48,1004.06
1306.93,1046.88
1308.39,1077.9
1309.84,1134.99
1311.29,1177.26
1312.74,1219.38
1314.19,1279.27
1315.64,1338.66
1317.1,1389.08
1318.55,1447.76
1320,1512.7
1321.45,1565.22
1322.9,1627.66
1324.36,1695.07
1325.81,1763.59
1327.26,1837.45
1328.71,1869
1330.16,1902.68
1331.61,1956.41
1333.07,1995.37
1334.52,2017.65
1335.97,2052.4
1337.42,2041.36
1338.87,2029.53
1340.33,1997.94
1341.78,1980.76
1343.23,1925.37
1344.68,1864.03
1346.13,1818.11
1347.58,1765.74
1349.04,1702.34
1350.49,1632.34
1351.94,1553.53
1353.39,1499.29
1354.84,1446.12
1356.29,1357.47
1357.75,1312.01
1359.2,1258.14
1360.65,1213.58
1362.1,1159.71
1363.55,1108.83
1365.01,1080.89
1366.46,1042.63
1367.91,992.368
1369.36,971.151
1370.81,937.948
1372.26,907.023
1373.72,903.062
1375.17,880.639
1376.62,866.309
1378.07,842.195
1379.52,820.783
1380.98,806.572
1382.43,791.442
1383.88,786.409
1385.33,774.373
1386.78,759.282
1388.23,759.26
1389.69,744.483
1391.14,733.31
1392.59,734.486
1394.04,733.552
1395.49,718.338
1396.94,708.229
1398.4,704.123
1399.85,702.529
1401.3,701.479
1402.75,698.293
1404.2,700.584
1405.66,701.425
1407.11,690.569
1408.56,695.486
1410.01,688.505
1411.46,695.807
1412.91,700.988
1414.37,688.361
1415.82,690.905
1417.27,694.346
1418.72,698.607
1420.17,698.362
1421.63,698.604
1423.08,701.702
1424.53,701.172
1425.98,697.186
1427.43,715.993
1428.88,698.64
1430.34,710.462
1431.79,709.672
1433.24,714.254
1434.69,712.111
1436.14,719.478
1437.59,731.401
1439.05,729.572
1440.5,736.643
1441.95,731.43
1443.4,731.953
1444.85,731.463
1446.31,738.963
1447.76,738.397
1449.21,740.944
1450.66,751.876
1452.11,764.596
1453.56,772.007
1455.02,776.448
1456.47,773.403
1457.92,772.674
1459.37,789.829
1460.82,802.716
1462.28,807.756
1463.73,804.04
1465.18,827.757
1466.63,815.812
1468.08,834.024
1469.53,843.213
1470.99,844.122
1472.44,850.695
1473.89,860.923
1475.34,878.006
1476.79,903.855
1478.24,909.058
1479.7,911.89
1481.15,934.525
1482.6,946.852
1484.05,962.315
1485.5,985.477
1486.96,995.69
1488.41,1011.44
1489.86,1027.45
1491.31,1046.36
1492.76,1058.83
1494.21,1066.31
1495.67,1104.39
1497.12,1151.97
1498.57,1164.59
1500.02,1177.34
1501.47,1209.02
1502.93,1248.69
1504.38,1248.79
1505.83,1307.33
1507.28,1328.71
1508.73,1381.63
1510.18,1430.24
1511.64,1476.55
1513.09,1531.31
1514.54,1574.13
1515.99,1642.87
1517.44,1728.98
1518.89,1801.1
1520.35,1860.07
1521.8,1930.76
1523.25,2033.3
1524.7,2141.13
1526.15,2306
1527.61,2419.24
1529.06,2595.97
1530.51,2762.7
1531.96,2963.49
1533.41,3194.64
1534.86,3432.63
1536.32,3706.56
1537.77,4035.48
1539.22,4391.38
1540.67,4776.9
1542.12,5171.84
1543.58,5690.24
1545.03,6215.56
1546.48,6806.69
1547.93,7377.19
1549.38,7983.25
1550.83,8609.34
1552.29,9295.78
1553.74,9957.84
1555.19,10605.1
1556.64,11287.1
1558.09,11918.4
1559.54,12490.9
1561,13001.1
1562.45,13413.7
1563.9,13670.6
1565.35,13849.2
1566.8,13883.3
1568.26,13789.2
1569.71,13433
1571.16,12996.5
1572.61,12470.8
1574.06,11838.5
1575.51,11162.9
1576.97,10444.1
1578.42,9722.8
1579.87,9034.01
1581.32,8348.21
1582.77,7701.49
1584.23,7102.17
1585.68,6520.42
1587.13,6036.08
1588.58,5528.98
1590.03,5077.03
1591.48,4680.04
1592.94,4296.07
1594.39,4020.76
1595.84,3776.01
1597.29,3516.77
1598.74,3340.94
1600.2,3166.25
1601.65,2992.4
1603.1,2830.6
1604.55,2694.22
1606,2559.42
1607.45,2430.47
1608.91,2323.22
1610.36,2222.56
1611.81,2120.34
1613.26,1994.24
1614.71,1899.3
1616.16,1811.4
1617.62,1721.71
1619.07,1648.86
1620.52,1558.83
1621.97,1512
1623.42,1452.95
1624.88,1387.9
1626.33,1346.2
1627.78,1294
1629.23,1249.64
1630.68,1208.49
1632.13,1157.63
1633.59,1134.35
1635.04,1123
1636.49,1101.08
1637.94,1062.2
1639.39,1024.06
1640.85,1012.7
1642.3,990.452
1643.75,971.136
1645.2,950.013
1646.65,945.777
1648.1,935.12
1649.56,921.696
1651.01,894.114
1652.46,881.332
1653.91,867.392
1655.36,854.988
1656.81,853.177
1658.27,829.572
1659.72,808.834
1661.17,805.108
1662.62,796.355
1664.07,781.769
1665.53,778.814
1666.98,778.735
1668.43,759.051
1669.88,738.097
1671.33,734.089
1672.78,731.838
1674.24,711.974
1675.69,698.423
1677.14,704.581
1678.59,705.188
1680.04,693.711
1681.5,683.007
1682.95,682.195
1684.4,684.248
1685.85,678.88
1687.3,672.162
1688.75,664.034
1690.21,655.83
1691.66,650.859
1693.11,634.285
1694.56,642.305
1696.01,644.639
1697.46,634.425
1698.92,630.518
1700.37,623.029
1701.82,619.796
1703.27,618.71
1704.72,623.602
1706.18,623.808
1707.63,619.745
1709.08,612.433
1710.53,615.647
1711.98,612.865
1713.43,599.459
1714.89,603.583
1716.34,603.193
1717.79,603.832
1719.24,596.555
1720.69,602.76
1722.15,616.022
1723.6,602.868
1725.05,610.16
1726.5,602.32
1727.95,592.734
1729.4,598.867
1730.86,598.759
1732.31,606.671
1733.76,612.039
1735.21,592.027
1736.66,586.507
1738.11,593.301
1739.57,589.776
1741.02,581.171
1742.47,584.159
1743.92,586.68
1745.37,576.738
1746.83,571.308
1748.28,572.437
1749.73,577.228
1751.18,580.161
1752.63,573.487
1754.08,562.783
1755.54,574.255
1756.99,575.677
1758.44,567.022
1759.89,551.653
1761.34,560.759
1762.8,555.69
1764.25,552.035
1765.7,548.449
1767.15,553.518
1768.6,555.751
1770.05,554.265
1771.51,548.41
1772.96,534.184
1774.41,533.066
1775.86,537.049
1777.31,538.333
1778.76,530.558
1780.22,523.188
1781.67,532.077
1783.12,537.428
1784.57,533.069
1786.02,519.194
1787.48,520.594
1788.93,530.692
1790.38,520.803
1791.83,514.652
1793.28,527.261
1794.73,540.902
1796.19,516.69
1797.64,507.35
1799.09,516.218
1800.54,512.852
1801.99,512.437
1803.45,517.596
1804.9,518.151
1806.35,517.336
1807.8,519.421
1809.25,515.507
1810.7,509.381
1812.16,506.354
1813.61,506.278
1815.06,506.791
1816.51,503.674
1817.96,509.06
1819.41,512.224
1820.87,507.595
1822.32,502.209
1823.77,508.746
1825.22,511.506
1826.67,520.421
1828.13,504.132
1829.58,516.387
1831.03,511.784
1832.48,507.812
1833.93,505.604
1835.38,498.291
1836.84,522.632
1838.29,517.581
1839.74,527.809
1841.19,530.634
1842.64,527.575
1844.1,531.493
1845.55,528.92
1847,530.995
1848.45,529.144
1849.9,525.237
1851.35,532.82
1852.81,544.206
1854.26,544.986
1855.71,542.175
1857.16,549.676
1858.61,551.494
1860.07,541.468
1861.52,536.897
1862.97,536.039
1864.42,541.894
1865.87,544.412
1867.32,558.573
1868.78,549.614
1870.23,536.461
1871.68,531.262
1873.13,539.278
1874.58,526.395
1876.03,523.769
1877.49,539.96
1878.94,529.981
1880.39,517.744
1881.84,520.172
1883.29,525.522
1884.75,524.108
1886.2,523.253
1887.65,511.805
1889.1,505.485
1890.55,510.355
1892,511.971
1893.46,502.988
1894.91,504.489
1896.36,506.444
1897.81,498.857
1899.26,496.26
1900.72,493.236
1902.17,492.515
1903.62,490.469
1905.07,493.702
1906.52,484.928
1907.97,483.802
1909.43,490.888
1910.88,486.053
1912.33,487.28
1913.78,481.98
1915.23,486.973
1916.68,487.06
1918.14,476.991
1919.59,481.273
1921.04,467.65
1922.49,480.223
1923.94,478.17
1925.4,481.053
1926.85,482.583
1928.3,474.851
1929.75,462.412
1931.2,478.369
1932.65,483.669
1934.11,480.357
1935.56,482.485
1937.01,471.817
1938.46,479.79
1939.91,478.73
1941.37,483.459
1942.82,483.582
1944.27,484.329
1945.72,493.211
1947.17,484.762
1948.62,484.156
1950.08,478.571
1951.53,481.775
1952.98,483.459
1954.43,483.986
1955.88,478.25
1957.33,489.271
1958.79,493.561
1960.24,479.707
1961.69,473.834
1963.14,483.997
1964.59,482.651
1966.05,489.279
1967.5,491.086
1968.95,490.375
1970.4,496.631
1971.85,496.512
1973.3,494.831
1974.76,500.744
1976.21,498.41
1977.66,496.335
1979.11,496.97
1980.56,493.103
1982.02,499.189
1983.47,494.012
1984.92,491.526
1986.37,497.811
1987.82,504.875
1989.27,503.226
1990.73,500.556
1992.18,499.478
1993.63,500.434
1995.08,501.909
1996.53,509.915
1997.98,493.417
1999.44,493.337
2000.89,514.41
2002.34,494.679
2003.79,501.491
2005.24,498.056
2006.7,509.929
2008.15,498.262
2009.6,505.896
2011.05,503.897
2012.5,502.389
2013.95,506.924
2015.41,495.668
2016.86,487.107
2018.31,486.977
2019.76,485.097
2021.21,482.875
2022.67,478.816
2024.12,474.267
2025.57,488.355
2027.02,484.379
2028.47,487.738
2029.92,469.4
2031.38,477.856
2032.83,480.696
2034.28,479.249
2035.73,467.96
2037.18,472.117
2038.63,466.438
2040.09,465.161
2041.54,453.908
2042.99,464.266
2044.44,467.253
2045.89,460.828
2047.35,455.925
2048.8,460.698
2050.25,457.765
2051.7,458.386
2053.15,464.403
2054.6,458.703
2056.06,446.617
2057.51,454.132
2058.96,451.884
2060.41,447.274
2061.86,449.694
2063.32,453.129
2064.77,448.677
2066.22,444.03
2067.67,444.579
2069.12,451.08
2070.57,441.342
2072.03,449.388
2073.48,447.782
2074.93,442.991
2076.38,440.065
2077.83,447.465
2079.28,448.493
2080.74,442.338
2082.19,440.195
2083.64,447.584
2085.09,453.995
2086.54,449.745
2088,444.543
2089.45,441.783
2090.9,434.21
2092.35,432.453
2093.8,436.288
2095.25,438.994
2096.71,434.224
2098.16,445.261
2099.61,449.958
2101.06,451.787
2102.51,451.018
2103.97,448.764
2105.42,439.095
2106.87,437.266
2108.32,436.256
2109.77,432.569
2111.22,433.539
2112.68,432.529
2114.13,435.249
2115.58,432.597
2117.03,435.527
2118.48,442.948
2119.94,440.008
2121.39,448.724
2122.84,442.692
2124.29,445.859
2125.74,448.673
2127.19,450.048
2128.65,460.485
2130.1,446.545
2131.55,443.478
2133,448.627
2134.45,446.061
2135.9,445.629
2137.36,450.358
2138.81,444.384
2140.26,441.963
2141.71,434.856
2143.16,448.839
2144.62,450.171
2146.07,447.108
2147.52,445.033
2148.97,446.631
2150.42,453.62
2151.87,446.368
2153.33,460.409
2154.78,457.206
2156.23,453.306
2157.68,450.297
2159.13,454.579
2160.58,459.017
2162.04,456.109
2163.49,470.8
2164.94,468.242
2166.39,457.025
2167.84,459.818
2169.3,459.165
2170.75,462.773
2172.2,463.783
2173.65,462.773
2175.1,468.866
2176.55,473.791
2178.01,472.34
2179.46,462.931
2180.91,470.879
2182.36,473.534
2183.81,479.076
2185.27,476.045
2186.72,482.052
2188.17,485.815
2189.62,476.489
2191.07,476.98
2192.52,480.674
2193.98,480.404
2195.43,474.328
2196.88,479.924
2198.33,479.621
2199.78,472.326
2201.24,473.307
2202.69,480.072
2204.14,485.905
2205.59,468.534
2207.04,486.32
2208.49,481.753
2209.95,480.645
2211.4,490.833
2212.85,482.29
2214.3,479.613
2215.75,472.398
2217.2,481.212
2218.66,481.811
2220.11,490.833
2221.56,488.723
2223.01,482.593
2224.46,488.748
2225.92,492.143
2227.37,491.501
2228.82,474.043
2230.27,494.589
2231.72,477.189
2233.17,477.398
2234.63,491.209
2236.08,491.8
2237.53,489.174
2238.98,485.379
2240.43,501.53
2241.89,490.642
2243.34,496.959
2244.79,489.387
2246.24,499.759
2247.69,498.042
2249.14,497.861
2250.6,494.297
2252.05,496.148
2253.5,489.823
2254.95,495.423
2256.4,496.996
2257.85,507.653
2259.31,507.848
2260.76,506.329
2262.21,501.963
2263.66,509.338
2265.11,510.784
2266.57,507.945
2268.02,508.526
2269.47,520.107
2270.92,517.127
2272.37,511.142
2273.82,515.979
2275.28,518.862
2276.73,517.661
2278.18,510.737
2279.63,519.645
2281.08,523.401
2282.54,518.31
2283.99,525.389
2285.44,526.601
2286.89,528.661
2288.34,528.322
2289.79,518.862
2291.25,531.096
2292.7,534.866
2294.15,529.88
2295.6,534.696
2297.05,545.754
2298.5,545.346
2299.96,523.873
2301.41,531.367
2302.86,539.856
2304.31,545.949
2305.76,548.594
2307.22,538.073
2308.67,547.024
2310.12,541.836
2311.57,553.767
2313.02,555.297
2314.47,556.992
2315.93,556.74
2317.38,556.682
2318.83,553.233
2320.28,556.639
2321.73,553.738
2323.19,561.621
2324.64,562.671
2326.09,562.112
2327.54,566.683
2328.99,572.148
2330.44,572.506
2331.9,575.197
2333.35,588.181
2334.8,582.964
2336.25,588.264
2337.7,583.834
2339.16,587.449
2340.61,596.566
2342.06,599.34
2343.51,594.224
2344.96,607.147
2346.41,597.901
2347.87,593.452
2349.32,604.048
2350.77,613.638
2352.22,627.986
2353.67,614.038
2355.12,615.622
2356.58,617.541
2358.03,634.216
2359.48,630.478
2360.93,646.334
2362.38,633.606
2363.84,639.602
2365.29,649.271
2366.74,661.058
2368.19,650.079
2369.64,668.006
2371.09,665.813
2372.55,675.2
2374,680.796
2375.45,686.074
2376.9,699.372
2378.35,705.094
2379.8,705.278
2381.26,716.505
2382.71,714.975
2384.16,724.709
2385.61,745.713
2387.06,765.22
2388.52,766.963
2389.97,757.709
2391.42,763.586
2392.87,798.091
2394.32,811.959
2395.77,842.379
2397.23,842.56
2398.68,846.55
2400.13,856.348
2401.58,878.807
2403.03,886.931
2404.49,909.649
2405.94,923.687
2407.39,933.529
2408.84,950.64
2410.29,974.372
2411.74,976.165
2413.2,986.541
2414.65,1004.82
2416.1,1013.17
2417.55,1029.98
2419,1038.93
2420.46,1046.37
2421.91,1041.5
2423.36,1050.53
2424.81,1068.27
2426.26,1075.48
2427.71,1056.26
2429.17,1067.56
2430.62,1082.93
2432.07,1071.73
2433.52,1061.62
2434.97,1075.18
2436.42,1071.85
2437.88,1069.03
2439.33,1058.97
2440.78,1061.81
2442.23,1046.21
2443.68,1039.55
2445.14,1034.77
2446.59,1024.72
2448.04,1014.8
2449.49,1009.19
2450.94,1025.1
2452.39,1006.88
2453.85,1017.2
2455.3,1006.26
2456.75,979.34
2458.2,967.214
2459.65,965.133
2461.1,976.706
2462.56,963.141
2464.01,955.064
2465.46,967.546
2466.91,957.477
2468.36,945.694
2469.82,946.484
2471.27,932.118
2472.72,936.069
2474.17,938.811
2475.62,931.851
2477.07,954.125
2478.53,938.724
2479.98,934.168
2481.43,921.071
2482.88,929.954
2484.33,938.316
2485.79,935.849
2487.24,925.552
2488.69,919.646
2490.14,925.098
2491.59,933.803
2493.04,934.795
2494.5,919.495
2495.95,950.604
2497.4,935.455
2498.85,935.152
2500.3,928.698
2501.76,948.923
2503.21,938.006
2504.66,934.11
2506.11,953.981
2507.56,941.805
2509.01,948.494
2510.47,950.723
2511.92,955.139
2513.37,966.583
2514.82,966.818
2516.27,972.312
2517.72,973.871
2519.18,992.714
2520.63,995.402
2522.08,1004.84
2523.53,1015.19
2524.98,1009.05
2526.44,1017.29
2527.89,1021.04
2529.34,1029.78
2530.79,1055.89
2532.24,1065.85
2533.69,1073.91
2535.15,1092.83
2536.6,1095.79
2538.05,1095.99
2539.5,1110.14
2540.95,1133.25
2542.41,1136.27
2543.86,1142.7
2545.31,1164.2
2546.76,1187.41
2548.21,1202.65
2549.66,1212.42
2551.12,1236.73
2552.57,1256.93
2554.02,1265.29
2555.47,1292.69
2556.92,1298.63
2558.37,1322.54
2559.83,1336.41
2561.28,1378.04
2562.73,1392.56
2564.18,1420.72
2565.63,1446.2
2567.09,1483.49
2568.54,1508.82
2569.99,1528.92
2571.44,1552.91
2572.89,1573.81
2574.34,1629.67
2575.8,1669.29
2577.25,1699.2
2578.7,1738.02
2580.15,1771.91
2581.6,1835.04
2583.06,1890.4
2584.51,1907.15
2585.96,1962.77
2587.41,2024.9
2588.86,2071.22
2590.31,2124.33
2591.77,2199.26
2593.22,2270.62
2594.67,2325.22
2596.12,2387.01
2597.57,2470.19
2599.02,2576.64
2600.48,2659.34
2601.93,2727.16
2603.38,2841.7
2604.83,2950.56
2606.28,3038.87
2607.74,3118.35
2609.19,3263.24
2610.64,3416.66
2612.09,3539.27
2613.54,3680.58
2614.99,3795.06
2616.45,3945.86
2617.9,4119.39
2619.35,4275.86
2620.8,4396.47
2622.25,4552.5
2623.71,4760.96
2625.16,4946.54
2626.61,5141.43
2628.06,5338.7
2629.51,5547.92
2630.96,5754.6
2632.42,5945.09
2633.87,6150.08
2635.32,6374.52
2636.77,6535.68
2638.22,6745.61
2639.68,6953.53
2641.13,7124.14
2642.58,7309.58
2644.03,7517.67
2645.48,7653.03
2646.93,7827.4
2648.39,8027.99
2649.84,8060.96
2651.29,8204.26
2652.74,8308.96
2654.19,8381.4
2655.64,8467.74
2657.1,8499.2
2658.55,8505.94
2660,8495.15
2661.45,8475.71
2662.9,8377.14
2664.36,8366.21
2665.81,8254.19
2667.26,8175.87
2668.71,8079.04
2670.16,7911.39
2671.61,7734.64
2673.07,7548.48
2674.52,7444.43
2675.97,7203.69
2677.42,7007.25
2678.87,6796.95
2680.32,6605.92
2681.78,6412.44
2683.23,6222.74
2684.68,5983.01
2686.13,5745.91
2687.58,5515.95
2689.04,5299.02
2690.49,5110.26
2691.94,4921.21
2693.39,4682.45
2694.84,4527.47
2696.29,4338.67
2697.75,4159.48
2699.2,3980.06
2700.65,3831.39
2702.1,3679.68
2703.55,3495.14
2705.01,3351.39
2706.46,3196.71
2707.91,3075.14
2709.36,2998.42
2710.81,2854.24
2712.26,2709.09
2713.72,2628.65
2715.17,2556.17
2716.62,2460.99
2718.07,2358.28
2719.52,2253.72
2720.98,2183.08
2722.43,2107.21
2723.88,2050.3
2725.33,1979.86
2726.78,1909.05
2728.23,1845.99
2729.69,1788.56
2731.14,1740.57
2732.59,1704.59
2734.04,1655.09
2735.49,1606.62
2736.94,1567.55
2738.4,1532.17
2739.85,1488.62
2741.3,1459.26
2742.75,1423.5
2744.2,1405.49
2745.66,1353.2
2747.11,1340.93
2748.56,1306.95
2750.01,1282.2
2751.46,1252.14
2752.91,1222.05
2754.37,1203.2
2755.82,1199.64
2757.27,1168.78
2758.72,1148.46
2760.17,1139.16
2761.63,1115.1
2763.08,1089.77
2764.53,1106.52
2765.98,1059.43
2767.43,1064.71
2768.88,1039.55
2770.34,1015.84
2771.79,1008.54
2773.24,995.752
2774.69,1003.42
2776.14,1006.03
2777.59,969.938
2779.05,981.602
2780.5,944.02
2781.95,924.762
2783.4,941.073
2784.85,915.519
2786.31,893.057
2787.76,895.557
2789.21,886.816
2790.66,889.698
2792.11,888.374
2793.56,867.417
2795.02,869.787
2796.47,845.875
2797.92,834.597
2799.37,841.795
2800.82,823.053
2802.28,827.667
2803.73,813.539
2805.18,816.66
2806.63,824.712
2808.08,813.099
2809.53,798.289
2810.99,800.223
2812.44,776.841
2813.89,791.593
2815.34,785.81
2816.79,777.36
2818.24,772.541
2819.7,761.252
2821.15,753.553
2822.6,761.422
2824.05,732.217
2825.5,734.475
2826.96,741.298
2828.41,749.538
2829.86,737.181
2831.31,742.524
2832.76,732.996
2834.21,720.391
2835.67,731.528
2837.12,728.613
2838.57,715.939
2840.02,733.999
2841.47,717.775
2842.93,721.404
2844.38,707.439
2845.83,716.209
2847.28,713.081
2848.73,710.231
2850.18,703.864
2851.64,720.69
2853.09,714.456
2854.54,712.623
2855.99,704.6
2857.44,697.918
2858.9,688.393
2860.35,712.176
2861.8,694.015
2863.25,710.538
2864.7,714.456
2866.15,709.593
2867.61,704.048
2869.06,702.388
2870.51,719.449
2871.96,704.318
2873.41,689.292
2874.86,706.234
2876.32,695.05
2877.77,719.276
2879.22,712.699
2880.67,706.205
2882.12,691.045
2883.58,691.153
2885.03,699.733
2886.48,712.118
2887.93,710.917
2889.38,726.437
2890.83,712.63
2892.29,713.251
2893.74,707.305
2895.19,717.05
2896.64,713.662
2898.09,700.934
2899.54,714.088
2901,710.451
2902.45,713.085
2903.9,714.882
2905.35,726.513
2906.8,720.037
2908.26,711.198
2909.71,707.601
2911.16,700.905
2912.61,711.299
2914.06,714.723
2915.51,707.796
2916.97,709.221
2918.42,695.23
2919.87,700.743
2921.32,680.558
2922.77,692.459
2924.23,680.276
2925.68,676.409
2927.13,680.085
2928.58,683.812
2930.03,668.324
2931.48,675.965
2932.94,656.53
2934.39,650.213
2935.84,644.83
2937.29,638.434
2938.74,651.999
2940.2,646.042
2941.65,619.836
2943.1,610.798
2944.55,619.652
2946,610.903
2947.45,607.227
2948.91,608.706
2950.36,597.72
2951.81,594.242
2953.26,585.937
2954.71,569.984
2956.16,580.345
2957.62,569.49
2959.07,558.367
2960.52,560.943
2961.97,556.74
2963.42,555.077
2964.88,544.773
2966.33,550.845
2967.78,547.407
2969.23,538.492
2970.68,539.589
2972.13,538.492
2973.59,539.892
2975.04,536.295
2976.49,524.079
2977.94,526.29
2979.39,513.018
2980.84,519.277
2982.3,516.272
2983.75,518.144
2985.2,507.559
2986.65,507.512
2988.1,511.073
2989.56,501.404
2991.01,501.664
2992.46,506.928
2993.91,494.939
2995.36,500.546
2996.81,511.448
2998.27,498.431
2999.72,495.246
3001.17,484.762
3002.62,481.551
3004.07,482.009
3005.53,494.221
3006.98,486.796
3008.43,490.181
3009.88,492.536
3011.33,486.259
3012.78,487.59
3014.24,484.112
3015.69,488.449
3017.14,483.319
3018.59,481.222
3020.04,471.63
3021.5,483.676
3022.95,482.327
3024.4,477.221
3025.85,475.241
3027.3,476.32
3028.75,488.395
3030.21,474.992
3031.66,475.612
3033.11,479.476
3034.56,470.847
3036.01,469.227
3037.46,477.968
3038.92,478.03
3040.37,469.671
3041.82,477.193
3043.27,466.225
3044.72,476.933
3046.18,468.909
3047.63,472.838
3049.08,470.76
3050.53,483.672
3051.98,479.264
3053.43,476.547
3054.89,477.755
3056.34,487.157
3057.79,481.006
3059.24,472.99
3060.69,475.317
3062.15,481.367
3063.6,472.42
3065.05,473.437
3066.5,487.363
3067.95,485.422
3069.4,491.804
3070.86,492.796
3072.31,494.907
3073.76,483.127
3075.21,488.012
3076.66,500.524
3078.11,496.851
3079.57,495.599
3081.02,505.932
3082.47,502.061
3083.92,504.972
3085.37,506.859
3086.83,522.694
3088.28,511.986
3089.73,512.826
3091.18,523.217
3092.63,533.318
3094.08,538.993
3095.54,531.68
3096.99,540.389
3098.44,567.126
3099.89,550.859
3101.34,567.653
3102.8,568.007
3104.25,571.474
3105.7,582.207
3107.15,583.451
3108.6,596.703
3110.05,607.793
3111.51,590.339
3112.96,610.055
3114.41,623.104
3115.86,631.413
3117.31,640.522
3118.76,649.123
3120.22,669.07
3121.67,656.559
3123.12,667.317
3124.57,687.852
3126.02,685.414
3127.48,684.674
3128.93,690.854
3130.38,699
3131.83,714.434
3133.28,720.199
3134.73,716.657
3136.19,730.777
3137.64,736.214
3139.09,731.65
3140.54,740.951
3141.99,738.386
3143.45,736.856
3144.9,757.507
3146.35,750.688
3147.8,742.871
3149.25,766.285
3150.7,748.773
3152.16,755.66
3153.61,745.89
3155.06,760.53
3156.51,756.205
3157.96,757.998
3159.42,744.198
3160.87,762.132
3162.32,760.884
3163.77,750.245
3165.22,764.383
3166.67,775.347
3168.13,763.146
3169.58,763.752
3171.03,788.609
3172.48,782.115
3173.93,784.06
3175.38,787.195
3176.84,803.279
3178.29,812.637
3179.74,837.765
3181.19,809.884
3182.64,822.342
3184.1,848.621
3185.55,835.395
3187,835.081
3188.45,849.414
3189.9,882.072
3191.35,879.82
3192.81,885.084
3194.26,868.489
3195.71,891.459
3197.16,905.172
3198.61,900.139
3200.06,898.141
3201.52,908.011
3202.97,912.294
3204.42,905.14
3205.87,890.701
3207.32,887.068
3208.78,880.971
3210.23,875.138
3211.68,849.822
3213.13,829.604
3214.58,831.747
3216.03,815.545
3217.49,812.604
3218.94,806.486
3220.39,773.868
3221.84,762.504
3223.29,734.27
3224.75,716.913
3226.2,703.027
3227.65,687.784
3229.1,678.725
3230.55,655.79
3232,631.867
3233.46,621.726
3234.91,604.755
3236.36,586.738
3237.81,571.82
3239.26,568.631
3240.72,551.411
3242.17,544.437
3243.62,522.971
3245.07,517.394
3246.52,509.522
3247.97,506.57
3249.43,498.262
3250.88,481.132
3252.33,471.565
3253.78,476.276
3255.23,465.002
3256.68,461.506
3258.14,456.253
3259.59,438.016
3261.04,440.459
3262.49,433.716
3263.94,428.326
3265.4,436.887
3266.85,425.321
3268.3,431.692
3269.75,417.99
3271.2,427.929
3272.65,422.55
3274.11,411.532
3275.56,403.58
3277.01,420.782
3278.46,418.202
3279.91,413.88
3281.37,407.224
3282.82,404.291
3284.27,406.279
3285.72,408.609
3287.17,400.579
3288.62,399.774
3290.08,410.825
3291.53,408.786
3292.98,401.849
3294.43,399.926
3295.88,402.44
3297.33,406.12
3298.79,397.047
3300.24,385.505
3301.69,384.953
3303.14,386.624
3304.59,398.208
3306.05,389.463
3307.5,385.545
3308.95,384.816
3310.4,389.68
3311.85,402.53
3313.3,393.904
3314.76,390.481
3316.21,389.539
3317.66,388.143
3319.11,380.642
3320.56,385.668
3322.02,391.245
3323.47,392.288
3324.92,386.728
3326.37,380.581
3327.82,377.817
3329.27,387.133
3330.73,384.015
3332.18,375.415
3333.63,378.46
3335.08,376.439
3336.53,383.124
3337.98,390.82
3339.44,386.451
3340.89,386.317
3342.34,380.393
3343.79,383.399
3345.24,383.229
3346.7,378.867
3348.15,378.701
3349.6,378.027
3351.05,384.928
3352.5,380.675
3353.95,382.608
3355.41,389.099
3356.86,374.56
3358.31,379.668
3359.76,377.15
3361.21,374.61
3362.67,378.9
3364.12,363.729
3365.57,381.335
3367.02,377.843
3368.47,376.45
3369.92,381.173
3371.38,378.705
3372.83,388.482
3374.28,377.597
3375.73,373.715
3377.18,374.783
3378.63,380.408
3380.09,372.687
3381.54,366.121
3382.99,369.837
3384.44,373.528
3385.89,376.973
3387.35,373.87
3388.8,379.25
3390.25,378.968
3391.7,375.793
3393.15,374.285
3394.6,377.377
3396.06,381.421
3397.51,366.034
3398.96,370.403
3400.41,368.571
3401.86,366.229
3403.32,376.187
3404.77,382.565
3406.22,385.246
3407.67,372.658
3409.12,371.551
3410.57,370.808
3412.03,375.811
3413.48,371.154
3414.93,377.55
3416.38,367.932
3417.83,371.872
3419.28,377.933
3420.74,375.296
3422.19,381.771
3423.64,374.772
3425.09,372.972
3426.54,372.095
3428,365.602
3429.45,366.543
3430.9,366.641
3432.35,366.59
3433.8,364.4
3435.25,356.731
3436.71,365.179
3438.16,371.59
3439.61,369.289
3441.06,373.131
3442.51,367.427
3443.97,371.035
3445.42,379.477
3446.87,366.42
3448.32,365.692
3449.77,366.54
3451.22,366.388
3452.68,371.125
3454.13,365.176
3455.58,362.25
3457.03,364.31
3458.48,365.511
3459.94,355.988
3461.39,360.306
3462.84,357.723
3464.29,364.977
3465.74,369.556
3467.19,374.798
3468.65,364.079
3470.1,368.628
3471.55,363.992
3473,361.734
3474.45,368.48
3475.9,362.221
3477.36,360.501
3478.81,352.577
3480.26,356.841
3481.71,369.018
3483.16,367.77
3484.62,374.718
3486.07,367.496
3487.52,371.356
3488.97,373.344
3490.42,380.094
3491.87,357.817
3493.33,364.425
3494.78,370.613
3496.23,362.564
3497.68,361.099
3499.13,368.509
3500.58,371.291
3502.04,364.905
3503.49,373.012
3504.94,367.322
3506.39,371.414
3507.84,366.265
3509.3,354.98
3510.75,369.559
3512.2,366.204
3513.65,366.244
3515.1,368.867
3516.55,380.437
3518.01,376.068
3519.46,372.056
3520.91,364.353
3522.36,367.243
3523.81,374.549
3525.27,354.94
3526.72,360.066
3528.17,363.033
3529.62,367.478
3531.07,372.846
3532.52,367.903
3533.98,376.432
3535.43,366.687
3536.88,372.442
3538.33,367.914
3539.78,367.236
3541.24,369.422
3542.69,357.981
3544.14,369.639
3545.59,374.917
3547.04,359.697
3548.49,363.747
3549.95,364.49
3551.4,364.985
3552.85,355.189
3554.3,364.555
3555.75,361.687
3557.2,366.536
3558.66,356.059
3560.11,360.727
3561.56,365.634
3563.01,358.549
3564.46,364.061
3565.92,368.849
3567.37,364.162
3568.82,366.706
3570.27,363.498
3571.72,367.467
3573.17,360.803
3574.63,366.179
3576.08,369.787
3577.53,355.552
3578.98,359.88
3580.43,362.679
3581.89,366.839
3583.34,371.677
3584.79,365.486
3586.24,362.412
3587.69,363.592
3589.14,363.632
3590.6,365.255
3592.05,359.375
3593.5,359.452
3594.95,365.288
3596.4,357.643
3597.85,362.459
3599.31,360.46
3600.76,360.698
3602.21,360.293
3603.66,363.902
3605.11,363.358
3606.57,361.947
3608.02,366.644
3609.47,361.597
3610.92,363.816
3612.37,365.739
3613.82,361.554
3615.28,364.501
3616.73,360.048
3618.18,356.002
3619.63,369.942
3621.08,354.104
3622.54,361.546
3623.99,354.664
3625.44,365.071
3626.89,369.718
3628.34,361.922
3629.79,364.285
3631.25,362.762
3632.7,366.493
3634.15,358.29
3635.6,360.1
3637.05,372.561
3638.5,367.16
3639.96,373.116
3641.41,357.36
3642.86,358.141
3644.31,364.288
3645.76,357.86
3647.22,359.916
3648.67,362.925
3650.12,353.723
3651.57,364.862
3653.02,360.919
3654.47,364.057
3655.93,361.294
3657.38,351.849
3658.83,371.291
3660.28,365.591
3661.73,363.174
3663.19,360.734
3664.64,363.347
3666.09,368.145
3667.54,371.316
3668.99,361.135
3670.44,356.969
3671.9,369.397
3673.35,375.884
3674.8,371.006
3676.25,364.223
3677.7,370.342
3679.16,367.037
3680.61,371.428
3682.06,362.499
3683.51,364.566
3684.96,365.612
3686.41,372.619
3687.87,362.221
3689.32,360.52
3690.77,358.206
3692.22,375.66
3693.67,361.287
3695.12,362.553
3696.58,374.073
3698.03,358.942
3699.48,361.947
3700.93,369.574
3702.38,372.431
3703.84,364.389
3705.29,371.807
3706.74,370.901
3708.19,367.864
3709.64,360.676
3711.09,360.386
3712.55,364.909
3714,364.364
3715.45,373.16
3716.9,371.807
3718.35,366.121
3719.8,372.777
3721.26,362.953
3722.71,370.721
3724.16,370.818
3725.61,374.404
3727.06,375.736
3728.52,378.358
3729.97,377.157
3731.42,382.197
3732.87,368.96
3734.32,372.972
3735.77,368.834
3737.23,374.415
3738.68,374.054
3740.13,370.093
3741.58,366.55
3743.03,385.21
3744.49,374.487
3745.94,371.54
3747.39,373.441
3748.84,371.103
3750.29,372.229
3751.74,371.298
3753.2,369.718
3754.65,369.451
3756.1,377.146
3757.55,370.252
3759,374.917
3760.46,381.869
3761.91,374.538
3763.36,379.43
3764.81,379.61
3766.26,368.17
3767.71,373.777
3769.17,377.951
3770.62,378.568
3772.07,378.308
3773.52,377.193
3774.97,369.033
3776.42,373.488
3777.88,370.941
3779.33,381.252
3780.78,377.915
3782.23,376.984
3783.68,381.371
3785.14,368.379
3786.59,372.095
3788.04,378.189
3789.49,385.581
3790.94,388.821
3792.39,376.49
3793.85,375.48
3795.3,377.904
3796.75,379.484
3798.2,382.663
3799.65,369.469
3801.1,371.442
3802.56,379.856
3804.01,379.964
3805.46,388.561
3806.91,380.343
3808.36,384.798
3809.82,377.529
3811.27,373.095
3812.72,377.796
3814.17,384.903
3815.62,385.321
3817.07,387.068
3818.53,382.933
3819.98,382.406
3821.43,383.943
3822.88,382.111
3824.33,391.934
3825.79,389.452
3827.24,381.652
3828.69,382.129
3830.14,372.532
3831.59,385.047
3833.04,382.713
3834.5,382.1
3835.95,375.714
3837.4,375.22
3838.85,391.299
3840.3,377.72
3841.76,384.762
3843.21,384.037
3844.66,383.316
3846.11,383.352
3847.56,378.968
3849.01,393.443
3850.47,392.566
3851.92,393.237
3853.37,387.988
3854.82,399.193
3856.27,394.575
3857.72,396.556
3859.18,387.515
3860.63,392.645
3862.08,387.944
3863.53,395.07
3864.98,407.592
3866.44,397.076
3867.89,396.036
3869.34,390.657
3870.79,386.166
3872.24,398.511
3873.69,401.495
3875.15,394.608
3876.6,397.039
3878.05,397.007
3879.5,398.858
3880.95,408.79
3882.41,401.444
3883.86,394.806
3885.31,394.622
3886.76,404.075
3888.21,399.002
3889.66,400.449
3891.12,402.26
3892.57,389.402
3894.02,405.702
3895.47,402.53
3896.92,413.043
3898.37,399.168
3899.83,398.374
3901.28,406.42
3902.73,404.85
3904.18,407.596
3905.63,416.896
3907.09,396.718
3908.54,412.235
3909.99,413.83
3911.44,415.32
3912.89,425.299
3914.34,415.98
3915.8,413.88
3917.25,425.84
3918.7,417.943
3920.15,406.73
3921.6,420.76
3923.06,405.947
3924.51,404.811
3925.96,414.472
3927.41,425.108
3928.86,420.439
3930.31,426.262
3931.77,429.235
3933.22,429.538
3934.67,430.108
3936.12,430.177
3937.57,425.461
3939.02,413.087
3940.48,429.805
3941.93,443.543
3943.38,443.486
3944.83,429.935
3946.28,439.098
3947.74,444.885
3949.19,450.178
3950.64,443.168
3952.09,445.333
3953.54,431.778
3954.99,444.377
3956.45,442.032
3957.9,439.095
3959.35,448.872
3960.8,442.183
3962.25,448.868
3963.71,444.149
3965.16,441.144
3966.61,446.498
3968.06,449.164
3969.51,449.182
3970.96,458.728
3972.42,451.668
3973.87,452.371
3975.32,458.793
3976.77,459.103
3978.22,453.544
3979.68,463.094
3981.13,458.739
3982.58,462.556
3984.03,468.462
3985.48,470.32
3986.93,459.244
3988.39,469.703
3989.84,470.998
3991.29,462.459
3992.74,470.103
3994.19,464.208
3995.64,466.506
3997.1,474.227
3998.55,471.496
4000,472.773
