0,27781.3
1.77681,26417.3
3.2286,16940.3
4.68039,4899.68
6.13218,835.492
7.58397,151.117
9.03575,94.2895
10.4875,87.7182
11.9393,87.2291
13.3911,86.8632
14.8429,85.6996
16.2947,84.3267
17.7465,82.2022
19.1983,78.3191
20.6501,74.9822
22.1018,71.2124
23.5536,68.4492
25.0054,66.4883
26.4572,62.3342
27.909,57.4088
29.3608,53.3472
30.8126,47.2727
32.2644,46.1963
33.7161,45.473
35.1679,44.815
36.6197,44.8153
38.0715,43.043
39.5233,43.0028
40.9751,44.7408
42.4269,46.7438
43.8787,46.9607
45.3304,51.3664
46.7822,60.5264
48.234,74.7237
49.6858,103.639
51.1376,160.92
52.5894,272.45
54.0412,425.855
55.493,615.156
56.9447,819.581
58.3965,1052.22
59.8483,1239.97
61.3001,1408.29
62.7519,1537.45
64.2037,1628.9
65.6555,1661.45
67.1073,1712.84
68.559,1750.54
70.0108,1769.39
71.4626,1782.77
72.9144,1790.85
74.3662,1805
75.818,1837.13
77.2698,1858.5
78.7216,1898.5
80.1733,1961.9
81.6251,1997.99
83.0769,2041.71
84.5287,2069.5
85.9805,2057.78
87.4323,2008.18
88.8841,1939.47
90.3359,1856.88
91.7877,1761.81
93.2394,1664.83
94.6912,1582.72
96.143,1497.54
97.5948,1425.53
99.0466,1385.28
100.498,1367.75
101.95,1330.37
103.402,1293.64
104.854,1277.37
106.306,1268.65
107.757,1248.96
109.209,1223.9
110.661,1194.88
112.113,1179.92
113.564,1178.94
115.016,1159.17
116.468,1131.58
117.92,1115.99
119.372,1106.8
120.823,1076.11
122.275,1085.38
123.727,1063.69
125.179,1031.38
126.631,1015.75
128.082,1014.59
129.534,988.362
130.986,971.441
132.438,960.904
133.889,944.783
135.341,927.321
136.793,906.076
138.245,893.188
139.697,893.217
141.148,895.519
142.6,885.94
144.052,886.437
145.504,883.654
146.956,876.232
148.407,859.173
149.859,841.149
151.311,826.689
152.763,829.195
154.215,829.647
155.666,822.062
157.118,786.546
158.57,770.679
160.022,768.974
161.473,768.099
162.925,754.748
164.377,759.624
165.829,762.249
167.281,754.445
168.732,741.352
170.184,750.23
171.636,734.309
173.088,715.564
174.54,709.922
175.991,712.194
177.443,678.224
178.895,683.597
180.347,683.592
181.798,676.589
183.25,659.36
184.702,670.425
186.154,666.453
187.606,660.638
189.057,649.896
190.509,639.413
191.961,629.824
193.413,635.898
194.865,648.275
196.316,649.051
197.768,638.369
199.22,635.486
200.672,636.271
202.124,641.336
203.575,634.646
205.027,615.986
206.479,614.067
207.931,619.401
209.382,617.402
210.834,618.645
212.286,632.056
213.738,625.346
215.19,618.078
216.641,625.445
218.093,636.311
219.545,642.326
220.997,642.375
222.449,613.476
223.9,620.882
225.352,628.939
226.804,626.454
228.256,608.202
229.707,610.965
231.159,619.863
232.611,620.186
234.063,624.491
235.515,623.159
236.966,628.129
238.418,626.469
239.87,623.501
241.322,620.996
242.774,615.26
244.225,613.545
245.677,613.987
247.129,616.781
248.581,609.926
250.033,596.267
251.484,603.937
252.936,589.089
254.388,580.743
255.84,587.011
257.291,596.913
258.743,586.33
260.195,583.92
261.647,582.399
263.099,584.77
264.55,584.924
266.002,574.465
267.454,579.058
268.906,584.148
270.358,585.838
271.809,577.895
273.261,564.638
274.713,569.962
276.165,570.031
277.616,566.229
279.068,560.572
280.52,559.354
281.972,554.841
283.424,540.197
284.875,531.986
286.327,535.719
287.779,538.736
289.231,538.681
290.683,541.758
292.134,538.587
293.586,525.911
295.038,511.601
296.49,522.994
297.941,522.273
299.393,518.639
300.845,516.393
302.297,513.539
303.749,511.8
305.2,503.136
306.652,503.23
308.104,500.591
309.556,489.41
311.008,496.682
312.459,506.893
313.911,494.858
315.363,490.347
316.815,495.643
318.267,476.304
319.718,490.562
321.17,488.116
322.622,489.574
324.074,491.868
325.525,485.105
326.977,491.641
328.429,492.158
329.881,474.284
331.333,461.867
332.784,474.636
334.236,469.904
335.688,458.906
337.14,472.034
338.592,476.967
340.043,467.45
341.495,463.907
342.947,471.672
344.399,469.058
345.85,463.001
347.302,462.804
348.754,468.005
350.206,463.704
351.658,458.771
353.109,458.913
354.561,461.997
356.013,461.264
357.465,446.198
358.917,448.47
360.368,450.238
361.82,449.954
363.272,451.863
364.724,457.145
366.176,448.961
367.627,442.71
369.079,443.751
370.531,451.114
371.983,453.625
373.434,441.843
374.886,443.935
376.338,446.561
377.79,446.906
379.242,443.908
380.693,447.317
382.145,431.481
383.597,438.85
385.049,448.229
386.501,454.705
387.952,456.492
389.404,450.163
390.856,443.204
392.308,443.736
393.759,446.474
395.211,447.248
396.663,438.266
398.115,451.361
399.567,446.298
401.018,439.275
402.47,436.296
403.922,443.785
405.374,443.531
406.826,445.231
408.277,444.452
409.729,443.043
411.181,444.227
412.633,452.058
414.085,445.727
415.536,438.076
416.988,440.357
418.44,446.073
419.892,444.127
421.343,458.4
422.795,442.512
424.247,436.413
425.699,437.548
427.151,439.223
428.602,435.832
430.054,429.3
431.506,443.823
432.958,446.195
434.41,441.74
435.861,444.598
437.313,430.748
438.765,430.274
440.217,447.378
441.668,455.053
443.12,446.306
444.572,425.844
446.024,441.035
447.476,433.753
448.927,431.571
450.379,432.158
451.831,433.04
453.283,436.732
454.735,423.908
456.186,428.252
457.638,434.413
459.09,439.066
460.542,440.486
461.993,439.253
463.445,438.945
464.897,431.401
466.349,432.3
467.801,435.55
469.252,424.509
470.704,425.974
472.156,432.526
473.608,439.16
475.06,437.266
476.511,425.348
477.963,422.284
479.415,431.589
480.867,436.844
482.319,433.903
483.77,424.739
485.222,418.088
486.674,430.946
488.126,438.198
489.577,430.567
491.029,426.481
492.481,425.574
493.933,414.639
495.385,416.183
496.836,416.217
498.288,422.983
499.74,422.812
501.192,416.305
502.644,413.19
504.095,417.245
505.547,421.367
506.999,424.74
508.451,423.811
509.902,417.308
511.354,425.211
512.806,415.741
514.258,417.483
515.71,420.451
517.161,422.312
518.613,416.806
520.065,403.667
521.517,420.169
522.969,420.026
524.42,412.226
525.872,405.367
527.324,411.375
528.776,412.24
530.228,418.458
531.679,426.35
533.131,419.94
534.583,411.849
536.035,415.028
537.486,429.105
538.938,424.781
540.39,414.631
541.842,413.141
543.294,416.936
544.745,420.832
546.197,420.338
547.649,417.406
549.101,412.553
550.553,420.507
552.004,426.303
553.456,416.506
554.908,417.956
556.36,410.509
557.811,411.32
559.263,413.465
560.715,419.286
562.167,421.184
563.619,434.682
565.07,422.905
566.522,420.972
567.974,423.228
569.426,417.483
570.878,409.602
572.329,417.377
573.781,408.482
575.233,415.821
576.685,421.453
578.137,421.139
579.588,411.652
581.04,406.48
582.492,414.341
583.944,410.402
585.395,411.371
586.847,414.645
588.299,413.584
589.751,411.249
591.203,410.489
592.654,406.727
594.106,411.973
595.558,419.196
597.01,415.791
598.462,408.42
599.913,415.465
601.365,404.448
602.817,403.295
604.269,413.334
605.72,412.352
607.172,421.594
608.624,424.184
610.076,425.222
611.528,417.81
612.979,410.076
614.431,411.708
615.883,405.137
617.335,409.497
618.787,414.732
620.238,423.551
621.69,421.059
623.142,406.871
624.594,418.379
626.046,416.744
627.497,421.804
628.949,418.503
630.401,420.881
631.853,424.408
633.304,410.984
634.756,406.967
636.208,417.3
637.66,419.629
639.112,421.091
640.563,424.265
642.015,422.078
643.467,417.106
644.919,419.787
646.371,427.301
647.822,430.243
649.274,429.055
650.726,428.481
652.178,434.656
653.629,418.739
655.081,420.133
656.533,427.99
657.985,432.259
659.437,431.288
660.888,436.887
662.34,429.024
663.792,423.349
665.244,427.715
666.696,427.931
668.147,427.421
669.599,441.675
671.051,444.23
672.503,430.5
673.954,429.76
675.406,429.144
676.858,425.078
678.31,433.766
679.762,445.093
681.213,436.43
682.665,427.599
684.117,426.451
685.569,434.106
687.021,447.713
688.472,447.736
689.924,439.698
691.376,435.939
692.828,439.571
694.28,444.508
695.731,439.001
697.183,438.264
698.635,428.814
700.087,429.561
701.538,431.715
702.99,432.788
704.442,430.528
705.894,434.615
707.346,446.228
708.797,449.864
710.249,439.514
711.701,441.832
713.153,442.045
714.605,433.849
716.056,435.916
717.508,436.777
718.96,446.963
720.412,440.448
721.863,435.83
723.315,438.133
724.767,441.279
726.219,441.507
727.671,442.218
729.122,430.497
730.574,429.381
732.026,433.327
733.478,443.544
734.93,450.17
736.381,445.631
737.833,433.481
739.285,437.956
740.737,439.167
742.189,440.822
743.64,445.153
745.092,442.556
746.544,441.498
747.996,447.571
749.447,440.582
750.899,446.813
752.351,447.653
753.803,436.324
755.255,442.668
756.706,436.777
758.158,436.171
759.61,448.884
761.062,453.104
762.514,454.411
763.965,450.107
765.417,441.743
766.869,442.479
768.321,448.535
769.772,446.691
771.224,449.445
772.676,452.131
774.128,441.203
775.58,444.132
777.031,437.337
778.483,445.432
779.935,438.571
781.387,436.281
782.839,442.789
784.29,446.784
785.742,451.007
787.194,460.469
788.646,453.605
790.098,456.545
791.549,457.999
793.001,454.64
794.453,460.067
795.905,454.321
797.356,443.416
798.808,444.606
800.26,440.644
801.712,445.857
803.164,457.89
804.615,458.781
806.067,463.503
807.519,451.547
808.971,455.318
810.423,454.833
811.874,455.152
813.326,451.191
814.778,458.706
816.23,459.942
817.681,460.081
819.133,453.202
820.585,461.548
822.037,462.582
823.489,457.196
824.94,454.409
826.392,463.869
827.844,468.789
829.296,471.877
830.748,473.491
832.199,474.869
833.651,467.737
835.103,469.259
836.555,470.634
838.007,470.195
839.458,467.039
840.91,470.993
842.362,474.434
843.814,477.342
845.265,467.15
846.717,465.252
848.169,480.489
849.621,492.921
851.073,494.891
852.524,489.885
853.976,488.428
855.428,484.637
856.88,486.881
858.332,484.746
859.783,489.784
861.235,491.038
862.687,486.187
864.139,481.873
865.59,479.424
867.042,481.675
868.494,476.274
869.946,475.783
871.398,485.288
872.849,480.559
874.301,466.731
875.753,471.543
877.205,474.513
878.657,481.653
880.108,478.229
881.56,479.377
883.012,479.955
884.464,482.52
885.915,483.704
887.367,485.269
888.819,482.111
890.271,495.125
891.723,489.387
893.174,499.606
894.626,496.635
896.078,488.807
897.53,492.997
898.982,493.884
900.433,490.815
901.885,500.009
903.337,485.091
904.789,490.014
906.241,501.749
907.692,503.354
909.144,493.866
910.596,491.565
912.048,501.813
913.499,502.067
914.951,503.563
916.403,503.613
917.855,502.753
919.307,507.783
920.758,509.553
922.21,507.843
923.662,512.471
925.114,514.355
926.566,513.912
928.017,508.216
929.469,504.607
930.921,511.506
932.373,511.616
933.824,510.999
935.276,510.527
936.728,526.826
938.18,521.746
939.632,513.852
941.083,519.31
942.535,499.83
943.987,516.557
945.439,519.897
946.891,511.138
948.342,510.731
949.794,510.621
951.246,511.954
952.698,515.05
954.15,511.362
955.601,515.354
957.053,517.65
958.505,513.4
959.957,520.871
961.408,517.551
962.86,505.512
964.312,507.793
965.764,526.92
967.216,512.272
968.667,514.742
970.119,519.534
971.571,518.868
973.023,511.924
974.475,511.337
975.926,522.929
977.378,522.516
978.83,514.653
980.282,518.033
981.733,515.985
983.185,522.695
984.637,529.192
986.089,522.839
987.541,523.948
988.992,520.101
990.444,522.944
991.896,528.039
993.348,518.962
994.8,522.964
996.251,538.169
997.703,537.876
999.155,528.725
1000.61,540.918
1002.06,539.998
1003.51,541.977
1004.96,538.055
1006.41,540.858
1007.87,539.949
1009.32,551.824
1010.77,554.324
1012.22,543.622
1013.67,560.995
1015.12,546.262
1016.58,554.404
1018.03,558.529
1019.48,560.875
1020.93,562.396
1022.38,556.392
1023.84,562.71
1025.29,577.443
1026.74,585.749
1028.19,583.268
1029.64,584.894
1031.09,596.55
1032.55,600.383
1034,591.863
1035.45,598.305
1036.9,606.606
1038.35,603.484
1039.8,603.862
1041.26,608.49
1042.71,613.456
1044.16,628.467
1045.61,631.276
1047.06,618.819
1048.52,623.402
1049.97,641.53
1051.42,631.43
1052.87,640.173
1054.32,650.955
1055.77,638.866
1057.23,639.641
1058.68,663.719
1060.13,656.527
1061.58,675.818
1063.03,672.04
1064.49,675.903
1065.94,688.369
1067.39,696.74
1068.84,691.908
1070.29,698.311
1071.74,707.675
1073.2,704.802
1074.65,721.251
1076.1,717.617
1077.55,738.678
1079,735.949
1080.46,731.664
1081.91,738.36
1083.36,745.905
1084.81,731.585
1086.26,751.517
1087.71,748.406
1089.17,734.169
1090.62,738.479
1092.07,742.883
1093.52,726.271
1094.97,716.896
1096.42,747.436
1097.88,750.115
1099.33,725.356
1100.78,728.403
1102.23,728.975
1103.68,726.142
1105.14,728.945
1106.59,723.751
1108.04,713.65
1109.49,708.192
1110.94,724.198
1112.39,718.994
1113.85,715.007
1115.3,702.019
1116.75,697.197
1118.2,695.159
1119.65,693.345
1121.11,699.121
1122.56,689.841
1124.01,694.09
1125.46,671.121
1126.91,683.21
1128.36,670.857
1129.82,668.511
1131.27,674.899
1132.72,680.525
1134.17,680.073
1135.62,672.513
1137.07,670.524
1138.53,666.985
1139.98,668.561
1141.43,667.164
1142.88,658.152
1144.33,665.489
1145.79,673.094
1147.24,659.822
1148.69,648.34
1150.14,665.777
1151.59,667.984
1153.04,672.145
1154.5,666.354
1155.95,665.564
1157.4,665.897
1158.85,661.875
1160.3,665.186
1161.76,672.483
1163.21,662.82
1164.66,666.767
1166.11,668.631
1167.56,660.916
1169.01,659.067
1170.47,666.657
1171.92,674.466
1173.37,669.56
1174.82,671.469
1176.27,666.598
1177.72,674.208
1179.18,679.899
1180.63,689.383
1182.08,684.999
1183.53,675.401
1184.98,674.774
1186.44,675.242
1187.89,677.369
1189.34,685.094
1190.79,676.966
1192.24,690.358
1193.69,676.792
1195.15,684.656
1196.6,688.846
1198.05,693.941
1199.5,694.831
1200.95,698.132
1202.41,704.996
1203.86,697.123
1205.31,705.374
1206.76,712.626
1208.21,710.032
1209.66,702.586
1211.12,698.848
1212.57,703.575
1214.02,707.8
1215.47,707.695
1216.92,702.213
1218.37,719.242
1219.83,720.56
1221.28,716.653
1222.73,725.893
1224.18,720.202
1225.63,708.242
1227.09,705.404
1228.54,723.1
1229.99,733.538
1231.44,715.778
1232.89,711.816
1234.34,736.352
1235.8,732.504
1237.25,729.939
1238.7,739.21
1240.15,744.076
1241.6,740.025
1243.06,741.173
1244.51,753.774
1245.96,752.571
1247.41,765.704
1248.86,776.058
1250.31,769.67
1251.77,759.51
1253.22,768.959
1254.67,776.932
1256.12,785.293
1257.57,802.442
1259.02,808.834
1260.48,810.201
1261.93,821.917
1263.38,807.716
1264.83,835.642
1266.28,833.927
1267.74,830.974
1269.19,844.574
1270.64,860.858
1272.09,870.387
1273.54,881.775
1274.99,888.545
1276.45,898.635
1277.9,908.94
1279.35,936.925
1280.8,917.072
1282.25,941.677
1283.71,963.468
1285.16,980.558
1286.61,994.307
1288.06,1008.3
1289.51,1037.09
1290.96,1072.53
1292.42,1068.38
1293.87,1105.87
1295.32,1134.1
1296.77,1155.16
1298.22,1197.41
1299.67,1241.52
1301.13,1280.39
1302.58,1309.56
1304.03,1337.6
1305.48,1383.38
1306.93,1442.39
1308.39,1485.12
1309.84,1563.78
1311.29,1622.01
1312.74,1680.05
1314.19,1762.57
1315.64,1844.39
1317.1,1913.86
1318.55,1994.71
1320,2084.18
1321.45,2156.54
1322.9,2242.57
1324.36,2335.45
1325.81,2429.86
1327.26,2531.61
1328.71,2575.09
1330.16,2621.49
1331.61,2695.52
1333.07,2749.21
1334.52,2779.89
1335.97,2827.78
1337.42,2812.57
1338.87,2796.26
1340.33,2752.74
1341.78,2729.07
1343.23,2652.75
1344.68,2568.24
1346.13,2504.97
1347.58,2432.82
1349.04,2345.46
1350.49,2249.02
1351.94,2140.44
1353.39,2065.71
1354.84,1992.46
1356.29,1870.31
1357.75,1807.67
1359.2,1733.45
1360.65,1672.06
1362.1,1597.83
1363.55,1527.74
1365.01,1489.25
1366.46,1436.53
1367.91,1367.27
1369.36,1338.04
1370.81,1292.3
1372.26,1249.69
1373.72,1244.23
1375.17,1213.34
1376.62,1193.59
1378.07,1160.37
1379.52,1130.87
1380.98,1111.29
1382.43,1090.44
1383.88,1083.51
1385.33,1066.92
1386.78,1046.13
1388.23,1046.1
1389.69,1025.74
1391.14,1010.35
1392.59,1011.97
1394.04,1010.68
1395.49,989.719
1396.94,975.791
1398.4,970.134
1399.85,967.937
1401.3,966.491
1402.75,962.101
1404.2,965.258
1405.66,966.416
1407.11,951.459
1408.56,958.234
1410.01,948.616
1411.46,958.677
1412.91,965.815
1414.37,948.417
1415.82,951.922
1417.27,956.663
1418.72,962.534
1420.17,962.196
1421.63,962.529
1423.08,966.799
1424.53,966.068
1425.98,960.576
1427.43,986.488
1428.88,962.579
1430.34,978.868
1431.79,977.779
1433.24,984.092
1434.69,981.139
1436.14,991.289
1437.59,1007.72
1439.05,1005.2
1440.5,1014.94
1441.95,1007.76
1443.4,1008.48
1444.85,1007.8
1446.31,1018.14
1447.76,1017.36
1449.21,1020.87
1450.66,1035.93
1452.11,1053.45
1453.56,1063.66
1455.02,1069.78
1456.47,1065.59
1457.92,1064.58
1459.37,1088.22
1460.82,1105.97
1462.28,1112.92
1463.73,1107.8
1465.18,1140.48
1466.63,1124.02
1468.08,1149.11
1469.53,1161.77
1470.99,1163.02
1472.44,1172.08
1473.89,1186.17
1475.34,1209.71
1476.79,1245.32
1478.24,1252.49
1479.7,1256.39
1481.15,1287.58
1482.6,1304.56
1484.05,1325.87
1485.5,1357.78
1486.96,1371.85
1488.41,1393.55
1489.86,1415.61
1491.31,1441.67
1492.76,1458.84
1494.21,1469.15
1495.67,1521.61
1497.12,1587.18
1498.57,1604.56
1500.02,1622.13
1501.47,1665.78
1502.93,1720.43
1504.38,1720.57
1505.83,1801.23
1507.28,1830.69
1508.73,1903.59
1510.18,1970.56
1511.64,2034.38
1513.09,2109.83
1514.54,2168.83
1515.99,2263.53
1517.44,2382.17
1518.89,2481.53
1520.35,2562.78
1521.8,2660.18
1523.25,2801.45
1524.7,2950.02
1526.15,3177.19
1527.61,3333.21
1529.06,3576.7
1530.51,3806.42
1531.96,4083.07
1533.41,4401.54
1534.86,4729.45
1536.32,5106.86
1537.77,5560.04
1539.22,6050.4
1540.67,6581.57
1542.12,7125.72
1543.58,7839.96
1545.03,8563.74
1546.48,9378.2
1547.93,10164.2
1549.38,10999.2
1550.83,11861.9
1552.29,12807.6
1553.74,13719.8
1555.19,14611.7
1556.64,15551.3
1558.09,16421.1
1559.54,17209.9
1561,17912.8
1562.45,18481.2
1563.9,18835.3
1565.35,19081.3
1566.8,19128.2
1568.26,18998.6
1569.71,18507.8
1571.16,17906.4
1572.61,17182.1
1574.06,16311
1575.51,15380.2
1576.97,14389.8
1578.42,13396
1579.87,12447
1581.32,11502.1
1582.77,10611
1584.23,9785.3
1585.68,8983.77
1587.13,8316.45
1588.58,7617.77
1590.03,6995.09
1591.48,6448.11
1592.94,5919.08
1594.39,5539.76
1595.84,5202.55
1597.29,4845.38
1598.74,4603.12
1600.2,4362.42
1601.65,4122.9
1603.1,3899.97
1604.55,3712.07
1606,3526.34
1607.45,3348.68
1608.91,3200.91
1610.36,3062.22
1611.81,2921.39
1613.26,2747.64
1614.71,2616.83
1616.16,2495.73
1617.62,2372.15
1619.07,2271.78
1620.52,2147.75
1621.97,2083.22
1623.42,2001.86
1624.88,1912.23
1626.33,1854.78
1627.78,1782.86
1629.23,1721.75
1630.68,1665.04
1632.13,1594.98
1633.59,1562.9
1635.04,1547.25
1636.49,1517.06
1637.94,1463.49
1639.39,1410.94
1640.85,1395.28
1642.3,1364.63
1643.75,1338.02
1645.2,1308.92
1646.65,1303.08
1648.1,1288.4
1649.56,1269.9
1651.01,1231.9
1652.46,1214.29
1653.91,1195.08
1655.36,1177.99
1656.81,1175.5
1658.27,1142.98
1659.72,1114.4
1661.17,1109.27
1662.62,1097.21
1664.07,1077.11
1665.53,1073.04
1666.98,1072.93
1668.43,1045.81
1669.88,1016.94
1671.33,1011.42
1672.78,1008.32
1674.24,980.951
1675.69,962.28
1677.14,970.765
1678.59,971.601
1680.04,955.789
1681.5,941.04
1682.95,939.922
1684.4,942.75
1685.85,935.354
1687.3,926.099
1688.75,914.9
1690.21,903.596
1691.66,896.747
1693.11,873.911
1694.56,884.961
1696.01,888.177
1697.46,874.105
1698.92,868.722
1700.37,858.402
1701.82,853.949
1703.27,852.452
1704.72,859.193
1706.18,859.476
1707.63,853.879
1709.08,843.804
1710.53,848.232
1711.98,844.4
1713.43,825.929
1714.89,831.61
1716.34,831.073
1717.79,831.953
1719.24,821.927
1720.69,830.477
1722.15,848.749
1723.6,830.626
1725.05,840.672
1726.5,829.871
1727.95,816.663
1729.4,825.114
1730.86,824.964
1732.31,835.865
1733.76,843.262
1735.21,815.689
1736.66,808.084
1738.11,817.444
1739.57,812.587
1741.02,800.732
1742.47,804.848
1743.92,808.323
1745.37,794.623
1746.83,787.142
1748.28,788.698
1749.73,795.299
1751.18,799.34
1752.63,790.145
1754.08,775.397
1755.54,791.203
1756.99,793.162
1758.44,781.237
1759.89,760.062
1761.34,772.608
1762.8,765.624
1764.25,760.589
1765.7,755.648
1767.15,762.632
1768.6,765.709
1770.05,763.661
1771.51,755.593
1772.96,735.994
1774.41,734.453
1775.86,739.94
1777.31,741.71
1778.76,730.998
1780.22,720.843
1781.67,733.091
1783.12,740.462
1784.57,734.458
1786.02,715.34
1787.48,717.269
1788.93,731.182
1790.38,717.557
1791.83,709.082
1793.28,726.455
1794.73,745.249
1796.19,711.891
1797.64,699.022
1799.09,711.24
1800.54,706.602
1801.99,706.03
1803.45,713.138
1804.9,713.904
1806.35,712.78
1807.8,715.653
1809.25,710.26
1810.7,701.82
1812.16,697.65
1813.61,697.545
1815.06,698.251
1816.51,693.956
1817.96,701.378
1819.41,705.737
1820.87,699.359
1822.32,691.938
1823.77,700.945
1825.22,704.748
1826.67,717.03
1828.13,694.588
1829.58,711.473
1831.03,705.13
1832.48,699.658
1833.93,696.616
1835.38,686.54
1836.84,720.077
1838.29,713.118
1839.74,727.21
1841.19,731.102
1842.64,726.887
1844.1,732.285
1845.55,728.741
1847,731.6
1848.45,729.05
1849.9,723.666
1851.35,734.115
1852.81,749.802
1854.26,750.876
1855.71,747.004
1857.16,757.338
1858.61,759.843
1860.07,746.029
1861.52,739.732
1862.97,738.549
1864.42,746.616
1865.87,750.086
1867.32,769.596
1868.78,757.253
1870.23,739.13
1871.68,731.967
1873.13,743.012
1874.58,725.262
1876.03,721.643
1877.49,743.952
1878.94,730.203
1880.39,713.342
1881.84,716.687
1883.29,724.059
1884.75,722.11
1886.2,720.932
1887.65,705.16
1889.1,696.452
1890.55,703.162
1892,705.389
1893.46,693.012
1894.91,695.08
1896.36,697.774
1897.81,687.32
1899.26,683.742
1900.72,679.576
1902.17,678.582
1903.62,675.764
1905.07,680.217
1906.52,668.128
1907.97,666.578
1909.43,676.34
1910.88,669.679
1912.33,671.369
1913.78,664.067
1915.23,670.947
1916.68,671.066
1918.14,657.193
1919.59,663.093
1921.04,644.324
1922.49,661.647
1923.94,658.818
1925.4,662.79
1926.85,664.898
1928.3,654.245
1929.75,637.106
1931.2,659.092
1932.65,666.394
1934.11,661.831
1935.56,664.763
1937.01,650.065
1938.46,661.05
1939.91,659.589
1941.37,666.105
1942.82,666.274
1944.27,667.303
1945.72,679.541
1947.17,667.9
1948.62,667.065
1950.08,659.37
1951.53,663.784
1952.98,666.105
1954.43,666.831
1955.88,658.928
1957.33,674.113
1958.79,680.023
1960.24,660.936
1961.69,652.844
1963.14,666.846
1964.59,664.992
1966.05,674.123
1967.5,676.613
1968.95,675.634
1970.4,684.254
1971.85,684.089
1973.3,681.773
1974.76,689.92
1976.21,686.704
1977.66,683.846
1979.11,684.721
1980.56,679.392
1982.02,687.778
1983.47,680.645
1984.92,677.22
1986.37,685.879
1987.82,695.612
1989.27,693.34
1990.73,689.662
1992.18,688.175
1993.63,689.493
1995.08,691.526
1996.53,702.556
1997.98,679.825
1999.44,679.715
2000.89,708.749
2002.34,681.564
2003.79,690.949
2005.24,686.217
2006.7,702.576
2008.15,686.5
2009.6,697.018
2011.05,694.264
2012.5,692.187
2013.95,698.435
2015.41,682.926
2016.86,671.131
2018.31,670.952
2019.76,668.362
2021.21,665.3
2022.67,659.708
2024.12,653.44
2025.57,672.851
2027.02,667.373
2028.47,672.001
2029.92,646.734
2031.38,658.386
2032.83,662.298
2034.28,660.305
2035.73,644.751
2037.18,650.477
2038.63,642.654
2040.09,640.894
2041.54,625.39
2042.99,639.661
2044.44,643.777
2045.89,634.924
2047.35,628.169
2048.8,634.745
2050.25,630.704
2051.7,631.559
2053.15,639.85
2054.6,631.996
2056.06,615.344
2057.51,625.698
2058.96,622.602
2060.41,616.249
2061.86,619.585
2063.32,624.317
2064.77,618.183
2066.22,611.78
2067.67,612.536
2069.12,621.493
2070.57,608.077
2072.03,619.162
2073.48,616.95
2074.93,610.349
2076.38,606.318
2077.83,616.513
2079.28,617.929
2080.74,609.449
2082.19,606.497
2083.64,616.677
2085.09,625.51
2086.54,619.654
2088,612.486
2089.45,608.684
2090.9,598.25
2092.35,595.83
2093.8,601.113
2095.25,604.841
2096.71,598.27
2098.16,613.476
2099.61,619.947
2101.06,622.468
2102.51,621.409
2103.97,618.302
2105.42,604.981
2106.87,602.46
2108.32,601.069
2109.77,595.989
2111.22,597.326
2112.68,595.934
2114.13,599.682
2115.58,596.028
2117.03,600.065
2118.48,610.289
2119.94,606.238
2121.39,618.247
2122.84,609.936
2124.29,614.301
2125.74,618.178
2127.19,620.072
2128.65,634.452
2130.1,615.245
2131.55,611.02
2133,618.113
2134.45,614.579
2135.9,613.983
2137.36,620.499
2138.81,612.268
2140.26,608.932
2141.71,599.14
2143.16,618.406
2144.62,620.241
2146.07,616.021
2147.52,613.162
2148.97,615.364
2150.42,624.993
2151.87,615.002
2153.33,634.348
2154.78,629.934
2156.23,624.56
2157.68,620.415
2159.13,626.315
2160.58,632.429
2162.04,628.422
2163.49,648.663
2164.94,645.139
2166.39,629.685
2167.84,633.532
2169.3,632.633
2170.75,637.603
2172.2,638.995
2173.65,637.603
2175.1,645.999
2176.55,652.784
2178.01,650.786
2179.46,637.822
2180.91,648.773
2182.36,652.431
2183.81,660.066
2185.27,655.891
2186.72,664.167
2188.17,669.351
2189.62,656.502
2191.07,657.178
2192.52,662.268
2193.98,661.895
2195.43,653.525
2196.88,661.234
2198.33,660.817
2199.78,650.766
2201.24,652.118
2202.69,661.438
2204.14,669.476
2205.59,645.542
2207.04,670.047
2208.49,663.754
2209.95,662.228
2211.4,676.266
2212.85,664.495
2214.3,660.807
2215.75,650.865
2217.2,663.009
2218.66,663.834
2220.11,676.266
2221.56,673.358
2223.01,664.912
2224.46,673.393
2225.92,678.07
2227.37,677.185
2228.82,653.132
2230.27,681.44
2231.72,657.466
2233.17,657.755
2234.63,676.783
2236.08,677.598
2237.53,673.979
2238.98,668.75
2240.43,691.004
2241.89,676.002
2243.34,684.706
2244.79,674.272
2246.24,688.563
2247.69,686.197
2249.14,685.948
2250.6,681.037
2252.05,683.587
2253.5,674.874
2254.95,682.588
2256.4,684.755
2257.85,699.439
2259.31,699.707
2260.76,697.615
2262.21,691.6
2263.66,701.76
2265.11,703.754
2266.57,699.842
2268.02,700.642
2269.47,716.598
2270.92,712.492
2272.37,704.246
2273.82,710.911
2275.28,714.883
2276.73,713.228
2278.18,703.689
2279.63,715.962
2281.08,721.136
2282.54,714.123
2283.99,723.875
2285.44,725.545
2286.89,728.383
2288.34,727.916
2289.79,714.883
2291.25,731.739
2292.7,736.933
2294.15,730.064
2295.6,736.7
2297.05,751.935
2298.5,751.373
2299.96,721.787
2301.41,732.112
2302.86,743.808
2304.31,752.203
2305.76,755.847
2307.22,741.352
2308.67,753.684
2310.12,746.536
2311.57,762.975
2313.02,765.082
2314.47,767.418
2315.93,767.071
2317.38,766.991
2318.83,762.239
2320.28,766.931
2321.73,762.935
2323.19,773.796
2324.64,775.242
2326.09,774.472
2327.54,780.77
2328.99,788.3
2330.44,788.793
2331.9,792.501
2333.35,810.39
2334.8,803.203
2336.25,810.505
2337.7,804.401
2339.16,809.381
2340.61,821.942
2342.06,825.765
2343.51,818.716
2344.96,836.521
2346.41,823.781
2347.87,817.652
2349.32,832.252
2350.77,845.464
2352.22,865.232
2353.67,846.016
2355.12,848.198
2356.58,850.842
2358.03,873.817
2359.48,868.667
2360.93,890.513
2362.38,872.977
2363.84,881.238
2365.29,894.559
2366.74,910.799
2368.19,895.673
2369.64,920.372
2371.09,917.35
2372.55,930.284
2374,937.993
2375.45,945.266
2376.9,963.588
2378.35,971.471
2379.8,971.725
2381.26,987.194
2382.71,985.086
2384.16,998.497
2385.61,1027.44
2387.06,1054.31
2388.52,1056.71
2389.97,1043.96
2391.42,1052.06
2392.87,1099.6
2394.32,1118.71
2395.77,1160.62
2397.23,1160.87
2398.68,1166.37
2400.13,1179.87
2401.58,1210.81
2403.03,1222.01
2404.49,1253.31
2405.94,1272.65
2407.39,1286.21
2408.84,1309.78
2410.29,1342.48
2411.74,1344.95
2413.2,1359.25
2414.65,1384.43
2416.1,1395.94
2417.55,1419.09
2419,1431.42
2420.46,1441.68
2421.91,1434.97
2423.36,1447.41
2424.81,1471.86
2426.26,1481.78
2427.71,1455.3
2429.17,1470.88
2430.62,1492.04
2432.07,1476.61
2433.52,1462.69
2434.97,1481.37
2436.42,1476.79
2437.88,1472.9
2439.33,1459.03
2440.78,1462.95
2442.23,1441.46
2443.68,1432.29
2445.14,1425.7
2446.59,1411.85
2448.04,1398.18
2449.49,1390.45
2450.94,1412.38
2452.39,1387.27
2453.85,1401.49
2455.3,1386.41
2456.75,1349.32
2458.2,1332.62
2459.65,1329.75
2461.1,1345.7
2462.56,1327.01
2464.01,1315.88
2465.46,1333.08
2466.91,1319.2
2468.36,1302.97
2469.82,1304.06
2471.27,1284.26
2472.72,1289.71
2474.17,1293.48
2475.62,1283.9
2477.07,1314.58
2478.53,1293.36
2479.98,1287.09
2481.43,1269.04
2482.88,1281.28
2484.33,1292.8
2485.79,1289.4
2487.24,1275.22
2488.69,1267.08
2490.14,1274.59
2491.59,1286.58
2493.04,1287.95
2494.5,1266.87
2495.95,1309.73
2497.4,1288.86
2498.85,1288.44
2500.3,1279.55
2501.76,1307.42
2503.21,1292.38
2504.66,1287.01
2506.11,1314.39
2507.56,1297.61
2509.01,1306.83
2510.47,1309.9
2511.92,1315.98
2513.37,1331.75
2514.82,1332.07
2516.27,1339.64
2517.72,1341.79
2519.18,1367.75
2520.63,1371.45
2522.08,1384.46
2523.53,1398.72
2524.98,1390.26
2526.44,1401.61
2527.89,1406.78
2529.34,1418.83
2530.79,1454.79
2532.24,1468.51
2533.69,1479.62
2535.15,1505.68
2536.6,1509.76
2538.05,1510.05
2539.5,1529.54
2540.95,1561.38
2542.41,1565.55
2543.86,1574.4
2545.31,1604.03
2546.76,1636.01
2548.21,1656.99
2549.66,1670.46
2551.12,1703.96
2552.57,1731.79
2554.02,1743.3
2555.47,1781.05
2556.92,1789.24
2558.37,1822.18
2559.83,1841.3
2561.28,1898.64
2562.73,1918.66
2564.18,1957.46
2565.63,1992.57
2567.09,2043.94
2568.54,2078.84
2569.99,2106.53
2571.44,2139.58
2572.89,2168.38
2574.34,2245.34
2575.8,2299.92
2577.25,2341.14
2578.7,2394.63
2580.15,2441.33
2581.6,2528.29
2583.06,2604.58
2584.51,2627.65
2585.96,2704.29
2587.41,2789.89
2588.86,2853.71
2590.31,2926.88
2591.77,3030.12
2593.22,3128.43
2594.67,3203.67
2596.12,3288.79
2597.57,3403.41
2599.02,3550.06
2600.48,3664.01
2601.93,3757.45
2603.38,3915.26
2604.83,4065.25
2606.28,4186.92
2607.74,4296.44
2609.19,4496.06
2610.64,4707.44
2612.09,4876.36
2613.54,5071.07
2614.99,5228.79
2616.45,5436.57
2617.9,5675.66
2619.35,5891.24
2620.8,6057.41
2622.25,6272.39
2623.71,6559.6
2625.16,6815.3
2626.61,7083.81
2628.06,7355.61
2629.51,7643.86
2630.96,7928.64
2632.42,8191.09
2633.87,8473.53
2635.32,8782.75
2636.77,9004.79
2638.22,9294.04
2639.68,9580.5
2641.13,9815.57
2642.58,10071.1
2644.03,10357.8
2645.48,10544.3
2646.93,10784.5
2648.39,11060.9
2649.84,11106.3
2651.29,11303.8
2652.74,11448
2654.19,11547.8
2655.64,11666.8
2657.1,11710.1
2658.55,11719.4
2660,11704.5
2661.45,11677.7
2662.9,11541.9
2664.36,11526.9
2665.81,11372.5
2667.26,11264.6
2668.71,11131.2
2670.16,10900.2
2671.61,10656.7
2673.07,10400.2
2674.52,10256.9
2675.97,9925.17
2677.42,9654.52
2678.87,9364.78
2680.32,9101.58
2681.78,8835
2683.23,8573.64
2684.68,8243.33
2686.13,7916.66
2687.58,7599.82
2689.04,7300.93
2690.49,7040.87
2691.94,6780.4
2693.39,6451.44
2694.84,6237.9
2696.29,5977.78
2697.75,5730.88
2699.2,5483.69
2700.65,5278.85
2702.1,5069.83
2703.55,4815.56
2705.01,4617.51
2706.46,4404.4
2707.91,4236.89
2709.36,4131.2
2710.81,3932.55
2712.26,3732.56
2713.72,3621.72
2715.17,3521.86
2716.62,3390.73
2718.07,3249.22
2719.52,3105.15
2720.98,3007.83
2722.43,2903.29
2723.88,2824.88
2725.33,2727.83
2726.78,2630.27
2728.23,2543.39
2729.69,2464.26
2731.14,2398.14
2732.59,2348.56
2734.04,2280.37
2735.49,2213.58
2736.94,2159.75
2738.4,2111.01
2739.85,2051
2741.3,2010.56
2742.75,1961.28
2744.2,1936.48
2745.66,1864.43
2747.11,1847.52
2748.56,1800.71
2750.01,1766.61
2751.46,1725.18
2752.91,1683.73
2754.37,1657.76
2755.82,1652.85
2757.27,1610.33
2758.72,1582.34
2760.17,1569.52
2761.63,1536.38
2763.08,1501.47
2764.53,1524.55
2765.98,1459.67
2767.43,1466.95
2768.88,1432.28
2770.34,1399.61
2771.79,1389.56
2773.24,1371.94
2774.69,1382.5
2776.14,1386.1
2777.59,1336.37
2779.05,1352.44
2780.5,1300.66
2781.95,1274.13
2783.4,1296.6
2784.85,1261.39
2786.31,1230.45
2787.76,1233.89
2789.21,1221.85
2790.66,1225.82
2792.11,1223.99
2793.56,1195.12
2795.02,1198.38
2796.47,1165.44
2797.92,1149.9
2799.37,1159.82
2800.82,1133.99
2802.28,1140.35
2803.73,1120.89
2805.18,1125.19
2806.63,1136.28
2808.08,1120.28
2809.53,1099.87
2810.99,1102.54
2812.44,1070.32
2813.89,1090.65
2815.34,1082.68
2816.79,1071.04
2818.24,1064.4
2819.7,1048.85
2821.15,1038.24
2822.6,1049.08
2824.05,1008.84
2825.5,1011.95
2826.96,1021.35
2828.41,1032.71
2829.86,1015.68
2831.31,1023.04
2832.76,1009.91
2834.21,992.547
2835.67,1007.89
2837.12,1003.88
2838.57,986.413
2840.02,1011.3
2841.47,988.943
2842.93,993.944
2844.38,974.702
2845.83,986.786
2847.28,982.476
2848.73,978.55
2850.18,969.776
2851.64,992.96
2853.09,984.37
2854.54,981.845
2855.99,970.79
2857.44,961.584
2858.9,948.462
2860.35,981.229
2861.8,956.206
2863.25,978.972
2864.7,984.37
2866.15,977.67
2867.61,970.03
2869.06,967.743
2870.51,991.25
2871.96,970.403
2873.41,949.7
2874.86,973.042
2876.32,957.633
2877.77,991.011
2879.22,981.949
2880.67,973.002
2882.12,952.115
2883.58,952.264
2885.03,964.085
2886.48,981.149
2887.93,979.494
2889.38,1000.88
2890.83,981.855
2892.29,982.71
2893.74,974.518
2895.19,987.944
2896.64,983.277
2898.09,965.74
2899.54,983.863
2901,978.853
2902.45,982.481
2903.9,984.957
2905.35,1000.98
2906.8,992.06
2908.26,979.882
2909.71,974.926
2911.16,965.7
2912.61,980.021
2914.06,984.738
2915.51,975.194
2916.97,977.158
2918.42,957.881
2919.87,965.477
2921.32,937.665
2922.77,954.064
2924.23,937.278
2925.68,931.949
2927.13,937.014
2928.58,942.149
2930.03,920.81
2931.48,931.338
2932.94,904.561
2934.39,895.857
2935.84,888.44
2937.29,879.627
2938.74,898.317
2940.2,890.111
2941.65,854.003
2943.1,841.552
2944.55,853.75
2946,841.696
2947.45,836.631
2948.91,838.669
2950.36,823.533
2951.81,818.741
2953.26,807.299
2954.71,785.318
2956.16,799.594
2957.62,784.637
2959.07,769.312
2960.52,772.861
2961.97,767.071
2963.42,764.779
2964.88,750.583
2966.33,758.948
2967.78,754.211
2969.23,741.929
2970.68,743.44
2972.13,741.929
2973.59,743.857
2975.04,738.901
2976.49,722.071
2977.94,725.118
2979.39,706.83
2980.84,715.455
2982.3,711.314
2983.75,713.894
2985.2,699.31
2986.65,699.245
2988.1,704.151
2989.56,690.83
2991.01,691.188
2992.46,698.44
2993.91,681.922
2995.36,689.647
2996.81,704.668
2998.27,686.734
2999.72,682.345
3001.17,667.9
3002.62,663.476
3004.07,664.107
3005.53,680.933
3006.98,670.703
3008.43,675.366
3009.88,678.612
3011.33,669.963
3012.78,671.797
3014.24,667.005
3015.69,672.98
3017.14,665.912
3018.59,663.024
3020.04,649.806
3021.5,666.404
3022.95,664.545
3024.4,657.511
3025.85,654.782
3027.3,656.268
3028.75,672.905
3030.21,654.439
3031.66,655.294
3033.11,660.618
3034.56,648.728
3036.01,646.496
3037.46,658.54
3038.92,658.624
3040.37,647.107
3041.82,657.471
3043.27,642.36
3044.72,657.113
3046.18,646.059
3047.63,651.472
3049.08,648.609
3050.53,666.399
3051.98,660.325
3053.43,656.581
3054.89,658.247
3056.34,671.2
3057.79,662.725
3059.24,651.68
3060.69,654.887
3062.15,663.222
3063.6,650.895
3065.05,652.297
3066.5,671.484
3067.95,668.809
3069.4,677.603
3070.86,678.97
3072.31,681.878
3073.76,665.648
3075.21,672.379
3076.66,689.617
3078.11,684.557
3079.57,682.832
3081.02,697.068
3082.47,691.734
3083.92,695.746
3085.37,698.345
3086.83,720.162
3088.28,705.409
3089.73,706.567
3091.18,720.883
3092.63,734.801
3094.08,742.62
3095.54,732.544
3096.99,744.543
3098.44,781.381
3099.89,758.968
3101.34,782.107
3102.8,782.594
3104.25,787.371
3105.7,802.159
3107.15,803.874
3108.6,822.131
3110.05,837.411
3111.51,813.363
3112.96,840.528
3114.41,858.507
3115.86,869.954
3117.31,882.505
3118.76,894.356
3120.22,921.839
3121.67,904.6
3123.12,919.423
3124.57,947.716
3126.02,944.356
3127.48,943.337
3128.93,951.852
3130.38,963.076
3131.83,984.34
3133.28,992.284
3134.73,987.402
3136.19,1006.86
3137.64,1014.35
3139.09,1008.06
3140.54,1020.88
3141.99,1017.34
3143.45,1015.23
3144.9,1043.69
3146.35,1034.29
3147.8,1023.52
3149.25,1055.78
3150.7,1031.65
3152.16,1041.14
3153.61,1027.68
3155.06,1047.85
3156.51,1041.89
3157.96,1044.36
3159.42,1025.35
3160.87,1050.06
3162.32,1048.34
3163.77,1033.68
3165.22,1053.16
3166.67,1068.27
3168.13,1051.46
3169.58,1052.29
3171.03,1086.54
3172.48,1077.59
3173.93,1080.27
3175.38,1084.59
3176.84,1106.75
3178.29,1119.64
3179.74,1154.26
3181.19,1115.85
3182.64,1133.01
3184.1,1169.22
3185.55,1151
3187,1150.57
3188.45,1170.31
3189.9,1215.31
3191.35,1212.21
3192.81,1219.46
3194.26,1196.59
3195.71,1228.24
3197.16,1247.14
3198.61,1240.2
3200.06,1237.45
3201.52,1251.05
3202.97,1256.95
3204.42,1247.09
3205.87,1227.2
3207.32,1222.19
3208.78,1213.79
3210.23,1205.76
3211.68,1170.88
3213.13,1143.02
3214.58,1145.97
3216.03,1123.65
3217.49,1119.6
3218.94,1111.17
3220.39,1066.23
3221.84,1050.57
3223.29,1011.67
3224.75,987.755
3226.2,968.623
3227.65,947.622
3229.1,935.14
3230.55,903.541
3232,870.581
3233.46,856.608
3234.91,833.226
3236.36,808.402
3237.81,787.848
3239.26,783.454
3240.72,759.729
3242.17,750.12
3243.62,720.545
3245.07,712.86
3246.52,702.014
3247.97,697.948
3249.43,686.5
3250.88,662.899
3252.33,649.717
3253.78,656.209
3255.23,640.675
3256.68,635.859
3258.14,628.621
3259.59,603.494
3261.04,606.859
3262.49,597.569
3263.94,590.143
3265.4,601.938
3266.85,586.002
3268.3,594.781
3269.75,575.902
3271.2,589.596
3272.65,582.185
3274.11,567.004
3275.56,556.049
3277.01,579.749
3278.46,576.195
3279.91,570.24
3281.37,561.069
3282.82,557.028
3284.27,559.767
3285.72,562.978
3287.17,551.913
3288.62,550.805
3290.08,566.03
3291.53,563.222
3292.98,553.663
3294.43,551.013
3295.88,554.478
3297.33,559.548
3298.79,547.047
3300.24,531.146
3301.69,530.385
3303.14,532.687
3304.59,548.647
3306.05,536.598
3307.5,531.2
3308.95,530.196
3310.4,536.897
3311.85,554.602
3313.3,542.717
3314.76,538
3316.21,536.703
3317.66,534.779
3319.11,524.445
3320.56,531.369
3322.02,539.054
3323.47,540.491
3324.92,532.831
3326.37,524.361
3327.82,520.553
3329.27,533.387
3330.73,529.093
3332.18,517.242
3333.63,521.438
3335.08,518.654
3336.53,527.865
3337.98,538.467
3339.44,532.448
3340.89,532.264
3342.34,524.102
3343.79,528.243
3345.24,528.009
3346.7,521.999
3348.15,521.771
3349.6,520.841
3351.05,530.35
3352.5,524.49
3353.95,527.154
3355.41,536.096
3356.86,516.064
3358.31,523.103
3359.76,519.633
3361.21,516.134
3362.67,522.044
3364.12,501.142
3365.57,525.399
3367.02,520.588
3368.47,518.669
3369.92,525.176
3371.38,521.776
3372.83,535.246
3374.28,520.25
3375.73,514.901
3377.18,516.373
3378.63,524.122
3380.09,513.485
3381.54,504.438
3382.99,509.558
3384.44,514.643
3385.89,519.39
3387.35,515.115
3388.8,522.526
3390.25,522.139
3391.7,517.764
3393.15,515.687
3394.6,519.947
3396.06,525.519
3397.51,504.319
3398.96,510.338
3400.41,507.813
3401.86,504.587
3403.32,518.306
3404.77,527.094
3406.22,530.788
3407.67,513.445
3409.12,511.919
3410.57,510.895
3412.03,517.789
3413.48,511.372
3414.93,520.185
3416.38,506.933
3417.83,512.361
3419.28,520.712
3420.74,517.078
3422.19,526.001
3423.64,516.358
3425.09,513.877
3426.54,512.669
3428,503.722
3429.45,505.02
3430.9,505.154
3432.35,505.084
3433.8,502.067
3435.25,491.501
3436.71,503.141
3438.16,511.974
3439.61,508.802
3441.06,514.096
3442.51,506.237
3443.97,511.208
3445.42,522.839
3446.87,504.85
3448.32,503.846
3449.77,505.014
3451.22,504.806
3452.68,511.332
3454.13,503.136
3455.58,499.104
3457.03,501.943
3458.48,503.598
3459.94,490.477
3461.39,496.426
3462.84,492.868
3464.29,502.862
3465.74,509.17
3467.19,516.393
3468.65,501.624
3470.1,507.893
3471.55,501.505
3473,498.394
3474.45,507.689
3475.9,499.065
3477.36,496.694
3478.81,485.777
3480.26,491.652
3481.71,508.429
3483.16,506.71
3484.62,516.283
3486.07,506.332
3487.52,511.65
3488.97,514.389
3490.42,523.69
3491.87,492.997
3493.33,502.102
3494.78,510.626
3496.23,499.537
3497.68,497.519
3499.13,507.729
3500.58,511.561
3502.04,502.763
3503.49,513.932
3504.94,506.093
3506.39,511.73
3507.84,504.637
3509.3,489.088
3510.75,509.175
3512.2,504.552
3513.65,504.607
3515.1,508.221
3516.55,524.162
3518.01,518.142
3519.46,512.615
3520.91,502.002
3522.36,505.984
3523.81,516.05
3525.27,489.033
3526.72,496.095
3528.17,500.183
3529.62,506.307
3531.07,513.703
3532.52,506.893
3533.98,518.644
3535.43,505.218
3536.88,513.147
3538.33,506.908
3539.78,505.974
3541.24,508.986
3542.69,493.223
3544.14,509.284
3545.59,516.557
3547.04,495.588
3548.49,501.167
3549.95,502.191
3551.4,502.872
3552.85,489.376
3554.3,502.281
3555.75,498.329
3557.2,505.01
3558.66,490.574
3560.11,497.006
3561.56,503.767
3563.01,494.005
3564.46,501.6
3565.92,508.196
3567.37,501.739
3568.82,505.243
3570.27,500.824
3571.72,506.292
3573.17,497.111
3574.63,504.517
3576.08,509.488
3577.53,489.876
3578.98,495.84
3580.43,499.696
3581.89,505.427
3583.34,512.093
3584.79,503.563
3586.24,499.328
3587.69,500.953
3589.14,501.008
3590.6,503.245
3592.05,495.143
3593.5,495.25
3594.95,503.29
3596.4,492.757
3597.85,499.393
3599.31,496.638
3600.76,496.966
3602.21,496.409
3603.66,501.381
3605.11,500.63
3606.57,498.687
3608.02,505.159
3609.47,498.205
3610.92,501.262
3612.37,503.911
3613.82,498.145
3615.28,502.206
3616.73,496.071
3618.18,490.496
3619.63,509.702
3621.08,487.881
3622.54,498.135
3623.99,488.652
3625.44,502.991
3626.89,509.394
3628.34,498.652
3629.79,501.908
3631.25,499.81
3632.7,504.95
3634.15,493.648
3635.6,496.142
3637.05,513.311
3638.5,505.87
3639.96,514.076
3641.41,492.368
3642.86,493.444
3644.31,501.913
3645.76,493.056
3647.22,495.889
3648.67,500.034
3650.12,487.357
3651.57,502.703
3653.02,497.27
3654.47,501.595
3655.93,497.787
3657.38,484.774
3658.83,511.561
3660.28,503.707
3661.73,500.377
3663.19,497.016
3664.64,500.615
3666.09,507.227
3667.54,511.596
3668.99,497.568
3670.44,491.829
3671.9,508.951
3673.35,517.889
3674.8,511.168
3676.25,501.823
3677.7,510.254
3679.16,505.701
3680.61,511.75
3682.06,499.447
3683.51,502.296
3684.96,503.737
3686.41,513.39
3687.87,499.065
3689.32,496.72
3690.77,493.532
3692.22,517.581
3693.67,497.777
3695.12,499.522
3696.58,515.393
3698.03,494.547
3699.48,498.687
3700.93,509.195
3702.38,513.132
3703.84,502.052
3705.29,512.272
3706.74,511.024
3708.19,506.839
3709.64,496.936
3711.09,496.536
3712.55,502.768
3714,502.017
3715.45,514.136
3716.9,512.272
3718.35,504.438
3719.8,513.609
3721.26,500.074
3722.71,510.776
3724.16,510.91
3725.61,515.851
3727.06,517.685
3728.52,521.299
3729.97,519.643
3731.42,526.587
3732.87,508.35
3734.32,513.877
3735.77,508.176
3737.23,515.866
3738.68,515.369
3740.13,509.911
3741.58,505.029
3743.03,530.738
3744.49,515.965
3745.94,511.904
3747.39,514.523
3748.84,511.302
3750.29,512.853
3751.74,511.571
3753.2,509.394
3754.65,509.026
3756.1,519.628
3757.55,510.129
3759,516.557
3760.46,526.135
3761.91,516.035
3763.36,522.775
3764.81,523.023
3766.26,507.261
3767.71,514.986
3769.17,520.737
3770.62,521.587
3772.07,521.229
3773.52,519.693
3774.97,508.449
3776.42,514.588
3777.88,511.079
3779.33,525.285
3780.78,520.687
3782.23,519.405
3783.68,525.449
3785.14,507.55
3786.59,512.669
3788.04,521.065
3789.49,531.25
3790.94,535.714
3792.39,518.724
3793.85,517.332
3795.3,520.672
3796.75,522.849
3798.2,527.229
3799.65,509.051
3801.1,511.77
3802.56,523.361
3804.01,523.51
3805.46,535.356
3806.91,524.032
3808.36,530.171
3809.82,520.155
3811.27,514.046
3812.72,520.523
3814.17,530.315
3815.62,530.892
3817.07,533.298
3818.53,527.601
3819.98,526.876
3821.43,528.993
3822.88,526.468
3824.33,540.003
3825.79,536.583
3827.24,525.837
3828.69,526.493
3830.14,513.271
3831.59,530.514
3833.04,527.298
3834.5,526.453
3835.95,517.655
3837.4,516.974
3838.85,539.129
3840.3,520.419
3841.76,530.122
3843.21,529.122
3844.66,528.128
3846.11,528.178
3847.56,522.139
3849.01,542.081
3850.47,540.873
3851.92,541.798
3853.37,534.565
3854.82,550.004
3856.27,543.642
3857.72,546.371
3859.18,533.914
3860.63,540.983
3862.08,534.506
3863.53,544.323
3864.98,561.576
3866.44,547.087
3867.89,545.655
3869.34,538.244
3870.79,532.055
3872.24,549.065
3873.69,553.176
3875.15,543.687
3876.6,547.037
3878.05,546.992
3879.5,549.542
3880.95,563.227
3882.41,553.106
3883.86,543.96
3885.31,543.707
3886.76,556.73
3888.21,549.741
3889.66,551.734
3891.12,554.23
3892.57,536.514
3894.02,558.972
3895.47,554.602
3896.92,569.087
3898.37,549.97
3899.83,548.876
3901.28,559.961
3902.73,557.799
3904.18,561.581
3905.63,574.396
3907.09,546.595
3908.54,567.974
3909.99,570.171
3911.44,572.224
3912.89,585.973
3914.34,573.133
3915.8,570.24
3917.25,586.718
3918.7,575.837
3920.15,560.388
3921.6,579.719
3923.06,559.31
3924.51,557.744
3925.96,571.055
3927.41,585.709
3928.86,579.277
3930.31,587.3
3931.77,591.396
3933.22,591.813
3934.67,592.599
3936.12,592.693
3937.57,586.196
3939.02,569.147
3940.48,592.181
3941.93,611.109
3943.38,611.03
3944.83,592.36
3946.28,604.986
3947.74,612.959
3949.19,620.251
3950.64,610.593
3952.09,613.575
3953.54,594.9
3954.99,612.258
3956.45,609.027
3957.9,604.981
3959.35,618.451
3960.8,609.235
3962.25,618.446
3963.71,611.945
3965.16,607.804
3966.61,615.18
3968.06,618.854
3969.51,618.879
3970.96,632.031
3972.42,622.303
3973.87,623.273
3975.32,632.121
3976.77,632.548
3978.22,624.888
3979.68,638.046
3981.13,632.046
3982.58,637.305
3984.03,645.442
3985.48,648.002
3986.93,632.742
3988.39,647.152
3989.84,648.937
3991.29,637.171
3992.74,647.704
3994.19,639.582
3995.64,642.748
3997.1,653.385
3998.55,649.622
4000,651.382
