0,30860.8
1.77681,29345.6
3.2286,18818.1
4.68039,5442.81
6.13218,928.106
7.58397,167.868
9.03575,104.741
10.4875,97.4417
11.9393,96.8983
13.3911,96.492
14.8429,95.1993
16.2947,93.6742
17.7465,91.3142
19.1983,87.0007
20.6501,83.294
22.1018,79.1063
23.5536,76.0368
25.0054,73.8584
26.4572,69.2439
27.909,63.7725
29.3608,59.2607
30.8126,52.5129
32.2644,51.3171
33.7161,50.5137
35.1679,49.7827
36.6197,49.7831
38.0715,47.8143
39.5233,47.7696
40.9751,49.7003
42.4269,51.9253
43.8787,52.1662
45.3304,57.0603
46.7822,67.2357
48.234,83.0068
49.6858,115.128
51.1376,178.758
52.5894,302.651
54.0412,473.061
55.493,683.345
56.9447,910.431
58.3965,1168.86
59.8483,1377.42
61.3001,1564.4
62.7519,1707.87
64.2037,1809.46
65.6555,1845.62
67.1073,1902.71
68.559,1944.59
70.0108,1965.52
71.4626,1980.38
72.9144,1989.36
74.3662,2005.08
75.818,2040.78
77.2698,2064.52
78.7216,2108.95
80.1733,2179.38
81.6251,2219.47
83.0769,2268.03
84.5287,2298.91
85.9805,2285.88
87.4323,2230.79
88.8841,2154.46
90.3359,2062.72
91.7877,1957.11
93.2394,1849.37
94.6912,1758.17
96.143,1663.54
97.5948,1583.55
99.0466,1538.84
100.498,1519.36
101.95,1477.84
103.402,1437.04
104.854,1418.97
106.306,1409.27
107.757,1387.4
109.209,1359.57
110.661,1327.33
112.113,1310.72
113.564,1309.62
115.016,1287.66
116.468,1257.02
117.92,1239.7
119.372,1229.49
120.823,1195.4
122.275,1205.69
123.727,1181.6
125.179,1145.71
126.631,1128.34
128.082,1127.05
129.534,1097.92
130.986,1079.13
132.438,1067.42
133.889,1049.51
135.341,1030.11
136.793,1006.51
138.245,992.197
139.697,992.23
141.148,994.786
142.6,984.146
144.052,984.698
145.504,981.606
146.956,973.362
148.407,954.412
149.859,934.39
151.311,918.327
152.763,921.11
154.215,921.613
155.666,913.187
157.118,873.734
158.57,856.109
160.022,854.215
161.473,853.243
162.925,838.412
164.377,843.828
165.829,846.744
167.281,838.075
168.732,823.53
170.184,833.392
171.636,815.706
173.088,794.884
174.54,788.617
175.991,791.14
177.443,753.405
178.895,759.374
180.347,759.368
181.798,751.588
183.25,732.45
184.702,744.741
186.154,740.329
187.606,733.869
189.057,721.936
190.509,710.291
191.961,699.64
193.413,706.387
194.865,720.136
196.316,720.998
197.768,709.132
199.22,705.929
200.672,706.801
202.124,712.428
203.575,704.996
205.027,684.267
206.479,682.136
207.931,688.061
209.382,685.841
210.834,687.221
212.286,702.119
213.738,694.665
215.19,686.592
216.641,694.775
218.093,706.846
219.545,713.527
220.997,713.582
222.449,681.479
223.9,689.706
225.352,698.657
226.804,695.896
228.256,675.62
229.707,678.69
231.159,688.574
232.611,688.933
234.063,693.715
235.515,692.235
236.966,697.757
238.418,695.913
239.87,692.616
241.322,689.833
242.774,683.461
244.225,681.556
245.677,682.048
247.129,685.151
248.581,677.536
250.033,662.363
251.484,670.883
252.936,654.389
254.388,645.118
255.84,652.081
257.291,663.081
258.743,651.325
260.195,648.647
261.647,646.957
263.099,649.591
264.55,649.762
266.002,638.144
267.454,643.247
268.906,648.901
270.358,650.778
271.809,641.954
273.261,627.228
274.713,633.142
276.165,633.219
277.616,628.995
279.068,622.711
280.52,621.359
281.972,616.345
283.424,600.078
284.875,590.956
286.327,595.103
287.779,598.454
289.231,598.394
290.683,601.812
292.134,598.289
293.586,584.208
295.038,568.311
296.49,580.967
297.941,580.166
299.393,576.13
300.845,573.634
302.297,570.465
303.749,568.532
305.2,558.908
306.652,559.013
308.104,556.081
309.556,543.661
311.008,551.739
312.459,563.082
313.911,549.713
315.363,544.702
316.815,550.585
318.267,529.102
319.718,544.94
321.17,542.223
322.622,543.843
324.074,546.391
325.525,538.878
326.977,546.139
328.429,546.714
329.881,526.858
331.333,513.064
332.784,527.249
334.236,521.992
335.688,509.776
337.14,524.359
338.592,529.838
340.043,519.267
341.495,515.331
342.947,523.957
344.399,521.053
345.85,514.324
347.302,514.106
348.754,519.883
350.206,515.105
351.658,509.625
353.109,509.783
354.561,513.209
356.013,512.395
357.465,495.658
358.917,498.182
360.368,500.147
361.82,499.831
363.272,501.951
364.724,507.819
366.176,498.728
367.627,491.784
369.079,492.941
370.531,501.12
371.983,503.909
373.434,490.821
374.886,493.145
376.338,496.063
377.79,496.445
379.242,493.115
380.693,496.902
382.145,479.31
383.597,487.496
385.049,497.914
386.501,505.109
387.952,507.094
389.404,500.063
390.856,492.333
392.308,492.923
393.759,495.965
395.211,496.826
396.663,486.848
398.115,501.394
399.567,495.769
401.018,487.969
402.47,484.66
403.922,492.979
405.374,492.696
406.826,494.584
408.277,493.72
409.729,492.154
411.181,493.469
412.633,502.168
414.085,495.136
415.536,486.636
416.988,489.17
418.44,495.52
419.892,493.358
421.343,509.214
422.795,491.564
424.247,484.789
425.699,486.049
427.151,487.911
428.602,484.143
430.054,476.888
431.506,493.021
432.958,495.656
434.41,490.706
435.861,493.882
437.313,478.496
438.765,477.969
440.217,496.97
441.668,505.495
443.12,495.779
444.572,473.048
446.024,489.923
447.476,481.834
448.927,479.41
450.379,480.063
451.831,481.042
453.283,485.144
454.735,470.898
456.186,475.723
457.638,482.568
459.09,487.736
460.542,489.314
461.993,487.943
463.445,487.602
464.897,479.222
466.349,480.221
467.801,483.831
469.252,471.565
470.704,473.193
472.156,480.471
473.608,487.84
475.06,485.737
476.511,472.497
477.963,469.094
479.415,479.43
480.867,485.268
482.319,482.001
483.77,471.821
485.222,464.433
486.674,478.717
488.126,486.772
489.577,478.295
491.029,473.756
492.481,472.749
493.933,460.602
495.385,462.317
496.836,462.355
498.288,469.87
499.74,469.681
501.192,462.452
502.644,458.992
504.095,463.496
505.547,468.075
506.999,471.822
508.451,470.79
509.902,463.567
511.354,472.345
512.806,461.826
514.258,463.761
515.71,467.057
517.161,469.125
518.613,463.009
520.065,448.413
521.517,466.745
522.969,466.585
524.42,457.921
525.872,450.302
527.324,456.975
528.776,457.937
530.228,464.844
531.679,473.61
533.131,466.49
534.583,457.503
536.035,461.033
537.486,476.671
538.938,471.867
540.39,460.592
541.842,458.937
543.294,463.153
544.745,467.481
546.197,466.933
547.649,463.675
549.101,458.285
550.553,467.12
552.004,473.558
553.456,462.675
554.908,464.286
556.36,456.014
557.811,456.915
559.263,459.297
560.715,465.763
562.167,467.872
563.619,482.867
565.07,469.784
566.522,467.637
567.974,470.142
569.426,463.76
570.878,455.006
572.329,463.643
573.781,453.762
575.233,461.915
576.685,468.171
578.137,467.822
579.588,457.283
581.04,451.538
582.492,460.271
583.944,455.895
585.395,456.971
586.847,460.608
588.299,459.429
589.751,456.836
591.203,455.992
592.654,451.812
594.106,457.64
595.558,465.664
597.01,461.881
598.462,453.693
599.913,461.519
601.365,449.28
602.817,448
604.269,459.152
605.72,458.06
607.172,468.328
608.624,471.205
610.076,472.358
611.528,464.124
612.979,455.533
614.431,457.346
615.883,450.046
617.335,454.889
618.787,460.705
620.238,470.501
621.69,467.733
623.142,451.973
624.594,464.757
626.046,462.939
627.497,468.56
628.949,464.894
630.401,467.535
631.853,471.453
633.304,456.541
634.756,452.079
636.208,463.557
637.66,466.144
639.112,467.769
640.563,471.295
642.015,468.865
643.467,463.342
644.919,466.32
646.371,474.667
647.822,477.935
649.274,476.616
650.726,475.978
652.178,482.837
653.629,465.156
655.081,466.705
656.533,475.432
657.985,480.175
659.437,479.096
660.888,485.316
662.34,476.581
663.792,470.277
665.244,475.127
666.696,475.367
668.147,474.8
669.599,490.634
671.051,493.472
672.503,478.221
673.954,477.399
675.406,476.714
676.858,472.198
678.31,481.849
679.762,494.431
681.213,484.808
682.665,474.998
684.117,473.723
685.569,482.226
687.021,497.341
688.472,497.367
689.924,488.439
691.376,484.263
692.828,488.297
694.28,493.781
695.731,487.664
697.183,486.845
698.635,476.348
700.087,477.177
701.538,479.57
702.99,480.762
704.442,478.252
705.894,482.792
707.346,495.692
708.797,499.731
710.249,488.234
711.701,490.809
713.153,491.045
714.605,481.941
716.056,484.237
717.508,485.194
718.96,496.508
720.412,489.271
721.863,484.141
723.315,486.7
724.767,490.194
726.219,490.448
727.671,491.237
729.122,478.217
730.574,476.978
732.026,481.361
733.478,492.71
734.93,500.071
736.381,495.029
737.833,481.532
739.285,486.503
740.737,487.848
742.189,489.687
743.64,494.498
745.092,491.613
746.544,490.438
747.996,497.185
749.447,489.42
750.899,496.342
752.351,497.275
753.803,484.69
755.255,491.737
756.706,485.194
758.158,484.52
759.61,498.642
761.062,503.331
762.514,504.782
763.965,500.001
765.417,490.71
766.869,491.528
768.321,498.255
769.772,496.207
771.224,499.266
772.676,502.25
774.128,490.11
775.58,493.364
777.031,485.815
778.483,494.807
779.935,487.187
781.387,484.642
782.839,491.872
784.29,496.31
785.742,501.001
787.194,511.512
788.646,503.887
790.098,507.152
791.549,508.767
793.001,505.037
794.453,511.066
795.905,504.682
797.356,492.568
798.808,493.891
800.26,489.489
801.712,495.28
803.164,508.646
804.615,509.637
806.067,514.882
807.519,501.6
808.971,505.79
810.423,505.251
811.874,505.606
813.326,501.205
814.778,509.553
816.23,510.926
817.681,511.081
819.133,503.439
820.585,512.71
822.037,513.859
823.489,507.876
824.94,504.78
826.392,515.289
827.844,520.755
829.296,524.184
830.748,525.977
832.199,527.508
833.651,519.586
835.103,521.276
836.555,522.804
838.007,522.315
839.458,518.81
840.91,523.202
842.362,527.024
843.814,530.255
845.265,518.933
846.717,516.825
848.169,533.751
849.621,547.561
851.073,549.749
852.524,544.188
853.976,542.57
855.428,538.359
856.88,540.851
858.332,538.48
859.783,544.076
861.235,545.469
862.687,540.081
864.139,535.289
865.59,532.568
867.042,535.068
868.494,529.069
869.946,528.523
871.398,539.082
872.849,533.829
874.301,518.468
875.753,523.814
877.205,527.113
878.657,535.044
880.108,531.24
881.56,532.515
883.012,533.158
884.464,536.007
885.915,537.322
887.367,539.061
888.819,535.553
890.271,550.009
891.723,543.635
893.174,554.987
894.626,551.687
896.078,542.99
897.53,547.645
898.982,548.631
900.433,545.221
901.885,555.435
903.337,538.863
904.789,544.332
906.241,557.367
907.692,559.151
909.144,548.61
910.596,546.054
912.048,557.439
913.499,557.721
914.951,559.383
916.403,559.438
917.855,558.483
919.307,564.071
920.758,566.036
922.21,564.137
923.662,569.278
925.114,571.37
926.566,570.879
928.017,564.551
929.469,560.542
930.921,568.206
932.373,568.328
933.824,567.643
935.276,567.119
936.728,585.224
938.18,579.581
939.632,570.813
941.083,576.876
942.535,555.236
943.987,573.816
945.439,577.527
946.891,567.798
948.342,567.345
949.794,567.224
951.246,568.703
952.698,572.143
954.15,568.046
955.601,572.48
957.053,575.031
958.505,570.31
959.957,578.609
961.408,574.921
962.86,561.547
964.312,564.082
965.764,585.329
967.216,569.057
968.667,571.801
970.119,577.124
971.571,576.384
973.023,568.67
974.475,568.019
975.926,580.895
977.378,580.437
978.83,571.702
980.282,575.456
981.733,573.182
983.185,580.636
984.637,587.853
986.089,580.796
987.541,582.027
988.992,577.753
990.444,580.912
991.896,586.572
993.348,576.489
994.8,580.934
996.251,597.825
997.703,597.499
999.155,587.334
1000.61,600.878
1002.06,599.857
1003.51,602.055
1004.96,597.698
1006.41,600.812
1007.87,599.802
1009.32,612.993
1010.77,615.771
1012.22,603.882
1013.67,623.181
1015.12,606.814
1016.58,615.859
1018.03,620.442
1019.48,623.048
1020.93,624.738
1022.38,618.068
1023.84,625.086
1025.29,641.452
1026.74,650.679
1028.19,647.923
1029.64,649.729
1031.09,662.677
1032.55,666.935
1034,657.47
1035.45,664.627
1036.9,673.848
1038.35,670.38
1039.8,670.8
1041.26,675.941
1042.71,681.457
1044.16,698.132
1045.61,701.252
1047.06,687.415
1048.52,692.506
1049.97,712.643
1051.42,701.423
1052.87,711.136
1054.32,723.113
1055.77,709.684
1057.23,710.545
1058.68,737.292
1060.13,729.302
1061.58,750.732
1063.03,746.536
1064.49,750.826
1065.94,764.675
1067.39,773.973
1068.84,768.606
1070.29,775.718
1071.74,786.121
1073.2,782.929
1074.65,801.201
1076.1,797.164
1077.55,820.56
1079,817.528
1080.46,812.769
1081.91,820.206
1083.36,828.588
1084.81,812.68
1086.26,834.822
1087.71,831.366
1089.17,815.552
1090.62,820.339
1092.07,825.231
1093.52,806.778
1094.97,796.364
1096.42,830.289
1097.88,833.265
1099.33,805.762
1100.78,809.146
1102.23,809.781
1103.68,806.634
1105.14,809.748
1106.59,803.978
1108.04,792.758
1109.49,786.695
1110.94,804.475
1112.39,798.694
1113.85,794.265
1115.3,779.837
1116.75,774.481
1118.2,772.217
1119.65,770.202
1121.11,776.618
1122.56,766.309
1124.01,771.03
1125.46,745.514
1126.91,758.943
1128.36,745.222
1129.82,742.615
1131.27,749.711
1132.72,755.961
1134.17,755.459
1135.62,747.06
1137.07,744.852
1138.53,740.92
1139.98,742.671
1141.43,741.119
1142.88,731.108
1144.33,739.258
1145.79,747.706
1147.24,732.963
1148.69,720.208
1150.14,739.578
1151.59,742.03
1153.04,746.652
1154.5,740.219
1155.95,739.341
1157.4,739.711
1158.85,735.244
1160.3,738.921
1161.76,747.027
1163.21,736.293
1164.66,740.677
1166.11,742.748
1167.56,734.178
1169.01,732.124
1170.47,740.556
1171.92,749.23
1173.37,743.78
1174.82,745.901
1176.27,740.489
1177.72,748.943
1179.18,755.266
1180.63,765.801
1182.08,760.931
1183.53,750.268
1184.98,749.573
1186.44,750.092
1187.89,752.455
1189.34,761.036
1190.79,752.008
1192.24,766.883
1193.69,751.815
1195.15,760.55
1196.6,765.205
1198.05,770.864
1199.5,771.853
1200.95,775.519
1202.41,783.145
1203.86,774.398
1205.31,783.564
1206.76,791.621
1208.21,788.738
1209.66,780.467
1211.12,776.314
1212.57,781.565
1214.02,786.259
1215.47,786.143
1216.92,780.052
1218.37,798.97
1219.83,800.433
1221.28,796.093
1222.73,806.358
1224.18,800.036
1225.63,786.75
1227.09,783.597
1228.54,803.255
1229.99,814.85
1231.44,795.121
1232.89,790.721
1234.34,817.976
1235.8,813.702
1237.25,810.853
1238.7,821.151
1240.15,826.556
1241.6,822.056
1243.06,823.332
1244.51,837.329
1245.96,835.993
1247.41,850.581
1248.86,862.083
1250.31,854.988
1251.77,843.701
1253.22,854.198
1254.67,863.055
1256.12,872.342
1257.57,891.392
1259.02,898.493
1260.48,900.012
1261.93,913.026
1263.38,897.251
1264.83,928.272
1266.28,926.367
1267.74,923.087
1269.19,938.194
1270.64,956.284
1272.09,966.869
1273.54,979.519
1274.99,987.039
1276.45,998.249
1277.9,1009.7
1279.35,1040.78
1280.8,1018.73
1282.25,1046.06
1283.71,1070.27
1285.16,1089.25
1286.61,1104.53
1288.06,1120.07
1289.51,1152.05
1290.96,1191.41
1292.42,1186.81
1293.87,1228.45
1295.32,1259.81
1296.77,1283.21
1298.22,1330.14
1299.67,1379.14
1301.13,1422.32
1302.58,1454.72
1304.03,1485.88
1305.48,1536.73
1306.93,1602.27
1308.39,1649.75
1309.84,1737.12
1311.29,1801.81
1312.74,1866.28
1314.19,1957.95
1315.64,2048.84
1317.1,2126.01
1318.55,2215.83
1320,2315.21
1321.45,2395.6
1322.9,2491.15
1324.36,2594.33
1325.81,2699.21
1327.26,2812.24
1328.71,2860.53
1330.16,2912.09
1331.61,2994.32
1333.07,3053.96
1334.52,3088.04
1335.97,3141.24
1337.42,3124.34
1338.87,3106.23
1340.33,3057.88
1341.78,3031.58
1343.23,2946.81
1344.68,2852.93
1346.13,2782.65
1347.58,2702.5
1349.04,2605.45
1350.49,2498.32
1351.94,2377.71
1353.39,2294.69
1354.84,2213.32
1356.29,2077.63
1357.75,2008.05
1359.2,1925.6
1360.65,1857.41
1362.1,1774.95
1363.55,1697.09
1365.01,1654.33
1366.46,1595.76
1367.91,1518.84
1369.36,1486.36
1370.81,1435.55
1372.26,1388.21
1373.72,1382.15
1375.17,1347.83
1376.62,1325.9
1378.07,1288.99
1379.52,1256.22
1380.98,1234.47
1382.43,1211.31
1383.88,1203.61
1385.33,1185.19
1386.78,1162.09
1388.23,1162.06
1389.69,1139.44
1391.14,1122.34
1392.59,1124.14
1394.04,1122.71
1395.49,1099.43
1396.94,1083.96
1398.4,1077.67
1399.85,1075.23
1401.3,1073.63
1402.75,1068.75
1404.2,1072.26
1405.66,1073.54
1407.11,1056.93
1408.56,1064.45
1410.01,1053.77
1411.46,1064.95
1412.91,1072.87
1414.37,1053.55
1415.82,1057.44
1417.27,1062.71
1418.72,1069.23
1420.17,1068.85
1421.63,1069.22
1423.08,1073.97
1424.53,1073.16
1425.98,1067.05
1427.43,1095.84
1428.88,1069.28
1430.34,1087.37
1431.79,1086.17
1433.24,1093.18
1434.69,1089.9
1436.14,1101.17
1437.59,1119.42
1439.05,1116.62
1440.5,1127.45
1441.95,1119.47
1443.4,1120.27
1444.85,1119.52
1446.31,1131
1447.76,1130.13
1449.21,1134.03
1450.66,1150.76
1452.11,1170.23
1453.56,1181.57
1455.02,1188.37
1456.47,1183.71
1457.92,1182.59
1459.37,1208.85
1460.82,1228.57
1462.28,1236.28
1463.73,1230.6
1465.18,1266.9
1466.63,1248.61
1468.08,1276.49
1469.53,1290.55
1470.99,1291.94
1472.44,1302
1473.89,1317.66
1475.34,1343.8
1476.79,1383.37
1478.24,1391.33
1479.7,1395.66
1481.15,1430.31
1482.6,1449.17
1484.05,1472.84
1485.5,1508.29
1486.96,1523.92
1488.41,1548.03
1489.86,1572.53
1491.31,1601.48
1492.76,1620.56
1494.21,1632
1495.67,1690.28
1497.12,1763.12
1498.57,1782.42
1500.02,1801.95
1501.47,1850.43
1502.93,1911.14
1504.38,1911.3
1505.83,2000.9
1507.28,2033.62
1508.73,2114.6
1510.18,2189
1511.64,2259.89
1513.09,2343.7
1514.54,2409.24
1515.99,2514.45
1517.44,2646.23
1518.89,2756.61
1520.35,2846.86
1521.8,2955.06
1523.25,3111.99
1524.7,3277.03
1526.15,3529.38
1527.61,3702.69
1529.06,3973.18
1530.51,4228.36
1531.96,4535.67
1533.41,4889.44
1534.86,5253.7
1536.32,5672.95
1537.77,6176.37
1539.22,6721.08
1540.67,7311.14
1542.12,7915.6
1543.58,8709.01
1545.03,9513.03
1546.48,10417.8
1547.93,11290.9
1549.38,12218.5
1550.83,13176.7
1552.29,14227.4
1553.74,15240.6
1555.19,16231.4
1556.64,17275.1
1558.09,18241.3
1559.54,19117.6
1561,19898.4
1562.45,20529.8
1563.9,20923.2
1565.35,21196.5
1566.8,21248.6
1568.26,21104.5
1569.71,20559.4
1571.16,19891.3
1572.61,19086.7
1574.06,18119.1
1575.51,17085.1
1576.97,15984.9
1578.42,14880.9
1579.87,13826.7
1581.32,12777.1
1582.77,11787.3
1584.23,10870
1585.68,9979.61
1587.13,9238.32
1588.58,8462.19
1590.03,7770.49
1591.48,7162.88
1592.94,6575.2
1594.39,6153.84
1595.84,5779.25
1597.29,5382.48
1598.74,5113.37
1600.2,4845.99
1601.65,4579.92
1603.1,4332.28
1604.55,4123.55
1606,3917.23
1607.45,3719.88
1608.91,3555.72
1610.36,3401.67
1611.81,3245.22
1613.26,3052.22
1614.71,2906.91
1616.16,2772.38
1617.62,2635.1
1619.07,2523.61
1620.52,2385.82
1621.97,2314.14
1623.42,2223.76
1624.88,2124.2
1626.33,2060.38
1627.78,1980.49
1629.23,1912.6
1630.68,1849.61
1632.13,1771.78
1633.59,1736.15
1635.04,1718.77
1636.49,1685.23
1637.94,1625.71
1639.39,1567.34
1640.85,1549.95
1642.3,1515.9
1643.75,1486.34
1645.2,1454.01
1646.65,1447.53
1648.1,1431.22
1649.56,1410.67
1651.01,1368.46
1652.46,1348.89
1653.91,1327.56
1655.36,1308.57
1656.81,1305.8
1658.27,1269.67
1659.72,1237.94
1661.17,1232.23
1662.62,1218.84
1664.07,1196.51
1665.53,1191.99
1666.98,1191.87
1668.43,1161.74
1669.88,1129.67
1671.33,1123.54
1672.78,1120.09
1674.24,1089.69
1675.69,1068.95
1677.14,1078.37
1678.59,1079.3
1680.04,1061.74
1681.5,1045.35
1682.95,1044.11
1684.4,1047.25
1685.85,1039.04
1687.3,1028.76
1688.75,1016.32
1690.21,1003.76
1691.66,996.15
1693.11,970.784
1694.56,983.058
1696.01,986.631
1697.46,970.999
1698.92,965.019
1700.37,953.556
1701.82,948.608
1703.27,946.946
1704.72,954.434
1706.18,954.748
1707.63,948.531
1709.08,937.339
1710.53,942.258
1711.98,938.001
1713.43,917.482
1714.89,923.794
1716.34,923.197
1717.79,924.175
1719.24,913.038
1720.69,922.535
1722.15,942.833
1723.6,922.701
1725.05,933.86
1726.5,921.861
1727.95,907.19
1729.4,916.577
1730.86,916.411
1732.31,928.52
1733.76,936.737
1735.21,906.108
1736.66,897.659
1738.11,908.057
1739.57,902.662
1741.02,889.493
1742.47,894.065
1743.92,897.925
1745.37,882.707
1746.83,874.397
1748.28,876.125
1749.73,883.458
1751.18,887.947
1752.63,877.732
1754.08,861.349
1755.54,878.908
1756.99,881.083
1758.44,867.837
1759.89,844.314
1761.34,858.251
1762.8,850.493
1764.25,844.9
1765.7,839.411
1767.15,847.169
1768.6,850.587
1770.05,848.312
1771.51,839.35
1772.96,817.578
1774.41,815.866
1775.86,821.962
1777.31,823.928
1778.76,812.029
1780.22,800.748
1781.67,814.353
1783.12,822.542
1784.57,815.872
1786.02,794.635
1787.48,796.778
1788.93,812.233
1790.38,797.098
1791.83,787.684
1793.28,806.982
1794.73,827.86
1796.19,790.803
1797.64,776.508
1799.09,790.08
1800.54,784.928
1801.99,784.293
1803.45,792.189
1804.9,793.04
1806.35,791.792
1807.8,794.983
1809.25,788.992
1810.7,779.616
1812.16,774.984
1813.61,774.868
1815.06,775.652
1816.51,770.881
1817.96,779.125
1819.41,783.967
1820.87,776.883
1822.32,768.639
1823.77,778.644
1825.22,782.869
1826.67,796.513
1828.13,771.582
1829.58,790.339
1831.03,783.294
1832.48,777.214
1833.93,773.835
1835.38,762.643
1836.84,799.898
1838.29,792.167
1839.74,807.821
1841.19,812.145
1842.64,807.462
1844.1,813.459
1845.55,809.522
1847,812.697
1848.45,809.864
1849.9,803.884
1851.35,815.491
1852.81,832.917
1854.26,834.11
1855.71,829.809
1857.16,841.288
1858.61,844.071
1860.07,828.726
1861.52,821.73
1862.97,820.416
1864.42,829.378
1865.87,833.232
1867.32,854.905
1868.78,841.194
1870.23,821.062
1871.68,813.106
1873.13,825.375
1874.58,805.657
1876.03,801.637
1877.49,826.418
1878.94,811.145
1880.39,792.416
1881.84,796.132
1883.29,804.32
1884.75,802.156
1886.2,800.847
1887.65,783.327
1889.1,773.653
1890.55,781.107
1892,783.581
1893.46,769.832
1894.91,772.129
1896.36,775.122
1897.81,763.509
1899.26,759.534
1900.72,754.907
1902.17,753.802
1903.62,750.672
1905.07,755.619
1906.52,742.19
1907.97,740.467
1909.43,751.312
1910.88,743.913
1912.33,745.79
1913.78,737.679
1915.23,745.321
1916.68,745.453
1918.14,730.042
1919.59,736.597
1921.04,715.747
1922.49,734.99
1923.94,731.848
1925.4,736.26
1926.85,738.601
1928.3,726.768
1929.75,707.729
1931.2,732.152
1932.65,740.263
1934.11,735.194
1935.56,738.452
1937.01,722.124
1938.46,734.327
1939.91,732.704
1941.37,739.943
1942.82,740.131
1944.27,741.274
1945.72,754.868
1947.17,741.936
1948.62,741.008
1950.08,732.461
1951.53,737.364
1952.98,739.943
1954.43,740.749
1955.88,731.969
1957.33,748.838
1958.79,755.404
1960.24,734.2
1961.69,725.211
1963.14,740.766
1964.59,738.706
1966.05,748.849
1967.5,751.616
1968.95,750.528
1970.4,760.103
1971.85,759.92
1973.3,757.347
1974.76,766.397
1976.21,762.825
1977.66,759.65
1979.11,760.622
1980.56,754.702
1982.02,764.017
1983.47,756.094
1984.92,752.289
1986.37,761.908
1987.82,772.72
1989.27,770.196
1990.73,766.11
1992.18,764.459
1993.63,765.922
1995.08,768.181
1996.53,780.434
1997.98,755.183
1999.44,755.061
2000.89,787.314
2002.34,757.115
2003.79,767.54
2005.24,762.284
2006.7,780.456
2008.15,762.598
2009.6,774.282
2011.05,771.223
2012.5,768.915
2013.95,775.856
2015.41,758.628
2016.86,745.525
2018.31,745.327
2019.76,742.45
2021.21,739.048
2022.67,732.836
2024.12,725.873
2025.57,747.436
2027.02,741.351
2028.47,746.492
2029.92,718.425
2031.38,731.368
2032.83,735.713
2034.28,733.499
2035.73,716.221
2037.18,722.583
2038.63,713.891
2040.09,711.937
2041.54,694.714
2042.99,710.567
2044.44,715.139
2045.89,705.305
2047.35,697.801
2048.8,705.106
2050.25,700.617
2051.7,701.567
2053.15,710.777
2054.6,702.053
2056.06,683.555
2057.51,695.057
2058.96,691.617
2060.41,684.56
2061.86,688.265
2063.32,693.522
2064.77,686.708
2066.22,679.596
2067.67,680.435
2069.12,690.385
2070.57,675.482
2072.03,687.796
2073.48,685.339
2074.93,678.006
2076.38,673.528
2077.83,684.853
2079.28,686.426
2080.74,677.006
2082.19,673.726
2083.64,685.035
2085.09,694.847
2086.54,688.342
2088,680.38
2089.45,676.156
2090.9,664.566
2092.35,661.877
2093.8,667.746
2095.25,671.888
2096.71,664.588
2098.16,681.479
2099.61,688.668
2101.06,691.468
2102.51,690.292
2103.97,686.84
2105.42,672.042
2106.87,669.243
2108.32,667.697
2109.77,662.054
2111.22,663.539
2112.68,661.993
2114.13,666.156
2115.58,662.098
2117.03,666.581
2118.48,677.94
2119.94,673.439
2121.39,686.78
2122.84,677.547
2124.29,682.396
2125.74,686.702
2127.19,688.806
2128.65,704.781
2130.1,683.445
2131.55,678.751
2133,686.631
2134.45,682.705
2135.9,682.042
2137.36,689.281
2138.81,680.137
2140.26,676.432
2141.71,665.554
2143.16,686.956
2144.62,688.994
2146.07,684.306
2147.52,681.131
2148.97,683.577
2150.42,694.273
2151.87,683.174
2153.33,704.665
2154.78,699.761
2156.23,693.792
2157.68,689.187
2159.13,695.741
2160.58,702.533
2162.04,698.083
2163.49,720.567
2164.94,716.652
2166.39,699.485
2167.84,703.759
2169.3,702.76
2170.75,708.281
2172.2,709.827
2173.65,708.281
2175.1,717.607
2176.55,725.145
2178.01,722.925
2179.46,708.524
2180.91,720.689
2182.36,724.753
2183.81,733.234
2185.27,728.596
2186.72,737.789
2188.17,743.548
2189.62,729.275
2191.07,730.026
2192.52,735.68
2193.98,735.266
2195.43,725.967
2196.88,734.531
2198.33,734.068
2199.78,722.903
2201.24,724.405
2202.69,734.758
2204.14,743.686
2205.59,717.099
2207.04,744.322
2208.49,737.331
2209.95,735.636
2211.4,751.229
2212.85,738.154
2214.3,734.057
2215.75,723.013
2217.2,736.503
2218.66,737.419
2220.11,751.229
2221.56,747.999
2223.01,738.618
2224.46,748.038
2225.92,753.234
2227.37,752.251
2228.82,725.531
2230.27,756.977
2231.72,730.346
2233.17,730.666
2234.63,751.804
2236.08,752.709
2237.53,748.689
2238.98,742.88
2240.43,767.601
2241.89,750.936
2243.34,760.605
2244.79,749.015
2246.24,764.89
2247.69,762.262
2249.14,761.985
2250.6,756.53
2252.05,759.363
2253.5,749.683
2254.95,758.253
2256.4,760.66
2257.85,776.971
2259.31,777.27
2260.76,774.945
2262.21,768.264
2263.66,779.55
2265.11,781.764
2266.57,777.419
2268.02,778.308
2269.47,796.032
2270.92,791.471
2272.37,782.311
2273.82,789.716
2275.28,794.127
2276.73,792.289
2278.18,781.693
2279.63,795.326
2281.08,801.074
2282.54,793.283
2283.99,804.116
2285.44,805.971
2286.89,809.124
2288.34,808.605
2289.79,794.127
2291.25,812.851
2292.7,818.622
2294.15,810.991
2295.6,818.362
2297.05,835.286
2298.5,834.662
2299.96,801.797
2301.41,813.266
2302.86,826.258
2304.31,835.584
2305.76,839.632
2307.22,823.53
2308.67,837.23
2310.12,829.29
2311.57,847.55
2313.02,849.891
2314.47,852.486
2315.93,852.1
2317.38,852.011
2318.83,846.733
2320.28,851.945
2321.73,847.506
2323.19,859.571
2324.64,861.178
2326.09,860.322
2327.54,867.318
2328.99,875.683
2330.44,876.23
2331.9,880.349
2333.35,900.222
2334.8,892.237
2336.25,900.349
2337.7,893.568
2339.16,899.101
2340.61,913.054
2342.06,917.3
2343.51,909.47
2344.96,929.249
2346.41,915.097
2347.87,908.289
2349.32,924.506
2350.77,939.183
2352.22,961.143
2353.67,939.796
2355.12,942.22
2356.58,945.157
2358.03,970.679
2359.48,964.958
2360.93,989.226
2362.38,969.745
2363.84,978.923
2365.29,993.721
2366.74,1011.76
2368.19,994.958
2369.64,1022.4
2371.09,1019.04
2372.55,1033.41
2374,1041.97
2375.45,1050.05
2376.9,1070.4
2378.35,1079.16
2379.8,1079.44
2381.26,1096.62
2382.71,1094.28
2384.16,1109.18
2385.61,1141.33
2387.06,1171.18
2388.52,1173.85
2389.97,1159.69
2391.42,1168.68
2392.87,1221.49
2394.32,1242.72
2395.77,1289.28
2397.23,1289.55
2398.68,1295.66
2400.13,1310.66
2401.58,1345.03
2403.03,1357.46
2404.49,1392.23
2405.94,1413.72
2407.39,1428.78
2408.84,1454.97
2410.29,1491.29
2411.74,1494.04
2413.2,1509.92
2414.65,1537.89
2416.1,1550.68
2417.55,1576.4
2419,1590.09
2420.46,1601.49
2421.91,1594.04
2423.36,1607.85
2424.81,1635.01
2426.26,1646.03
2427.71,1616.62
2429.17,1633.92
2430.62,1657.44
2432.07,1640.3
2433.52,1624.83
2434.97,1645.58
2436.42,1640.49
2437.88,1636.17
2439.33,1620.77
2440.78,1625.11
2442.23,1601.24
2443.68,1591.05
2445.14,1583.74
2446.59,1568.35
2448.04,1553.17
2449.49,1544.58
2450.94,1568.94
2452.39,1541.04
2453.85,1556.85
2455.3,1540.09
2456.75,1498.9
2458.2,1480.34
2459.65,1477.15
2461.1,1494.87
2462.56,1474.1
2464.01,1461.74
2465.46,1480.85
2466.91,1465.44
2468.36,1447.4
2469.82,1448.61
2471.27,1426.62
2472.72,1432.67
2474.17,1436.87
2475.62,1426.21
2477.07,1460.31
2478.53,1436.73
2479.98,1429.76
2481.43,1409.72
2482.88,1423.31
2484.33,1436.11
2485.79,1432.33
2487.24,1416.57
2488.69,1407.53
2490.14,1415.88
2491.59,1429.2
2493.04,1430.72
2494.5,1407.3
2495.95,1454.92
2497.4,1431.73
2498.85,1431.27
2500.3,1421.39
2501.76,1452.34
2503.21,1435.63
2504.66,1429.67
2506.11,1460.08
2507.56,1441.45
2509.01,1451.69
2510.47,1455.1
2511.92,1461.86
2513.37,1479.37
2514.82,1479.73
2516.27,1488.14
2517.72,1490.53
2519.18,1519.37
2520.63,1523.48
2522.08,1537.93
2523.53,1553.77
2524.98,1544.37
2526.44,1556.97
2527.89,1562.72
2529.34,1576.1
2530.79,1616.06
2532.24,1631.3
2533.69,1643.63
2535.15,1672.59
2536.6,1677.12
2538.05,1677.44
2539.5,1699.09
2540.95,1734.45
2542.41,1739.09
2543.86,1748.93
2545.31,1781.83
2546.76,1817.36
2548.21,1840.67
2549.66,1855.63
2551.12,1892.84
2552.57,1923.76
2554.02,1936.55
2555.47,1978.48
2556.92,1987.57
2558.37,2024.17
2559.83,2045.4
2561.28,2109.11
2562.73,2131.34
2564.18,2174.44
2565.63,2213.44
2567.09,2270.51
2568.54,2309.27
2569.99,2340.04
2571.44,2376.76
2572.89,2408.74
2574.34,2494.24
2575.8,2554.87
2577.25,2600.65
2578.7,2660.07
2580.15,2711.95
2581.6,2808.55
2583.06,2893.3
2584.51,2918.93
2585.96,3004.06
2587.41,3099.14
2588.86,3170.04
2590.31,3251.32
2591.77,3366
2593.22,3475.22
2594.67,3558.79
2596.12,3653.35
2597.57,3780.67
2599.02,3943.59
2600.48,4070.16
2601.93,4173.96
2603.38,4349.27
2604.83,4515.88
2606.28,4651.04
2607.74,4772.69
2609.19,4994.45
2610.64,5229.26
2612.09,5416.91
2613.54,5633.2
2614.99,5808.4
2616.45,6039.21
2617.9,6304.8
2619.35,6544.28
2620.8,6728.87
2622.25,6967.69
2623.71,7286.73
2625.16,7570.77
2626.61,7869.05
2628.06,8170.98
2629.51,8491.18
2630.96,8807.52
2632.42,9099.07
2633.87,9412.81
2635.32,9756.32
2636.77,10003
2638.22,10324.3
2639.68,10642.5
2641.13,10903.6
2642.58,11187.4
2644.03,11505.9
2645.48,11713.1
2646.93,11980
2648.39,12287
2649.84,12337.4
2651.29,12556.8
2652.74,12717
2654.19,12827.9
2655.64,12960
2657.1,13008.2
2658.55,13018.5
2660,13002
2661.45,12972.2
2662.9,12821.4
2664.36,12804.6
2665.81,12633.2
2667.26,12513.3
2668.71,12365.1
2670.16,12108.5
2671.61,11838
2673.07,11553.1
2674.52,11393.8
2675.97,11025.4
2677.42,10724.7
2678.87,10402.9
2680.32,10110.5
2681.78,9814.35
2683.23,9524.02
2684.68,9157.1
2686.13,8794.21
2687.58,8442.26
2689.04,8110.24
2690.49,7821.34
2691.94,7532
2693.39,7166.58
2694.84,6929.36
2696.29,6640.41
2697.75,6366.15
2699.2,6091.56
2700.65,5864
2702.1,5631.82
2703.55,5349.36
2705.01,5129.36
2706.46,4892.63
2707.91,4706.55
2709.36,4589.14
2710.81,4368.47
2712.26,4146.31
2713.72,4023.19
2715.17,3912.26
2716.62,3766.59
2718.07,3609.39
2719.52,3449.35
2720.98,3341.24
2722.43,3225.12
2723.88,3138.02
2725.33,3030.21
2726.78,2921.83
2728.23,2825.32
2729.69,2737.42
2731.14,2663.97
2732.59,2608.9
2734.04,2533.15
2735.49,2458.96
2736.94,2399.16
2738.4,2345.01
2739.85,2278.35
2741.3,2233.43
2742.75,2178.69
2744.2,2151.13
2745.66,2071.1
2747.11,2052.32
2748.56,2000.31
2750.01,1962.43
2751.46,1916.42
2752.91,1870.38
2754.37,1841.52
2755.82,1836.06
2757.27,1788.83
2758.72,1757.74
2760.17,1743.5
2761.63,1706.68
2763.08,1667.91
2764.53,1693.54
2765.98,1621.47
2767.43,1629.56
2768.88,1591.05
2770.34,1554.75
2771.79,1543.59
2773.24,1524.02
2774.69,1535.75
2776.14,1539.75
2777.59,1484.51
2779.05,1502.36
2780.5,1444.84
2781.95,1415.36
2783.4,1440.33
2784.85,1401.22
2786.31,1366.84
2787.76,1370.67
2789.21,1357.29
2790.66,1361.7
2792.11,1359.67
2793.56,1327.6
2795.02,1331.22
2796.47,1294.63
2797.92,1277.37
2799.37,1288.38
2800.82,1259.7
2802.28,1266.76
2803.73,1245.14
2805.18,1249.91
2806.63,1262.24
2808.08,1244.46
2809.53,1221.8
2810.99,1224.75
2812.44,1188.97
2813.89,1211.55
2815.34,1202.7
2816.79,1189.76
2818.24,1182.39
2819.7,1165.11
2821.15,1153.33
2822.6,1165.37
2824.05,1120.67
2825.5,1124.13
2826.96,1134.57
2828.41,1147.18
2829.86,1128.27
2831.31,1136.45
2832.76,1121.86
2834.21,1102.57
2835.67,1119.62
2837.12,1115.15
2838.57,1095.76
2840.02,1123.4
2841.47,1098.57
2842.93,1104.12
2844.38,1082.75
2845.83,1096.17
2847.28,1091.38
2848.73,1087.02
2850.18,1077.28
2851.64,1103.03
2853.09,1093.49
2854.54,1090.68
2855.99,1078.4
2857.44,1068.18
2858.9,1053.6
2860.35,1090
2861.8,1062.2
2863.25,1087.49
2864.7,1093.49
2866.15,1086.04
2867.61,1077.56
2869.06,1075.02
2870.51,1101.13
2871.96,1077.97
2873.41,1054.97
2874.86,1080.9
2876.32,1063.79
2877.77,1100.86
2879.22,1090.8
2880.67,1080.86
2882.12,1057.66
2883.58,1057.82
2885.03,1070.95
2886.48,1089.91
2887.93,1088.07
2889.38,1111.82
2890.83,1090.69
2892.29,1091.64
2893.74,1082.54
2895.19,1097.46
2896.64,1092.27
2898.09,1072.79
2899.54,1092.92
2901,1087.36
2902.45,1091.39
2903.9,1094.14
2905.35,1111.94
2906.8,1102.03
2908.26,1088.5
2909.71,1083
2911.16,1072.75
2912.61,1088.66
2914.06,1093.9
2915.51,1083.29
2916.97,1085.48
2918.42,1064.06
2919.87,1072.5
2921.32,1041.61
2922.77,1059.82
2924.23,1041.17
2925.68,1035.26
2927.13,1040.88
2928.58,1046.59
2930.03,1022.88
2931.48,1034.58
2932.94,1004.83
2934.39,995.162
2935.84,986.924
2937.29,977.134
2938.74,997.895
2940.2,988.779
2941.65,948.669
2943.1,934.837
2944.55,948.388
2946,934.997
2947.45,929.371
2948.91,931.635
2950.36,914.821
2951.81,909.498
2953.26,896.787
2954.71,872.37
2956.16,888.228
2957.62,871.614
2959.07,854.59
2960.52,858.533
2961.97,852.1
2963.42,849.554
2964.88,833.784
2966.33,843.077
2967.78,837.815
2969.23,824.171
2970.68,825.85
2972.13,824.171
2973.59,826.313
2975.04,820.808
2976.49,802.112
2977.94,805.497
2979.39,785.182
2980.84,794.762
2982.3,790.163
2983.75,793.029
2985.2,776.828
2986.65,776.756
2988.1,782.206
2989.56,767.408
2991.01,767.805
2992.46,775.862
2993.91,757.513
2995.36,766.094
2996.81,782.78
2998.27,762.858
2999.72,757.982
3001.17,741.936
3002.62,737.022
3004.07,737.723
3005.53,756.414
3006.98,745.05
3008.43,750.23
3009.88,753.835
3011.33,744.228
3012.78,746.265
3014.24,740.942
3015.69,747.579
3017.14,739.727
3018.59,736.519
3020.04,721.837
3021.5,740.274
3022.95,738.209
3024.4,730.396
3025.85,727.364
3027.3,729.015
3028.75,747.496
3030.21,726.983
3031.66,727.933
3033.11,733.847
3034.56,720.639
3036.01,718.16
3037.46,731.539
3038.92,731.633
3040.37,718.839
3041.82,730.352
3043.27,713.566
3044.72,729.954
3046.18,717.674
3047.63,723.687
3049.08,720.506
3050.53,740.269
3051.98,733.521
3053.43,729.363
3054.89,731.213
3056.34,745.603
3057.79,736.188
3059.24,723.919
3060.69,727.48
3062.15,736.74
3063.6,723.046
3065.05,724.604
3066.5,745.917
3067.95,742.947
3069.4,752.714
3070.86,754.233
3072.31,757.463
3073.76,739.435
3075.21,746.911
3076.66,766.061
3078.11,760.439
3079.57,758.523
3081.02,774.338
3082.47,768.413
3083.92,772.869
3085.37,775.757
3086.83,799.992
3088.28,783.603
3089.73,784.89
3091.18,800.792
3092.63,816.253
3094.08,824.939
3095.54,813.746
3096.99,827.075
3098.44,867.997
3099.89,843.099
3101.34,868.803
3102.8,869.344
3104.25,874.651
3105.7,891.078
3107.15,892.983
3108.6,913.264
3110.05,930.238
3111.51,903.524
3112.96,933.7
3114.41,953.672
3115.86,966.388
3117.31,980.331
3118.76,993.494
3120.22,1024.02
3121.67,1004.87
3123.12,1021.34
3124.57,1052.77
3126.02,1049.04
3127.48,1047.91
3128.93,1057.36
3130.38,1069.83
3131.83,1093.45
3133.28,1102.28
3134.73,1096.86
3136.19,1118.47
3137.64,1126.79
3139.09,1119.8
3140.54,1134.04
3141.99,1130.11
3143.45,1127.77
3144.9,1159.38
3146.35,1148.94
3147.8,1136.98
3149.25,1172.81
3150.7,1146.01
3152.16,1156.55
3153.61,1141.6
3155.06,1164.01
3156.51,1157.38
3157.96,1160.13
3159.42,1139.01
3160.87,1166.46
3162.32,1164.55
3163.77,1148.26
3165.22,1169.9
3166.67,1186.68
3168.13,1168.01
3169.58,1168.94
3171.03,1206.98
3172.48,1197.04
3173.93,1200.02
3175.38,1204.82
3176.84,1229.43
3178.29,1243.76
3179.74,1282.21
3181.19,1239.54
3182.64,1258.61
3184.1,1298.83
3185.55,1278.59
3187,1278.11
3188.45,1300.04
3189.9,1350.03
3191.35,1346.58
3192.81,1354.64
3194.26,1329.24
3195.71,1364.39
3197.16,1385.38
3198.61,1377.68
3200.06,1374.62
3201.52,1389.73
3202.97,1396.28
3204.42,1385.33
3205.87,1363.23
3207.32,1357.67
3208.78,1348.34
3210.23,1339.41
3211.68,1300.67
3213.13,1269.72
3214.58,1273
3216.03,1248.21
3217.49,1243.71
3218.94,1234.34
3220.39,1184.42
3221.84,1167.03
3223.29,1123.81
3224.75,1097.25
3226.2,1075.99
3227.65,1052.67
3229.1,1038.8
3230.55,1003.7
3232,967.084
3233.46,951.563
3234.91,925.588
3236.36,898.013
3237.81,875.181
3239.26,870.299
3240.72,843.944
3242.17,833.271
3243.62,800.417
3245.07,791.88
3246.52,779.832
3247.97,775.315
3249.43,762.598
3250.88,736.381
3252.33,721.738
3253.78,728.949
3255.23,711.694
3256.68,706.343
3258.14,698.304
3259.59,670.391
3261.04,674.13
3262.49,663.809
3263.94,655.56
3265.4,668.663
3266.85,650.96
3268.3,660.712
3269.75,639.74
3271.2,654.953
3272.65,646.72
3274.11,629.856
3275.56,617.687
3277.01,644.014
3278.46,640.066
3279.91,633.451
3281.37,623.263
3282.82,618.774
3284.27,621.817
3285.72,625.384
3287.17,613.092
3288.62,611.861
3290.08,628.774
3291.53,625.654
3292.98,615.036
3294.43,612.093
3295.88,615.942
3297.33,621.574
3298.79,607.687
3300.24,590.023
3301.69,589.178
3303.14,591.734
3304.59,609.465
3306.05,596.08
3307.5,590.083
3308.95,588.968
3310.4,596.411
3311.85,616.08
3313.3,602.877
3314.76,597.637
3316.21,596.196
3317.66,594.059
3319.11,582.579
3320.56,590.271
3322.02,598.808
3323.47,600.404
3324.92,591.895
3326.37,582.486
3327.82,578.256
3329.27,592.513
3330.73,587.742
3332.18,574.578
3333.63,579.239
3335.08,576.147
3336.53,586.378
3337.98,598.156
3339.44,591.469
3340.89,591.265
3342.34,582.198
3343.79,586.798
3345.24,586.539
3346.7,579.863
3348.15,579.609
3349.6,578.576
3351.05,589.139
3352.5,582.629
3353.95,585.589
3355.41,595.522
3356.86,573.27
3358.31,581.089
3359.76,577.234
3361.21,573.347
3362.67,579.912
3364.12,556.694
3365.57,583.64
3367.02,578.295
3368.47,576.163
3369.92,583.391
3371.38,579.614
3372.83,594.578
3374.28,577.919
3375.73,571.978
3377.18,573.612
3378.63,582.221
3380.09,570.404
3381.54,560.355
3382.99,566.042
3384.44,571.691
3385.89,576.964
3387.35,572.215
3388.8,580.448
3390.25,580.017
3391.7,575.158
3393.15,572.85
3394.6,577.582
3396.06,583.772
3397.51,560.222
3398.96,566.909
3400.41,564.104
3401.86,560.52
3403.32,575.76
3404.77,585.523
3406.22,589.625
3407.67,570.36
3409.12,568.665
3410.57,567.527
3412.03,575.186
3413.48,568.057
3414.93,577.847
3416.38,563.126
3417.83,569.156
3419.28,578.433
3420.74,574.396
3422.19,584.308
3423.64,573.596
3425.09,570.84
3426.54,569.499
3428,559.559
3429.45,561.001
3430.9,561.15
3432.35,561.072
3433.8,557.721
3435.25,545.983
3436.71,558.913
3438.16,568.725
3439.61,565.203
3441.06,571.083
3442.51,562.353
3443.97,567.875
3445.42,580.796
3446.87,560.813
3448.32,559.698
3449.77,560.995
3451.22,560.763
3452.68,568.013
3454.13,558.908
3455.58,554.43
3457.03,557.583
3458.48,559.421
3459.94,544.846
3461.39,551.454
3462.84,547.502
3464.29,558.604
3465.74,565.611
3467.19,573.634
3468.65,557.229
3470.1,564.192
3471.55,557.097
3473,553.64
3474.45,563.966
3475.9,554.386
3477.36,551.752
3478.81,539.625
3480.26,546.152
3481.71,564.789
3483.16,562.878
3484.62,573.513
3486.07,562.458
3487.52,568.367
3488.97,571.409
3490.42,581.74
3491.87,547.645
3493.33,557.759
3494.78,567.229
3496.23,554.91
3497.68,552.668
3499.13,564.01
3500.58,568.267
3502.04,558.494
3503.49,570.901
3504.94,562.193
3506.39,568.455
3507.84,560.575
3509.3,543.304
3510.75,565.617
3512.2,560.482
3513.65,560.542
3515.1,564.557
3516.55,582.265
3518.01,575.578
3519.46,569.438
3520.91,557.649
3522.36,562.072
3523.81,573.253
3525.27,543.242
3526.72,551.087
3528.17,555.628
3529.62,562.431
3531.07,570.647
3532.52,563.082
3533.98,576.136
3535.43,561.221
3536.88,570.029
3538.33,563.099
3539.78,562.061
3541.24,565.407
3542.69,547.896
3544.14,565.738
3545.59,573.816
3547.04,550.523
3548.49,556.721
3549.95,557.859
3551.4,558.615
3552.85,543.623
3554.3,557.958
3555.75,553.568
3557.2,560.99
3558.66,544.954
3560.11,552.099
3561.56,559.609
3563.01,548.766
3564.46,557.202
3565.92,564.529
3567.37,557.356
3568.82,561.249
3570.27,556.34
3571.72,562.414
3573.17,552.216
3574.63,560.443
3576.08,565.965
3577.53,544.178
3578.98,550.803
3580.43,555.087
3581.89,561.453
3583.34,568.858
3584.79,559.383
3586.24,554.678
3587.69,556.484
3589.14,556.545
3590.6,559.029
3592.05,550.029
3593.5,550.148
3594.95,559.079
3596.4,547.379
3597.85,554.75
3599.31,551.69
3600.76,552.055
3602.21,551.435
3603.66,556.959
3605.11,556.125
3606.57,553.966
3608.02,561.155
3609.47,553.43
3610.92,556.826
3612.37,559.769
3613.82,553.364
3615.28,557.875
3616.73,551.06
3618.18,544.867
3619.63,566.202
3621.08,541.962
3622.54,553.353
3623.99,542.819
3625.44,558.748
3626.89,565.86
3628.34,553.927
3629.79,557.544
3631.25,555.214
3632.7,560.923
3634.15,548.369
3635.6,551.139
3637.05,570.211
3638.5,561.945
3639.96,571.061
3641.41,546.946
3642.86,548.142
3644.31,557.55
3645.76,547.711
3647.22,550.858
3648.67,555.462
3650.12,541.38
3651.57,558.427
3653.02,552.392
3654.47,557.196
3655.93,552.967
3657.38,538.511
3658.83,568.267
3660.28,559.543
3661.73,555.843
3663.19,552.11
3664.64,556.108
3666.09,563.452
3667.54,568.306
3668.99,552.724
3670.44,546.348
3671.9,565.368
3673.35,575.296
3674.8,567.831
3676.25,557.45
3677.7,566.815
3679.16,561.757
3680.61,568.477
3682.06,554.811
3683.51,557.975
3684.96,559.576
3686.41,570.299
3687.87,554.386
3689.32,551.782
3690.77,548.24
3692.22,574.954
3693.67,552.955
3695.12,554.894
3696.58,572.524
3698.03,549.367
3699.48,553.966
3700.93,565.639
3702.38,570.012
3703.84,557.704
3705.29,569.057
3706.74,567.671
3708.19,563.022
3709.64,552.021
3711.09,551.577
3712.55,558.499
3714,557.666
3715.45,571.127
3716.9,569.057
3718.35,560.355
3719.8,570.542
3721.26,555.506
3722.71,567.395
3724.16,567.544
3725.61,573.032
3727.06,575.07
3728.52,579.084
3729.97,577.246
3731.42,584.959
3732.87,564.7
3734.32,570.84
3735.77,564.507
3737.23,573.049
3738.68,572.497
3740.13,566.434
3741.58,561.012
3743.03,589.57
3744.49,573.159
3745.94,568.648
3747.39,571.558
3748.84,567.98
3750.29,569.703
3751.74,568.278
3753.2,565.86
3754.65,565.451
3756.1,577.229
3757.55,566.677
3759,573.816
3760.46,584.457
3761.91,573.237
3763.36,580.724
3764.81,581
3766.26,563.491
3767.71,572.072
3769.17,578.46
3770.62,579.404
3772.07,579.007
3773.52,577.301
3774.97,564.811
3776.42,571.63
3777.88,567.732
3779.33,583.513
3780.78,578.405
3782.23,576.98
3783.68,583.695
3785.14,563.811
3786.59,569.499
3788.04,578.825
3789.49,590.139
3790.94,595.097
3792.39,576.224
3793.85,574.678
3795.3,578.388
3796.75,580.807
3798.2,585.672
3799.65,565.479
3801.1,568.499
3802.56,581.376
3804.01,581.541
3805.46,594.7
3806.91,582.121
3808.36,588.94
3809.82,577.814
3811.27,571.028
3812.72,578.223
3814.17,589.101
3815.62,589.741
3817.07,592.414
3818.53,586.086
3819.98,585.28
3821.43,587.632
3822.88,584.827
3824.33,599.862
3825.79,596.063
3827.24,584.126
3828.69,584.854
3830.14,570.167
3831.59,589.321
3833.04,585.749
3834.5,584.81
3835.95,575.037
3837.4,574.28
3838.85,598.891
3840.3,578.107
3841.76,588.885
3843.21,587.775
3844.66,586.671
3846.11,586.726
3847.56,580.017
3849.01,602.171
3850.47,600.829
3851.92,601.856
3853.37,593.822
3854.82,610.972
3856.27,603.904
3857.72,606.936
3859.18,593.098
3860.63,600.95
3862.08,593.755
3863.53,604.661
3864.98,623.827
3866.44,607.731
3867.89,606.141
3869.34,597.908
3870.79,591.033
3872.24,609.928
3873.69,614.495
3875.15,603.954
3876.6,607.676
3878.05,607.626
3879.5,610.459
3880.95,625.66
3882.41,614.418
3883.86,604.258
3885.31,603.976
3886.76,618.443
3888.21,610.679
3889.66,612.894
3891.12,615.666
3892.57,595.986
3894.02,620.933
3895.47,616.08
3896.92,632.17
3898.37,610.934
3899.83,609.719
3901.28,622.032
3902.73,619.63
3904.18,623.832
3905.63,638.067
3907.09,607.184
3908.54,630.933
3909.99,633.374
3911.44,635.654
3912.89,650.927
3914.34,636.665
3915.8,633.451
3917.25,651.755
3918.7,639.668
3920.15,622.507
3921.6,643.981
3923.06,621.309
3924.51,619.569
3925.96,634.357
3927.41,650.635
3928.86,643.49
3930.31,652.402
3931.77,656.951
3933.22,657.415
3934.67,658.288
3936.12,658.393
3937.57,651.176
3939.02,632.236
3940.48,657.824
3941.93,678.851
3943.38,678.762
3944.83,658.023
3946.28,672.048
3947.74,680.905
3949.19,689.005
3950.64,678.276
3952.09,681.589
3953.54,660.844
3954.99,680.126
3956.45,676.537
3957.9,672.042
3959.35,687.006
3960.8,676.769
3962.25,687.001
3963.71,679.778
3965.16,675.179
3966.61,683.373
3968.06,687.453
3969.51,687.481
3970.96,702.091
3972.42,691.285
3973.87,692.362
3975.32,702.191
3976.77,702.666
3978.22,694.157
3979.68,708.773
3981.13,702.108
3982.58,707.95
3984.03,716.989
3985.48,719.833
3986.93,702.881
3988.39,718.889
3989.84,720.871
3991.29,707.801
3992.74,719.501
3994.19,710.479
3995.64,713.996
3997.1,725.813
3998.55,721.633
4000,723.587
