-38.3662,107.157
-36.912,116.435
-35.4578,125.457
-34.0036,120.671
-32.5494,125.898
-31.0952,135.459
-29.6409,138.696
-28.1867,139.199
-26.7325,144.689
-25.2783,135.276
-23.8241,153.593
-22.3698,163.374
-20.9156,154.916
-19.4614,161.466
-18.0072,164.536
-16.553,174.998
-15.0987,203.224
-13.6445,230.417
-12.1903,264.688
-10.7361,352.902
-9.28187,245.577
-7.82765,245.577
-6.37343,245.577
-4.91921,245.577
-3.46499,245.577
-2.01077,245.577
-0.556553,245.577
0.897666,245.577
2.35189,245.577
3.8061,1266.88
5.26032,438.999
6.71454,400.893
8.16876,363.629
9.62298,340.955
11.0772,323.848
12.5314,298.875
13.9856,269.898
15.4399,253.945
16.8941,235.953
18.3483,214.181
19.8025,199.29
21.2567,191.994
22.711,184.408
24.1652,176.333
25.6194,173.061
27.0736,170.763
28.5278,167.964
29.982,163.384
31.4363,158.554
32.8905,151.238
34.3447,151.162
35.7989,140.116
37.2531,136.979
38.7074,142.641
40.1616,159.86
41.6158,180.62
43.07,197.637
44.5242,235.397
45.9785,303.7
47.4327,408.781
48.8869,634.565
50.3411,971.905
51.7953,1352.83
53.2495,1787.22
54.7038,2226.7
56.158,2632.76
57.6122,2998.04
59.0664,3257.69
60.5206,3468.08
61.9749,3554.6
63.4291,3656.88
64.8833,3754.28
66.3375,3851.29
67.7917,3838.54
69.246,3888.09
70.7002,3900.97
72.1544,4005.12
73.6086,4099.72
75.0628,4105.75
76.5171,4092.84
77.9713,4218.65
79.4255,4375.71
80.8797,4442.66
82.3339,4369.53
83.7882,4393.27
85.2424,4305.2
86.6966,4182.75
88.1508,4090.07
89.605,4044.24
91.0592,3874.53
92.5135,3720.18
93.9677,3587.07
95.4219,3440.29
96.8761,3355.41
98.3303,3245.76
99.7846,3125.82
101.239,3071.23
102.693,3042.37
104.147,3013.7
105.601,2887.22
107.056,2847.02
108.51,2814.57
109.964,2786.78
111.418,2817.34
112.873,2782.84
114.327,2751.94
115.781,2704.1
117.235,2620.55
118.689,2524.43
120.144,2542.08
121.598,2542.27
123.052,2483.09
124.506,2407.14
125.961,2404.49
127.415,2362.49
128.869,2299
130.323,2256.48
131.777,2221.51
133.232,2254.44
134.686,2166.26
136.14,2079.46
137.594,2060.31
139.048,2058.52
140.503,2014.28
141.957,2010.23
143.411,2000.08
144.865,1971.02
146.32,1970.04
147.774,1910.83
149.228,1868.7
150.682,1840.95
152.136,1817.06
153.591,1745.59
155.045,1761.17
156.499,1763.41
157.953,1743.53
159.408,1738.46
160.862,1753.99
162.316,1749.45
163.77,1763.8
165.224,1762.39
166.679,1701.91
168.133,1658.98
169.587,1698.98
171.041,1704.9
172.496,1663.77
173.95,1634.95
175.404,1632.06
176.858,1642.74
178.312,1646.15
179.767,1650.34
181.221,1649.9
182.675,1672.56
184.129,1679.75
185.583,1671.41
187.038,1647.51
188.492,1617.23
189.946,1633.19
191.4,1660.7
192.855,1666.89
194.309,1706.95
195.763,1727.12
197.217,1662.77
198.671,1640.53
200.126,1648.14
201.58,1630.72
203.034,1586.58
204.488,1550.9
205.943,1594.94
207.397,1609.18
208.851,1595.56
210.305,1574.82
211.759,1577.43
213.214,1569.22
214.668,1582.2
216.122,1572.01
217.576,1543.66
219.031,1566.41
220.485,1567.93
221.939,1582.46
223.393,1577.77
224.847,1550.26
226.302,1605.1
227.756,1564.8
229.21,1597.73
230.664,1610.16
232.118,1578.3
233.573,1539.44
235.027,1574.6
236.481,1575.9
237.935,1562.07
239.39,1571.08
240.844,1568.8
242.298,1586.19
243.752,1576.21
245.206,1573.24
246.661,1562.1
248.115,1575.36
249.569,1504.93
251.023,1496.75
252.478,1503.3
253.932,1511.09
255.386,1497.47
256.84,1519.29
258.294,1527
259.749,1493.98
261.203,1503.75
262.657,1560.04
264.111,1481.89
265.566,1508.38
267.02,1489.29
268.474,1474.56
269.928,1507.69
271.382,1491.29
272.837,1466.26
274.291,1465.04
275.745,1474.24
277.199,1474.26
278.654,1459.03
280.108,1424.1
281.562,1413.59
283.016,1428.01
284.47,1424.74
285.925,1389.06
287.379,1423.14
288.833,1387.76
290.287,1376.68
291.741,1383.54
293.196,1370.24
294.65,1346.05
296.104,1329.1
297.558,1333.4
299.013,1318.59
300.467,1306.25
301.921,1326.68
303.375,1299.77
304.829,1310.71
306.284,1325.77
307.738,1331.18
309.192,1301.64
310.646,1315.06
312.101,1313.93
313.555,1309.09
315.009,1311.53
316.463,1291.15
317.917,1298.07
319.372,1271.69
320.826,1249.91
322.28,1244.65
323.734,1250.74
325.189,1254.29
326.643,1238.73
328.097,1227.2
329.551,1223.07
331.005,1232.02
332.46,1278.8
333.914,1289.75
335.368,1239.88
336.822,1232.26
338.276,1252.95
339.731,1231.8
341.185,1248.8
342.639,1253.91
344.093,1255.33
345.548,1243.5
347.002,1223.84
348.456,1273.09
349.91,1223.2
351.364,1184.86
352.819,1194.88
354.273,1227.79
355.727,1231.46
357.181,1188.23
358.636,1196.39
360.09,1214.41
361.544,1224.84
362.998,1231.71
364.452,1225.52
365.907,1228.96
367.361,1220.02
368.815,1186.4
370.269,1153.58
371.724,1203.68
373.178,1204.82
374.632,1213.13
376.086,1206.19
377.54,1204.51
378.995,1228.28
380.449,1245.87
381.903,1179.62
383.357,1181.79
384.811,1188.16
386.266,1186.09
387.72,1229
389.174,1209.58
390.628,1210.52
392.083,1210.08
393.537,1197.15
394.991,1172.45
396.445,1205.57
397.899,1212.93
399.354,1223.42
400.808,1222.02
402.262,1200.29
403.716,1156.42
405.171,1228.59
406.625,1199.65
408.079,1200.95
409.533,1203.92
410.987,1180.93
412.442,1241.92
413.896,1234.23
415.35,1167.06
416.804,1173.24
418.259,1225.41
419.713,1191.72
421.167,1192.57
422.621,1208.42
424.075,1222.46
425.53,1225.5
426.984,1224.2
428.438,1230.7
429.892,1229.1
431.346,1260.91
432.801,1258.75
434.255,1237.29
435.709,1236.71
437.163,1182.33
438.618,1203.76
440.072,1220.62
441.526,1246.71
442.98,1259.65
444.434,1249.17
445.889,1222.27
447.343,1202.68
448.797,1216.68
450.251,1250.22
451.706,1275.69
453.16,1237.85
454.614,1224.42
456.068,1223.86
457.522,1219.47
458.977,1239.84
460.431,1276.21
461.885,1256.99
463.339,1283.22
464.794,1250.39
466.248,1212.53
467.702,1220.86
469.156,1263.46
470.61,1232.94
472.065,1243.76
473.519,1259.54
474.973,1244.05
476.427,1221.48
477.882,1285.65
479.336,1269.98
480.79,1255.72
482.244,1225.92
483.698,1212.4
485.153,1223.03
486.607,1229.91
488.061,1234.87
489.515,1219.29
490.969,1194.65
492.424,1195.59
493.878,1237.13
495.332,1229.74
496.786,1193.26
498.241,1222.75
499.695,1232.92
501.149,1220.16
502.603,1207.18
504.057,1171.76
505.512,1176.11
506.966,1176.32
508.42,1171.83
509.874,1179.91
511.329,1163.99
512.783,1183.11
514.237,1136.54
515.691,1149.24
517.145,1174.6
518.6,1177.68
520.054,1177.39
521.508,1182.48
522.962,1152.92
524.417,1155.74
525.871,1171.73
527.325,1168.91
528.779,1140.5
530.233,1167.98
531.688,1162.89
533.142,1173.58
534.596,1171.42
536.05,1159.34
537.505,1192.04
538.959,1157.97
540.413,1151.29
541.867,1148.72
543.321,1147.93
544.776,1170.05
546.23,1200.02
547.684,1166.05
549.138,1202.5
550.592,1205.36
552.047,1178.9
553.501,1160.46
554.955,1169.21
556.409,1167.74
557.864,1168.05
559.318,1160.03
560.772,1142.81
562.226,1165.32
563.68,1190.56
565.135,1184.36
566.589,1167.93
568.043,1158.01
569.497,1180.47
570.952,1162.9
572.406,1137.9
573.86,1150.5
575.314,1191.82
576.768,1203.65
578.223,1196.09
579.677,1170.72
581.131,1177.85
582.585,1157.41
584.039,1162.01
585.494,1173.86
586.948,1163.25
588.402,1170.33
589.856,1201.07
591.311,1151.96
592.765,1171.43
594.219,1125.83
595.673,1122.39
597.127,1171.19
598.582,1184.34
600.036,1131.36
601.49,1169.53
602.944,1172.05
604.399,1180.47
605.853,1189.42
607.307,1168.65
608.761,1129.93
610.215,1187.77
611.67,1234.95
613.124,1227.04
614.578,1200.58
616.032,1187.7
617.487,1140.48
618.941,1192.03
620.395,1199.43
621.849,1193.43
623.303,1182.99
624.758,1203.51
626.212,1209.17
627.666,1174.92
629.12,1193.19
630.575,1195.78
632.029,1208.01
633.483,1218.42
634.937,1199.33
636.391,1203.26
637.846,1157.7
639.3,1176.18
640.754,1183.98
642.208,1206.64
643.662,1201.31
645.117,1147.36
646.571,1189.8
648.025,1198.24
649.479,1190.78
650.934,1193.59
652.388,1200.28
653.842,1197.27
655.296,1251.99
656.75,1236.89
658.205,1195.97
659.659,1190.8
661.113,1220.41
662.567,1205.18
664.022,1195.68
665.476,1220.85
666.93,1224.07
668.384,1210.12
669.838,1186.05
671.293,1203.42
672.747,1216.23
674.201,1252.01
675.655,1212.94
677.109,1228.57
678.564,1252.56
680.018,1241.16
681.472,1260.84
682.926,1250.49
684.381,1241.46
685.835,1229.38
687.289,1224.19
688.743,1231.81
690.198,1221.31
691.652,1232.46
693.106,1246.35
694.56,1225.45
696.014,1241.54
697.469,1248.76
698.923,1248.38
700.377,1236.82
701.831,1266.19
703.285,1246.46
704.74,1212.7
706.194,1235.07
707.648,1249.54
709.102,1249.63
710.557,1256.2
712.011,1262.48
713.465,1260.94
714.919,1256.9
716.373,1248.5
717.828,1255.7
719.282,1291.87
720.736,1284.88
722.19,1259.13
723.645,1251.97
725.099,1254.44
726.553,1265.39
728.007,1274.35
729.461,1245.07
730.916,1226.21
732.37,1255.13
733.824,1271.3
735.278,1269.81
736.732,1264.19
738.187,1245.98
739.641,1241.09
741.095,1255.29
742.549,1274.28
744.004,1290.5
745.458,1277.43
746.912,1278.71
748.366,1254.54
749.82,1246.62
751.275,1244.15
752.729,1259.37
754.183,1271.56
755.637,1257.66
757.092,1267.65
758.546,1247.96
760,1271.76
761.454,1292.17
762.908,1310.85
764.363,1312.58
765.817,1292.6
767.271,1284.37
768.725,1292.4
770.18,1297.03
771.634,1291.77
773.088,1278.55
774.542,1288.75
775.996,1261.12
777.451,1242.67
778.905,1308.26
780.359,1267.09
781.813,1270.52
783.268,1294.41
784.722,1300.95
786.176,1289.62
787.63,1301.21
789.084,1314.06
790.539,1292.39
791.993,1256.77
793.447,1277.87
794.901,1289.33
796.355,1316.42
797.81,1330.09
799.264,1319.25
800.718,1300.15
802.172,1293.89
803.627,1299.37
805.081,1316.67
806.535,1319.78
807.989,1332.05
809.443,1309.07
810.898,1337.97
812.352,1334.95
813.806,1351.43
815.26,1345.23
816.715,1317.51
818.169,1304.43
819.623,1328.71
821.077,1331.41
822.531,1358.42
823.986,1352.58
825.44,1352.06
826.894,1345.27
828.348,1356.49
829.802,1340.34
831.257,1396.36
832.711,1352.59
834.165,1377.43
835.619,1379.29
837.074,1355.03
838.528,1342.69
839.982,1332.46
841.436,1341.62
842.891,1376.3
844.345,1375.83
845.799,1376.66
847.253,1385.71
848.707,1393.01
850.162,1378.58
851.616,1416.32
853.07,1440.24
854.524,1409.25
855.978,1386.54
857.433,1428.65
858.887,1445.07
860.341,1443.86
861.795,1435.51
863.25,1414.03
864.704,1392.13
866.158,1394.12
867.612,1428.21
869.066,1435.96
870.521,1377.4
871.975,1358.48
873.429,1362.83
874.883,1361.26
876.338,1365.27
877.792,1389.67
879.246,1404.6
880.7,1380.87
882.154,1392.96
883.609,1380.11
885.063,1404.61
886.517,1419.76
887.971,1393.81
889.425,1381.7
890.88,1386.96
892.334,1385.97
893.788,1414.72
895.242,1411.03
896.697,1399.41
898.151,1394.15
899.605,1394.93
901.059,1409.81
902.513,1400.01
903.968,1395.5
905.422,1422.4
906.876,1382.67
908.33,1428.62
909.785,1454.8
911.239,1437.12
912.693,1411.82
914.147,1436.25
915.601,1418.61
917.056,1468.87
918.51,1454.9
919.964,1436.3
921.418,1443.88
922.873,1460
924.327,1470.42
925.781,1433.58
927.235,1440.7
928.689,1470.84
930.144,1451.92
931.598,1441.8
933.052,1470.88
934.506,1503.66
935.961,1479.81
937.415,1457.76
938.869,1465.51
940.323,1477.9
941.777,1447.5
943.232,1434.83
944.686,1449.15
946.14,1448.16
947.594,1449.67
949.048,1433.1
950.503,1495.33
951.957,1488
953.411,1432.2
954.865,1406.91
956.32,1440.99
957.774,1479.08
959.228,1476.05
960.682,1480.19
962.136,1436.09
963.591,1492.74
965.045,1457.26
966.499,1446.35
967.953,1468.26
969.408,1477.42
970.862,1498.95
972.316,1527.34
973.77,1518.96
975.224,1477.71
976.679,1463.42
978.133,1500.55
979.587,1498.9
981.041,1506.4
982.495,1520.81
983.95,1482.63
985.404,1521.61
986.858,1525.49
988.312,1520.1
989.767,1561.73
991.221,1535.35
992.675,1506.37
994.129,1514.99
995.583,1520.56
997.038,1567.56
998.492,1562.33
999.946,1517.73
1001.4,1537.49
1002.85,1548.2
1004.31,1541.16
1005.76,1563.08
1007.22,1565.97
1008.67,1639.82
1010.13,1595.15
1011.58,1624.69
1013.03,1628.3
1014.49,1607.57
1015.94,1600.31
1017.4,1596.43
1018.85,1629.02
1020.31,1614.41
1021.76,1604.74
1023.21,1666.27
1024.67,1684
1026.12,1684.63
1027.58,1675.61
1029.03,1656.61
1030.48,1688.75
1031.94,1738.98
1033.39,1684.87
1034.85,1686.38
1036.3,1738.64
1037.76,1737.04
1039.21,1741.64
1040.66,1764.72
1042.12,1777.73
1043.57,1782.22
1045.03,1769.13
1046.48,1751.81
1047.94,1797.4
1049.39,1799.85
1050.84,1807.61
1052.3,1831.5
1053.75,1835.71
1055.21,1866.66
1056.66,1835.89
1058.11,1875.5
1059.57,1875.77
1061.02,1885.66
1062.48,1877.65
1063.93,1934.11
1065.39,1962.85
1066.84,1963.99
1068.29,2006.58
1069.75,2001.47
1071.2,1974.34
1072.66,2006.98
1074.11,2024.71
1075.57,2064.35
1077.02,2066.58
1078.47,2071.8
1079.93,2110.66
1081.38,2109.53
1082.84,2084.03
1084.29,2125
1085.75,2103.15
1087.2,2113.4
1088.65,2105.38
1090.11,2065.19
1091.56,2081.5
1093.02,2174.45
1094.47,2112.44
1095.92,2093.28
1097.38,2092.31
1098.83,2090.42
1100.29,2091.93
1101.74,2085.76
1103.2,2085.02
1104.65,2053.83
1106.1,2037.2
1107.56,2069.92
1109.01,2090.29
1110.47,2039.62
1111.92,2081.61
1113.38,2062.47
1114.83,2048.4
1116.28,2048.37
1117.74,2008.73
1119.19,2049.71
1120.65,2065.5
1122.1,1977.08
1123.55,1978.25
1125.01,2024.43
1126.46,2015.93
1127.92,2012.15
1129.37,1997.19
1130.83,1950.18
1132.28,1980.04
1133.73,1990.12
1135.19,2044.84
1136.64,2015.14
1138.1,1987.64
1139.55,2036.23
1141.01,2039.95
1142.46,2015.32
1143.91,2039.06
1145.37,2033.58
1146.82,2008.11
1148.28,1998.75
1149.73,2021.43
1151.18,1950.53
1152.64,1985.08
1154.09,2007.64
1155.55,2005.69
1157,2023.48
1158.46,2046.38
1159.91,1995.88
1161.36,2025.56
1162.82,2066.29
1164.27,2058.6
1165.73,2049.38
1167.18,2035.28
1168.64,2040.16
1170.09,2021.39
1171.54,2006.54
1173,2058.06
1174.45,2022.62
1175.91,2012.26
1177.36,2075.55
1178.82,2031.79
1180.27,2069.6
1181.72,2093.2
1183.18,2078.51
1184.63,2071.96
1186.09,2079.59
1187.54,2057.13
1188.99,2098.9
1190.45,2090.98
1191.9,2050.53
1193.36,2100.82
1194.81,2136.63
1196.27,2129.38
1197.72,2108.22
1199.17,2128
1200.63,2142.92
1202.08,2105.78
1203.54,2184.87
1204.99,2128.34
1206.45,2169.79
1207.9,2196.73
1209.35,2177.71
1210.81,2190.19
1212.26,2201.06
1213.72,2144.76
1215.17,2127.97
1216.62,2198.33
1218.08,2179.73
1219.53,2186.76
1220.99,2176.86
1222.44,2202.21
1223.9,2216.76
1225.35,2214.3
1226.8,2231.74
1228.26,2280.93
1229.71,2315.3
1231.17,2313.83
1232.62,2232.95
1234.08,2259.36
1235.53,2272.98
1236.98,2304.25
1238.44,2269.58
1239.89,2281.46
1241.35,2323.5
1242.8,2293.03
1244.25,2320.39
1245.71,2373.67
1247.16,2389.27
1248.62,2402.81
1250.07,2469.36
1251.53,2439.33
1252.98,2441.92
1254.43,2474.4
1255.89,2495.1
1257.34,2505.02
1258.8,2506.45
1260.25,2540.42
1261.71,2599.16
1263.16,2534.03
1264.61,2626.66
1266.07,2655.22
1267.52,2657.51
1268.98,2678.17
1270.43,2720.04
1271.89,2759.29
1273.34,2831.07
1274.79,2836.7
1276.25,2801.36
1277.7,2900.92
1279.16,2943.29
1280.61,2998.33
1282.06,3035.28
1283.52,3116.51
1284.97,3160.03
1286.43,3201.65
1287.88,3321.94
1289.34,3436.49
1290.79,3470.88
1292.24,3492.9
1293.7,3612.68
1295.15,3676.18
1296.61,3831.99
1298.06,3883.95
1299.52,3996.47
1300.97,4212.59
1302.42,4354.31
1303.88,4445.83
1305.33,4664.35
1306.79,4825.9
1308.24,4962.96
1309.69,5170.34
1311.15,5439.83
1312.6,5658.08
1314.06,5906.38
1315.51,6124.38
1316.97,6430.2
1318.42,6707.61
1319.87,6862.23
1321.33,7237.97
1322.78,7553.92
1324.24,7891.78
1325.69,8054.03
1327.15,8275.22
1328.6,8506.33
1330.05,8626.42
1331.51,8677.43
1332.96,8780.36
1334.42,8794.37
1335.87,8703.36
1337.32,8663.73
1338.78,8483.48
1340.23,8360.87
1341.69,8143.93
1343.14,7874.69
1344.6,7608.92
1346.05,7379.42
1347.5,7111.68
1348.96,6841.61
1350.41,6566.64
1351.87,6265.54
1353.32,5963.57
1354.78,5749.48
1356.23,5511.79
1357.68,5265.83
1359.14,5104.84
1360.59,4844.37
1362.05,4654.68
1363.5,4507.72
1364.96,4375.58
1366.41,4211.73
1367.86,4087.42
1369.32,4019.2
1370.77,3908.35
1372.23,3799.46
1373.68,3767.43
1375.13,3602.94
1376.59,3597.35
1378.04,3442.97
1379.5,3384.39
1380.95,3313.65
1382.41,3289.88
1383.86,3279.67
1385.31,3216.92
1386.77,3164.33
1388.22,3126.29
1389.68,3091.64
1391.13,3081.9
1392.59,3124.21
1394.04,2998.96
1395.49,3044.68
1396.95,3031.14
1398.4,2999.77
1399.86,3005.28
1401.31,2940.11
1402.76,2895.72
1404.22,2925.34
1405.67,2920.15
1407.13,2891.8
1408.58,2877.76
1410.04,2871.2
1411.49,2863.41
1412.94,2840.16
1414.4,2895.94
1415.85,2883.71
1417.31,2846.85
1418.76,2884.06
1420.22,2913.81
1421.67,2864.09
1423.12,2813.83
1424.58,2842.58
1426.03,2869.52
1427.49,2892.19
1428.94,2921.22
1430.4,2880.19
1431.85,2831.91
1433.3,2875.74
1434.76,2902.32
1436.21,2868.53
1437.67,2924.85
1439.12,2948.27
1440.57,2911.92
1442.03,2914.75
1443.48,2964.62
1444.94,2946.36
1446.39,2985.29
1447.85,2965.38
1449.3,2932
1450.75,3035.07
1452.21,3087.96
1453.66,3064.48
1455.12,3029.25
1456.57,3040.54
1458.03,3085.92
1459.48,3102.7
1460.93,3109.69
1462.39,3154.57
1463.84,3143.53
1465.3,3149.64
1466.75,3127.86
1468.2,3250.24
1469.66,3212.64
1471.11,3254.05
1472.57,3298.4
1474.02,3348.83
1475.48,3346.7
1476.93,3400.22
1478.38,3466.55
1479.84,3471.56
1481.29,3486.96
1482.75,3576.89
1484.2,3623.01
1485.66,3584.21
1487.11,3733.58
1488.56,3779.07
1490.02,3833.92
1491.47,3844.44
1492.93,3840.49
1494.38,3820.91
1495.83,3984
1497.29,4089.06
1498.74,4194.45
1500.2,4319.65
1501.65,4391.11
1503.11,4464.75
1504.56,4483.16
1506.01,4518.79
1507.47,4741.14
1508.92,4870.71
1510.38,4992.84
1511.83,5147.07
1513.29,5306.46
1514.74,5450.38
1516.19,5640.15
1517.65,5870.6
1519.1,6158.75
1520.56,6472.3
1522.01,6729.88
1523.46,7090.69
1524.92,7494.34
1526.37,7880.88
1527.83,8395.53
1529.28,8989.25
1530.74,9285.77
1532.19,10017.5
1533.64,10821.1
1535.1,11626.7
1536.55,12536.6
1538.01,13686.9
1539.46,14873.6
1540.92,16128.5
1542.37,17459.4
1543.82,18921.9
1545.28,20556.7
1546.73,22180.5
1548.19,24044.3
1549.64,25679.8
1551.1,27631.2
1552.55,29486.1
1554,31481.2
1555.46,33337.7
1556.91,35177.6
1558.37,37057
1559.82,38802
1561.27,40362
1562.73,41621
1564.18,42596.6
1565.64,42976.1
1567.09,43031.3
1568.55,43135.2
1570,42454.6
1571.45,41374.7
1572.91,40119.1
1574.36,38333.5
1575.82,36036.5
1577.27,33936.9
1578.73,31887.5
1580.18,29418.7
1581.63,27112
1583.09,24863.9
1584.54,22913.8
1586,21166.3
1587.45,19365.2
1588.9,17831.6
1590.36,16534.1
1591.81,15400.4
1593.27,14223.5
1594.72,13454.1
1596.18,12521.5
1597.63,11950.6
1599.08,11376
1600.54,10697
1601.99,10158
1603.45,9772.84
1604.9,9226.8
1606.36,8873.49
1607.81,8545
1609.26,8187.47
1610.72,7793.55
1612.17,7341.9
1613.63,6996.73
1615.08,6633.14
1616.54,6326.09
1617.99,6041.51
1619.44,5738.34
1620.9,5548.96
1622.35,5260.76
1623.81,5057.43
1625.26,4847.36
1626.71,4722.04
1628.17,4567.76
1629.62,4391.84
1631.08,4301.11
1632.53,4219.81
1633.99,4097.48
1635.44,3990.58
1636.89,3888.67
1638.35,3783.06
1639.8,3694.41
1641.26,3620
1642.71,3573.93
1644.17,3500.72
1645.62,3506.11
1647.07,3296.15
1648.53,3350.24
1649.98,3290.32
1651.44,3172.69
1652.89,3224.77
1654.34,3137.54
1655.8,3139.45
1657.25,3063.18
1658.71,2970.62
1660.16,2944.33
1661.62,2951.84
1663.07,2893.47
1664.52,2869.42
1665.98,2872.41
1667.43,2862.09
1668.89,2801.69
1670.34,2791.45
1671.8,2793.03
1673.25,2758.55
1674.7,2762.81
1676.16,2667.06
1677.61,2768.76
1679.07,2812.31
1680.52,2658.03
1681.97,2653.81
1683.43,2604.46
1684.88,2598.4
1686.34,2639.46
1687.79,2627.5
1689.25,2565.61
1690.7,2530.95
1692.15,2534.32
1693.61,2546.07
1695.06,2537.01
1696.52,2510.5
1697.97,2491.27
1699.43,2511
1700.88,2454.47
1702.33,2457.37
1703.79,2438.7
1705.24,2415.9
1706.7,2489.77
1708.15,2390.58
1709.6,2340.11
1711.06,2387.3
1712.51,2350.73
1713.97,2399.98
1715.42,2411.86
1716.88,2351.82
1718.33,2391.18
1719.78,2366.63
1721.24,2360.63
1722.69,2381.98
1724.15,2352.79
1725.6,2327.62
1727.06,2314.03
1728.51,2334.35
1729.96,2343.73
1731.42,2320.02
1732.87,2354.93
1734.33,2328.12
1735.78,2335.03
1737.24,2308.09
1738.69,2324.59
1740.14,2319.42
1741.6,2314.54
1743.05,2332.45
1744.51,2335.1
1745.96,2324.48
1747.41,2299.56
1748.87,2303.96
1750.32,2262.43
1751.78,2238.93
1753.23,2249.17
1754.69,2276.91
1756.14,2283.87
1757.59,2220.93
1759.05,2227.26
1760.5,2222.69
1761.96,2225.56
1763.41,2233.55
1764.87,2162.18
1766.32,2181.24
1767.77,2236.04
1769.23,2214.57
1770.68,2209.94
1772.14,2225.11
1773.59,2167.27
1775.04,2169.47
1776.5,2210.11
1777.95,2179.72
1779.41,2120.39
1780.86,2187.02
1782.32,2183.34
1783.77,2175.61
1785.22,2134.55
1786.68,2095.41
1788.13,2131.54
1789.59,2109.02
1791.04,2137.55
1792.5,2146.93
1793.95,2137.54
1795.4,2156.06
1796.86,2134.32
1798.31,2150.76
1799.77,2133.26
1801.22,2131.58
1802.68,2095.15
1804.13,2081.93
1805.58,2106.64
1807.04,2128.86
1808.49,2103.12
1809.95,2095.38
1811.4,2090.42
1812.85,2080.86
1814.31,2061.31
1815.76,2082.32
1817.22,2075.76
1818.67,2091.64
1820.13,2052.89
1821.58,2093.41
1823.03,2079.64
1824.49,2061.26
1825.94,2076.74
1827.4,2092.47
1828.85,2030.27
1830.31,2029.62
1831.76,2070.38
1833.21,2123.29
1834.67,2089.17
1836.12,2061.5
1837.58,2108.3
1839.03,2096.36
1840.48,2090.37
1841.94,2121.98
1843.39,2111.86
1844.85,2143.49
1846.3,2140.04
1847.76,2152.75
1849.21,2164.98
1850.66,2119.55
1852.12,2101.4
1853.57,2122.17
1855.03,2142.24
1856.48,2226.81
1857.94,2186.49
1859.39,2199.76
1860.84,2186.78
1862.3,2198.35
1863.75,2139.79
1865.21,2213.25
1866.66,2190.77
1868.11,2209.57
1869.57,2158.74
1871.02,2148.87
1872.48,2126.97
1873.93,2147.02
1875.39,2173.04
1876.84,2137.55
1878.29,2186.73
1879.75,2151.81
1881.2,2157.79
1882.66,2195.55
1884.11,2147.53
1885.57,2127.81
1887.02,2135.76
1888.47,2099.97
1889.93,2092.47
1891.38,2074.42
1892.84,2086.38
1894.29,2106.45
1895.75,2083.89
1897.2,2051.87
1898.65,2070.44
1900.11,2038.69
1901.56,2074.17
1903.02,2010.29
1904.47,2031.41
1905.92,2010.57
1907.38,2067.24
1908.83,2002.24
1910.29,2045.25
1911.74,2003.12
1913.2,1980.83
1914.65,2064.98
1916.1,2014.69
1917.56,2010.83
1919.01,1952.78
1920.47,2045.47
1921.92,1970.39
1923.38,1954.49
1924.83,2048.77
1926.28,1964.69
1927.74,1966.47
1929.19,1976.29
1930.65,2016.26
1932.1,1997.69
1933.55,1997.03
1935.01,2008.08
1936.46,1963.69
1937.92,2020.6
1939.37,2076.13
1940.83,2009.47
1942.28,2020.49
1943.73,2025
1945.19,1985.33
1946.64,1977.42
1948.1,2031.74
1949.55,2015.25
1951.01,1996.78
1952.46,1983.19
1953.91,1976.08
1955.37,2000.01
1956.82,2040.5
1958.28,2070.67
1959.73,2054.39
1961.18,2017.92
1962.64,2044.28
1964.09,2072.72
1965.55,2063.51
1967,2048.16
1968.46,2062.83
1969.91,2069.33
1971.36,2100.08
1972.82,2091.34
1974.27,2067.53
1975.73,2018.63
1977.18,2087.64
1978.64,2091.16
1980.09,2111.05
1981.54,2075.76
1983,2058.68
1984.45,2069.76
1985.91,2116.24
1987.36,2058.05
1988.82,2056.87
1990.27,2102.47
1991.72,2109.89
1993.18,2101.26
1994.63,2135.87
1996.09,2123.4
1997.54,2146.67
1998.99,2045.04
2000.45,2098.03
2001.9,2106.72
2003.36,2064.16
2004.81,2060.92
2006.27,2097.62
2007.72,2121.18
2009.17,2159.03
2010.63,2081.04
2012.08,2083.73
2013.54,2128.88
2014.99,2090.27
2016.45,1990
2017.9,2048.01
2019.35,2077.33
2020.81,2074.35
2022.26,2043.99
2023.72,2041.55
2025.17,2019.6
2026.62,2015.11
2028.08,2099.21
2029.53,2082.55
2030.99,2042.35
2032.44,2010.6
2033.9,2029.26
2035.35,2045
2036.8,2001.78
2038.26,1987.56
2039.71,1990.85
2041.17,1997.72
2042.62,2014.2
2044.08,1969.34
2045.53,1980.9
2046.98,1974.56
2048.44,2010.5
2049.89,2005.65
2051.35,1951.07
2052.8,1966.69
2054.25,1974.08
2055.71,2016.93
2057.16,1981.14
2058.62,1919.91
2060.07,1902.23
2061.53,1939.25
2062.98,1964.95
2064.43,1975.16
2065.89,1947.56
2067.34,1905.48
2068.8,1869.62
2070.25,1897.7
2071.71,1920.68
2073.16,1925.5
2074.61,1907.98
2076.07,1879.86
2077.52,1900.95
2078.98,1936.62
2080.43,1900.45
2081.89,1900.69
2083.34,1890.38
2084.79,1857.58
2086.25,1859.24
2087.7,1881.22
2089.16,1893.07
2090.61,1896.75
2092.06,1905.25
2093.52,1929.83
2094.97,1909.55
2096.43,1886.75
2097.88,1923.96
2099.34,1937.43
2100.79,1914.77
2102.24,1868.49
2103.7,1906.66
2105.15,2049.05
2106.61,2093.84
2108.06,1944.78
2109.52,1925.9
2110.97,1918.63
2112.42,1918.29
2113.88,1919.55
2115.33,1910.15
2116.79,1898.71
2118.24,1896.52
2119.69,1917.69
2121.15,1928.2
2122.6,1905.32
2124.06,1927.45
2125.51,1937.88
2126.97,1935.7
2128.42,1925
2129.87,1934.05
2131.33,1948.12
2132.78,1946.1
2134.24,1936.92
2135.69,1937.59
2137.15,1929.2
2138.6,1921.99
2140.05,1929.81
2141.51,1929.56
2142.96,1960.08
2144.42,1947.38
2145.87,1939.98
2147.32,1962.43
2148.78,1975.97
2150.23,1948.56
2151.69,1949.74
2153.14,1948.71
2154.6,1957.3
2156.05,1960.84
2157.5,1935.83
2158.96,1940.87
2160.41,1962.01
2161.87,2002.41
2163.32,1992.94
2164.78,1979.77
2166.23,1975.56
2167.68,2001.86
2169.14,1978.81
2170.59,2017.71
2172.05,2004.12
2173.5,2013.01
2174.96,1992.86
2176.41,2009.31
2177.86,2048.24
2179.32,2041.87
2180.77,2054.43
2182.23,2008.92
2183.68,2012.68
2185.13,1999.51
2186.59,2027.49
2188.04,2037.01
2189.5,2020.8
2190.95,2041.92
2192.41,2065.33
2193.86,2023.8
2195.31,2044.73
2196.77,2048.9
2198.22,2002.55
2199.68,2024.27
2201.13,2048.88
2202.59,2025.18
2204.04,2071.38
2205.49,2004.2
2206.95,2038.94
2208.4,2054.94
2209.86,2028.47
2211.31,2057.14
2212.76,2062.65
2214.22,2024.68
2215.67,2035.66
2217.13,2021.67
2218.58,2032.97
2220.04,2016.72
2221.49,2132.64
2222.94,2021.59
2224.4,1987.94
2225.85,2069.16
2227.31,2064.01
2228.76,2057.92
2230.22,2035.2
2231.67,2033.64
2233.12,2086.97
2234.58,2025.97
2236.03,2031.22
2237.49,2072.61
2238.94,2057.88
2240.4,2039.01
2241.85,2074.92
2243.3,2114.88
2244.76,2092.47
2246.21,2074.08
2247.67,2059.1
2249.12,2067.86
2250.57,2040.24
2252.03,2059.92
2253.48,2102.88
2254.94,2092.45
2256.39,2028.67
2257.85,2047.83
2259.3,2087.07
2260.75,2070.28
2262.21,2074.66
2263.66,2090.21
2265.12,2124.47
2266.57,2091.35
2268.03,2090.79
2269.48,2093.52
2270.93,2103.42
2272.39,2135.89
2273.84,2049.21
2275.3,2084
2276.75,2114.87
2278.2,2137.38
2279.66,2146.54
2281.11,2095.07
2282.57,2118.99
2284.02,2155.14
2285.48,2155.27
2286.93,2148.46
2288.38,2065.64
2289.84,2201.31
2291.29,2149.38
2292.75,2171.3
2294.2,2158.3
2295.66,2190.48
2297.11,2218.19
2298.56,2219.46
2300.02,2200.22
2301.47,2175.08
2302.93,2164.27
2304.38,2193.36
2305.83,2207.38
2307.29,2183.69
2308.74,2220.78
2310.2,2193.89
2311.65,2209.68
2313.11,2242.65
2314.56,2213.65
2316.01,2230.15
2317.47,2209.26
2318.92,2235.81
2320.38,2290.69
2321.83,2303.78
2323.29,2282.85
2324.74,2282.43
2326.19,2292.19
2327.65,2268.07
2329.1,2236.25
2330.56,2289.8
2332.01,2346.15
2333.47,2269.88
2334.92,2340.5
2336.37,2318.76
2337.83,2352.84
2339.28,2373.98
2340.74,2327.49
2342.19,2337.8
2343.64,2413.17
2345.1,2374.82
2346.55,2386.08
2348.01,2417.02
2349.46,2363.06
2350.92,2421.78
2352.37,2399.04
2353.82,2430.99
2355.28,2442.39
2356.73,2403.13
2358.19,2439.72
2359.64,2468.63
2361.1,2491.85
2362.55,2503.88
2364,2552.92
2365.46,2535.24
2366.91,2492.48
2368.37,2521.31
2369.82,2553.63
2371.27,2571.15
2372.73,2602.26
2374.18,2585.63
2375.64,2622.85
2377.09,2676.81
2378.55,2672.74
2380,2679.02
2381.45,2678.42
2382.91,2701.5
2384.36,2741.76
2385.82,2829.28
2387.27,2881.33
2388.73,2780.9
2390.18,2899.38
2391.63,2947.04
2393.09,2982.11
2394.54,2943.99
2396,2939.62
2397.45,3022.93
2398.9,3115.58
2400.36,3151.32
2401.81,3208.53
2403.27,3270.57
2404.72,3296.93
2406.18,3335.21
2407.63,3386.49
2409.08,3460.1
2410.54,3487.52
2411.99,3484.13
2413.45,3600.98
2414.9,3613.05
2416.36,3591.69
2417.81,3643.76
2419.26,3674.79
2420.72,3654.67
2422.17,3802
2423.63,3811.91
2425.08,3874.93
2426.53,3885.89
2427.99,3830.17
2429.44,3868.27
2430.9,3819.97
2432.35,3838.96
2433.81,3873.03
2435.26,3816.01
2436.71,3854.52
2438.17,3818.69
2439.62,3848.32
2441.08,3885
2442.53,3875.48
2443.99,3890.64
2445.44,3848.8
2446.89,3711.65
2448.35,3751.35
2449.8,3720.15
2451.26,3744.71
2452.71,3679.02
2454.17,3644.37
2455.62,3691.24
2457.07,3686.57
2458.53,3636.97
2459.98,3640.9
2461.44,3534.21
2462.89,3613.14
2464.34,3552.94
2465.8,3562.57
2467.25,3515.22
2468.71,3500.85
2470.16,3467.19
2471.62,3443.06
2473.07,3426.97
2474.52,3448.03
2475.98,3447.75
2477.43,3464.75
2478.89,3407.3
2480.34,3414.53
2481.8,3322.48
2483.25,3331.28
2484.7,3437.93
2486.16,3336.83
2487.61,3327.6
2489.07,3241.61
2490.52,3326.57
2491.97,3357.84
2493.43,3349.4
2494.88,3352.87
2496.34,3378.94
2497.79,3426.5
2499.25,3367.81
2500.7,3344.2
2502.15,3399.76
2503.61,3370.63
2505.06,3334.05
2506.52,3345.18
2507.97,3382
2509.43,3384.42
2510.88,3370.55
2512.33,3425.24
2513.79,3407.08
2515.24,3444.26
2516.7,3403.78
2518.15,3412.28
2519.6,3473.16
2521.06,3438.52
2522.51,3446.99
2523.97,3446.65
2525.42,3462.75
2526.88,3477.2
2528.33,3545.49
2529.78,3571.12
2531.24,3611.34
2532.69,3620.31
2534.15,3650.19
2535.6,3675.4
2537.06,3727.34
2538.51,3772.22
2539.96,3717.21
2541.42,3787.91
2542.87,3735.7
2544.33,3848.77
2545.78,3888.25
2547.24,3933.14
2548.69,3982.79
2550.14,3949.92
2551.6,4034.84
2553.05,4092.14
2554.51,4135.66
2555.96,4211.2
2557.41,4225
2558.87,4256.95
2560.32,4327.74
2561.78,4371.49
2563.23,4398.25
2564.69,4513.7
2566.14,4537.71
2567.59,4592.97
2569.05,4780.31
2570.5,4720.55
2571.96,4776.06
2573.41,4920.91
2574.87,5011.18
2576.32,5130.73
2577.77,5218.42
2579.23,5390.04
2580.68,5459.77
2582.14,5564.12
2583.59,5670.89
2585.04,5747.72
2586.5,5922.51
2587.95,6136.44
2589.41,6189.9
2590.86,6301.51
2592.32,6429.92
2593.77,6638.51
2595.22,6864.02
2596.68,7166.61
2598.13,7248.51
2599.59,7448.31
2601.04,7697.17
2602.5,7949.67
2603.95,8234.61
2605.4,8405.6
2606.86,8712.63
2608.31,9029.89
2609.77,9380.2
2611.22,9700.67
2612.68,10125.1
2614.13,10263.1
2615.58,10934.8
2617.04,11157
2618.49,11579.1
2619.95,12098.4
2621.4,12542
2622.85,13023.5
2624.31,13451.4
2625.76,14060.1
2627.22,14599
2628.67,15076.4
2630.13,15751.1
2631.58,16341.5
2633.03,17151.9
2634.49,17815.8
2635.94,18355.4
2637.4,18959.9
2638.85,19682.8
2640.31,20310.6
2641.76,20950.4
2643.21,21575.3
2644.67,22188.7
2646.12,22857.9
2647.58,23442.5
2649.03,24037.3
2650.48,24451.3
2651.94,24964.9
2653.39,25434
2654.85,25679.4
2656.3,26126.4
2657.76,26281
2659.21,26786
2660.66,26891.5
2662.12,26899.3
2663.57,27005.8
2665.03,26983.3
2666.48,26953.6
2667.94,26812.7
2669.39,26771
2670.84,26486.4
2672.3,26182.4
2673.75,25693.1
2675.21,25264.7
2676.66,24754
2678.11,24189.5
2679.57,23767.4
2681.02,23151.9
2682.48,22643.3
2683.93,21878.8
2685.39,21028.6
2686.84,20522
2688.29,19950.4
2689.75,19331.9
2691.2,18554.4
2692.66,17759
2694.11,17225.6
2695.57,16588.9
2697.02,15871
2698.47,15406.5
2699.93,14497
2701.38,13789.1
2702.84,13321.3
2704.29,12829.5
2705.75,12305.1
2707.2,11810.9
2708.65,11300.7
2710.11,10928.2
2711.56,10461.1
2713.02,9922.68
2714.47,9791.06
2715.92,9327.92
2717.38,8953.32
2718.83,8611.35
2720.29,8279.44
2721.74,7987.13
2723.2,7666.51
2724.65,7497.73
2726.1,7252.5
2727.56,7062.26
2729.01,6760.4
2730.47,6539.59
2731.92,6366.22
2733.38,6242.42
2734.83,5851.29
2736.28,5732.14
2737.74,5662.05
2739.19,5552.87
2740.65,5262.81
2742.1,5207.11
2743.55,5153.28
2745.01,5040.95
2746.46,4845
2747.92,4849.51
2749.37,4606.78
2750.83,4682.64
2752.28,4572.62
2753.73,4383.76
2755.19,4317.71
2756.64,4188.54
2758.1,4185.74
2759.55,4204.3
2761.01,4105.99
2762.46,3992.3
2763.91,4025.48
2765.37,3936.88
2766.82,3907.71
2768.28,3847.77
2769.73,3807.59
2771.18,3746.44
2772.64,3686.65
2774.09,3681.14
2775.55,3612.36
2777,3526.81
2778.46,3510.68
2779.91,3507.9
2781.36,3457.67
2782.82,3398.58
2784.27,3372.36
2785.73,3331.88
2787.18,3335.39
2788.64,3349.22
2790.09,3326.37
2791.54,3283.8
2793,3244.18
2794.45,3180.65
2795.91,3131.77
2797.36,3146.2
2798.82,3117.84
2800.27,3166.5
2801.72,3077.23
2803.18,3031.79
2804.63,3059.53
2806.09,3062.62
2807.54,3032.3
2808.99,3024.67
2810.45,3047.07
2811.9,2963.12
2813.36,2964.91
2814.81,2950.22
2816.27,2900.14
2817.72,2989.48
2819.17,2891.68
2820.63,2934.02
2822.08,2897.11
2823.54,2883.47
2824.99,2890.3
2826.45,2850.42
2827.9,2835.02
2829.35,2900.84
2830.81,2851.31
2832.26,2747.44
2833.72,2825.52
2835.17,2855.41
2836.62,2809.78
2838.08,2771.2
2839.53,2758.61
2840.99,2796.96
2842.44,2767.08
2843.9,2727.37
2845.35,2683.92
2846.8,2775.47
2848.26,2767.43
2849.71,2747.2
2851.17,2769.12
2852.62,2739.28
2854.08,2746.94
2855.53,2744.54
2856.98,2755.69
2858.44,2762.26
2859.89,2730.12
2861.35,2678.21
2862.8,2712.31
2864.25,2717.42
2865.71,2719.73
2867.16,2708.82
2868.62,2687.44
2870.07,2739.95
2871.53,2818.42
2872.98,2793.63
2874.43,2784.63
2875.89,2749.43
2877.34,2800.6
2878.8,2796.64
2880.25,2777.86
2881.71,2750.08
2883.16,2777.29
2884.61,2783.24
2886.07,2753.78
2887.52,2765.9
2888.98,2786.08
2890.43,2873.33
2891.89,2848.95
2893.34,2884.13
2894.79,2880.33
2896.25,2816.69
2897.7,2829.62
2899.16,2837.93
2900.61,2850.09
2902.06,2888.96
2903.52,2778.84
2904.97,2831.64
2906.43,2879.23
2907.88,2855.46
2909.34,2892.9
2910.79,2909.86
2912.24,2869.83
2913.7,2864.96
2915.15,2800.9
2916.61,2853.49
2918.06,2791.05
2919.52,2769.33
2920.97,2728.7
2922.42,2767.66
2923.88,2752.15
2925.33,2757
2926.79,2698.9
2928.24,2680.8
2929.69,2662.12
2931.15,2641.59
2932.6,2589.8
2934.06,2704.12
2935.51,2618.02
2936.97,2602.66
2938.42,2595.8
2939.87,2637.39
2941.33,2549.48
2942.78,2521.12
2944.24,2544.62
2945.69,2496.83
2947.15,2423.92
2948.6,2416.8
2950.05,2366.37
2951.51,2404.23
2952.96,2348.69
2954.42,2314.09
2955.87,2314.14
2957.32,2321.81
2958.78,2348.53
2960.23,2335.92
2961.69,2309.87
2963.14,2230.96
2964.6,2180.7
2966.05,2179.41
2967.5,2196.91
2968.96,2192.45
2970.41,2166.85
2971.87,2188.33
2973.32,2143.78
2974.78,2163.72
2976.23,2188.2
2977.68,2120.26
2979.14,2069.04
2980.59,2039.46
2982.05,2043.16
2983.5,2008.64
2984.96,1997.61
2986.41,2030.82
2987.86,2042.06
2989.32,2027.71
2990.77,1968.74
2992.23,1975.42
2993.68,2022.87
2995.13,2001
2996.59,1996.18
2998.04,1990.56
2999.5,2004.72
3000.95,1979.33
3002.41,1981.45
3003.86,1952.34
3005.31,1949.34
3006.77,1942.77
3008.22,1927.15
3009.68,1948.88
3011.13,1900.19
3012.59,1884.57
3014.04,1898.59
3015.49,1933.66
3016.95,1883.73
3018.4,1877.5
3019.86,1916.87
3021.31,1886.88
3022.76,1878.78
3024.22,1902.36
3025.67,1865.74
3027.13,1927.23
3028.58,1955.19
3030.04,1901.82
3031.49,1883.9
3032.94,1883.87
3034.4,1867.44
3035.85,1858.16
3037.31,1869.29
3038.76,1898.72
3040.22,1878.04
3041.67,1904.98
3043.12,1901.63
3044.58,1853.52
3046.03,1842.58
3047.49,1828.44
3048.94,1868.45
3050.4,1874.35
3051.85,1813.23
3053.3,1825.34
3054.76,1883.26
3056.21,1856.5
3057.67,1880.9
3059.12,1887.22
3060.57,1920.02
3062.03,1852.96
3063.48,1889.27
3064.94,1857.66
3066.39,1869.34
3067.85,1867.42
3069.3,1899.85
3070.75,1902.31
3072.21,1879.96
3073.66,1831.71
3075.12,1800.37
3076.57,1843.32
3078.03,1907.87
3079.48,1895.02
3080.93,1908.18
3082.39,1881.48
3083.84,1915.88
3085.3,1941.29
3086.75,1946.77
3088.2,1964.06
3089.66,1958.52
3091.11,1960.71
3092.57,1915.98
3094.02,1893.21
3095.48,2002.46
3096.93,1975.71
3098.38,2000.61
3099.84,1985.16
3101.29,2049.24
3102.75,2073.64
3104.2,2057.82
3105.66,2059.37
3107.11,2168.44
3108.56,2101.79
3110.02,2173.29
3111.47,2136.28
3112.93,2102.83
3114.38,2117.21
3115.83,2270.43
3117.29,2249.74
3118.74,2244.2
3120.2,2245.34
3121.65,2322.23
3123.11,2395.76
3124.56,2395.44
3126.01,2435.11
3127.47,2435.91
3128.92,2401.03
3130.38,2479.44
3131.83,2486.31
3133.29,2467.97
3134.74,2497.15
3136.19,2553.91
3137.65,2521.75
3139.1,2541.82
3140.56,2579.57
3142.01,2545.91
3143.47,2602.26
3144.92,2614.09
3146.37,2632.64
3147.83,2577.07
3149.28,2637.33
3150.74,2623.32
3152.19,2619.55
3153.64,2630.4
3155.1,2701.24
3156.55,2676.19
3158.01,2569.05
3159.46,2588.17
3160.92,2663.44
3162.37,2684.86
3163.82,2664.85
3165.28,2717.73
3166.73,2681.87
3168.19,2656.69
3169.64,2632.71
3171.1,2719.15
3172.55,2712.65
3174,2710.62
3175.46,2676.89
3176.91,2678.23
3178.37,2730.01
3179.82,2764.43
3181.27,2808.16
3182.73,2829.39
3184.18,2878.94
3185.64,2799.67
3187.09,2852.76
3188.55,2919.83
3190,2844.03
3191.45,2971.72
3192.91,2965.63
3194.36,2964.4
3195.82,3016.24
3197.27,2989.61
3198.73,2990.83
3200.18,3018
3201.63,3142.84
3203.09,3123.01
3204.54,3061.49
3206,3101.15
3207.45,3077.21
3208.9,3130.52
3210.36,3077.97
3211.81,3063.18
3213.27,3087.85
3214.72,3044.81
3216.18,3029.7
3217.63,3017.01
3219.08,2937.54
3220.54,2875.98
3221.99,2844.71
3223.45,2806.59
3224.9,2758.6
3226.36,2683.51
3227.81,2674.82
3229.26,2614.38
3230.72,2515.63
3232.17,2491.22
3233.63,2367.81
3235.08,2343.73
3236.53,2298.17
3237.99,2251
3239.44,2260.62
3240.9,2172.57
3242.35,2084.76
3243.81,2116.48
3245.26,2026.42
3246.71,2036.42
3248.17,1901.49
3249.62,1897.03
3251.08,1881.12
3252.53,1873.84
3253.99,1852.7
3255.44,1829.07
3256.89,1777.08
3258.35,1761.68
3259.8,1730.12
3261.26,1702.65
3262.71,1666.24
3264.17,1698.93
3265.62,1680.46
3267.07,1666.21
3268.53,1661.72
3269.98,1632.27
3271.44,1604.72
3272.89,1615.18
3274.34,1622.3
3275.8,1648.46
3277.25,1616.19
3278.71,1606
3280.16,1556.57
3281.62,1535.14
3283.07,1557.85
3284.52,1552.58
3285.98,1604.17
3287.43,1599.86
3288.89,1519.09
3290.34,1490.21
3291.8,1515.14
3293.25,1500.87
3294.7,1522.63
3296.16,1527.54
3297.61,1548.26
3299.07,1536.87
3300.52,1470.14
3301.97,1505.64
3303.43,1496.66
3304.88,1495.24
3306.34,1511.67
3307.79,1524.97
3309.25,1550.08
3310.7,1545.7
3312.15,1517.14
3313.61,1533.36
3315.06,1505.52
3316.52,1519.23
3317.97,1513.2
3319.43,1488.35
3320.88,1490.92
3322.33,1473.18
3323.79,1523.68
3325.24,1509.33
3326.7,1509.74
3328.15,1484.57
3329.6,1480.81
3331.06,1485.7
3332.51,1478.47
3333.97,1479.57
3335.42,1423.68
3336.88,1473.35
3338.33,1485.21
3339.78,1473.89
3341.24,1462.01
3342.69,1477.48
3344.15,1491.59
3345.6,1481.29
3347.06,1480.58
3348.51,1475.21
3349.96,1496.19
3351.42,1468.37
3352.87,1468.28
3354.33,1473.91
3355.78,1484.84
3357.24,1481.18
3358.69,1436.47
3360.14,1448.92
3361.6,1456.41
3363.05,1443.85
3364.51,1470.04
3365.96,1488.9
3367.41,1489.98
3368.87,1462.56
3370.32,1437.49
3371.78,1455.69
3373.23,1449.8
3374.69,1414.97
3376.14,1459.97
3377.59,1463
3379.05,1391
3380.5,1429.8
3381.96,1462.55
3383.41,1449.9
3384.87,1442.39
3386.32,1422.33
3387.77,1424.14
3389.23,1421.31
3390.68,1445.33
3392.14,1437
3393.59,1439.93
3395.04,1474.92
3396.5,1477.77
3397.95,1429.64
3399.41,1409.24
3400.86,1440.43
3402.32,1426.16
3403.77,1443.54
3405.22,1398.88
3406.68,1450.92
3408.13,1434.53
3409.59,1477.75
3411.04,1458.85
3412.5,1459.79
3413.95,1471.19
3415.4,1406.87
3416.86,1450.94
3418.31,1415.92
3419.77,1421.57
3421.22,1420.18
3422.68,1426.63
3424.13,1452.32
3425.58,1427.64
3427.04,1480.65
3428.49,1444.71
3429.95,1390.19
3431.4,1399.47
3432.85,1426.51
3434.31,1381.44
3435.76,1431.8
3437.22,1413.5
3438.67,1375.54
3440.13,1428.44
3441.58,1401.7
3443.03,1425.06
3444.49,1388.11
3445.94,1411.44
3447.4,1376.95
3448.85,1413.31
3450.31,1410.22
3451.76,1450.44
3453.21,1358.78
3454.67,1401.47
3456.12,1412.85
3457.58,1373.62
3459.03,1437.78
3460.48,1412.24
3461.94,1428.88
3463.39,1383.35
3464.85,1424.3
3466.3,1413.4
3467.76,1383.14
3469.21,1384.83
3470.66,1364.07
3472.12,1346.14
3473.57,1369.89
3475.03,1386.55
3476.48,1403.8
3477.94,1425.37
3479.39,1415.49
3480.84,1420.63
3482.3,1425.2
3483.75,1369.6
3485.21,1415.73
3486.66,1361.83
3488.11,1417.15
3489.57,1446.15
3491.02,1415.77
3492.48,1394.41
3493.93,1419.48
3495.39,1452.95
3496.84,1446.12
3498.29,1416.73
3499.75,1402.21
3501.2,1382.4
3502.66,1387.7
3504.11,1394.63
3505.57,1370.11
3507.02,1451.54
3508.47,1386.76
3509.93,1455.54
3511.38,1381.64
3512.84,1409.46
3514.29,1384.06
3515.75,1363.01
3517.2,1369.21
3518.65,1444.6
3520.11,1414.81
3521.56,1362.26
3523.02,1426.99
3524.47,1419.03
3525.92,1388.31
3527.38,1384.62
3528.83,1368.26
3530.29,1396.68
3531.74,1397.61
3533.2,1411.97
3534.65,1383.76
3536.1,1366.95
3537.56,1418.37
3539.01,1405.72
3540.47,1414.17
3541.92,1401.32
3543.38,1382.13
3544.83,1373.74
3546.28,1389.39
3547.74,1366.07
3549.19,1381.98
3550.65,1394.47
3552.1,1379.74
3553.55,1397.12
3555.01,1423.69
3556.46,1385.69
3557.92,1393.33
3559.37,1402.05
3560.83,1357.66
3562.28,1367.38
3563.73,1383.66
3565.19,1358.91
3566.64,1330.09
3568.1,1371.82
3569.55,1405.1
3571.01,1385.85
3572.46,1404.93
3573.91,1386.29
3575.37,1396.53
3576.82,1377.16
3578.28,1350.39
3579.73,1383.98
3581.18,1391.89
3582.64,1391.3
3584.09,1370.49
3585.55,1376.64
3587,1409.26
3588.46,1394.33
3589.91,1402.07
3591.36,1408.28
3592.82,1373.16
3594.27,1395.09
3595.73,1369.72
3597.18,1374.51
3598.64,1373.71
3600.09,1394.26
3601.54,1351.08
3603,1373.61
3604.45,1393.15
3605.91,1351.41
3607.36,1399.71
3608.82,1322.96
3610.27,1369.43
3611.72,1393.24
3613.18,1355.83
3614.63,1337.4
3616.09,1381.12
3617.54,1355.83
3618.99,1351.49
3620.45,1433.79
3621.9,1384.57
3623.36,1371.56
3624.81,1347.65
3626.27,1354.41
3627.72,1406.22
3629.17,1388.43
3630.63,1365.56
3632.08,1353.04
3633.54,1338.29
3634.99,1385.81
3636.45,1372.33
3637.9,1415.77
3639.35,1410
3640.81,1402.61
3642.26,1371.43
3643.72,1365.42
3645.17,1411.56
3646.62,1366.43
3648.08,1352
3649.53,1352
3650.99,1396.9
3652.44,1428.81
3653.9,1401.84
3655.35,1366.76
3656.8,1416.6
3658.26,1415.52
3659.71,1358.2
3661.17,1404.87
3662.62,1410.09
3664.08,1357.04
3665.53,1372.53
3666.98,1426.04
3668.44,1394.41
3669.89,1386.08
3671.35,1403.13
3672.8,1403.52
3674.25,1371.22
3675.71,1347.98
3677.16,1354.29
3678.62,1369.57
3680.07,1364.22
3681.53,1373.26
3682.98,1420.99
3684.43,1402.21
3685.89,1341.02
3687.34,1408.88
3688.8,1371.22
3690.25,1380.43
3691.71,1377.96
3693.16,1382.78
3694.61,1328.13
3696.07,1349.65
3697.52,1373.17
3698.98,1408.41
3700.43,1398.13
3701.89,1389.3
3703.34,1363.85
3704.79,1416.74
3706.25,1416.65
3707.7,1361.86
3709.16,1372.74
3710.61,1342.67
3712.06,1356.79
3713.52,1411.36
3714.97,1392.03
3716.43,1418.4
3717.88,1375.59
3719.34,1375.86
3720.79,1349.42
3722.24,1354.95
3723.7,1394.04
3725.15,1401.86
3726.61,1382.67
3728.06,1403.02
3729.52,1390.99
3730.97,1455.92
3732.42,1443.2
3733.88,1388.64
3735.33,1406.92
3736.79,1356.58
3738.24,1417.11
3739.69,1399.86
3741.15,1374.61
3742.6,1468.33
3744.06,1388.56
3745.51,1386.75
3746.97,1411.45
3748.42,1384.13
3749.87,1348.15
3751.33,1361.93
3752.78,1390.87
3754.24,1360.46
3755.69,1396.45
3757.15,1396.9
3758.6,1393.72
3760.05,1392.08
3761.51,1348.79
3762.96,1368.58
3764.42,1377.21
3765.87,1366.83
3767.32,1407.34
3768.78,1374.96
3770.23,1381.9
3771.69,1393.35
3773.14,1451.24
3774.6,1398.71
3776.05,1414
3777.5,1424.49
3778.96,1380.77
3780.41,1416.99
3781.87,1403.9
3783.32,1406.43
3784.78,1391.08
3786.23,1407.98
3787.68,1406.71
3789.14,1417.71
3790.59,1391.85
3792.05,1423.64
3793.5,1386.72
3794.96,1400.03
3796.41,1450.97
3797.86,1431.68
3799.32,1386.53
3800.77,1373.64
3802.23,1357.64
3803.68,1445.65
3805.13,1401.43
3806.59,1399.82
3808.04,1407.79
3809.5,1396.28
3810.95,1409.02
3812.41,1414.2
3813.86,1437.72
3815.31,1423.44
3816.77,1412.71
3818.22,1376.26
3819.68,1418.55
3821.13,1432.54
3822.59,1424.74
3824.04,1413.54
3825.49,1407.8
3826.95,1424.16
3828.4,1401.75
3829.86,1348.99
3831.31,1433.48
3832.76,1399.33
3834.22,1392.43
3835.67,1405.08
3837.13,1457.4
3838.58,1369.46
3840.04,1444.56
3841.49,1479.24
3842.94,1398.26
3844.4,1431.78
3845.85,1412.93
3847.31,1432.12
3848.76,1394.57
3850.22,1479.14
3851.67,1427.46
3853.12,1417.3
3854.58,1424.04
3856.03,1433.76
3857.49,1426.16
3858.94,1418.89
3860.4,1414.81
3861.85,1416.77
3863.3,1435.36
3864.76,1460.83
3866.21,1387.17
3867.67,1437.04
3869.12,1435.11
3870.57,1424.02
3872.03,1392.31
3873.48,1414.63
3874.94,1418.55
3876.39,1447.66
3877.85,1415.27
3879.3,1430.02
3880.75,1452.8
3882.21,1462.3
3883.66,1493.62
3885.12,1481.73
3886.57,1470.37
3888.03,1462.18
3889.48,1424.61
3890.93,1444.37
3892.39,1481.98
3893.84,1450.19
3895.3,1432.4
3896.75,1424.33
3898.2,1450.28
3899.66,1471.27
3901.11,1462.3
3902.57,1508.67
3904.02,1498.76
3905.48,1438.41
3906.93,1493.48
3908.38,1490.24
3909.84,1465.16
3911.29,1448.72
3912.75,1461.42
3914.2,1496.87
3915.66,1498.35
3917.11,1528.68
3918.56,1518.23
3920.02,1519.78
3921.47,1496.18
3922.93,1500.92
3924.38,1535.3
3925.83,1498.17
3927.29,1486.75
3928.74,1483.22
3930.2,1504.07
3931.65,1522.12
3933.11,1499.27
3934.56,1515.04
3936.01,1534.48
3937.47,1501.94
3938.92,1542.96
3940.38,1491.34
3941.83,1475.08
3943.29,1501.74
3944.74,1522.15
3946.19,1519.56
3947.65,1538.99
3949.1,1542.05
3950.56,1541.95
3952.01,1578.45
3953.47,1547.99
3954.92,1544.81
3956.37,1528.55
3957.83,1501.52
3959.28,1503.13
3960.74,1561.54
3962.19,1533.49
3963.64,1583.19
3965.1,1549.93
3966.55,1585.29
3968.01,1567.05
3969.46,1614.61
3970.92,1575.4
3972.37,1575.48
3973.82,1556.73
3975.28,1629.28
3976.73,1579.74
3978.19,1573.09
3979.64,1598.9
3981.1,1610.45
3982.55,1605.19
3984,1609.19
3985.46,1596.75
3986.91,1577.25
3988.37,1606.76
3989.82,1632.74
3991.27,1641.66
3992.73,1671.64
3994.18,1677.96
3995.64,1626.52
3997.09,1607.57
3998.55,1630.78
4000,1656.58
