-38.3662,34.4423
-36.912,37.4244
-35.4578,40.3242
-34.0036,38.7859
-32.5494,40.466
-31.0952,43.5391
-29.6409,44.5795
-28.1867,44.7411
-26.7325,46.5058
-25.2783,43.4801
-23.8241,49.3675
-22.3698,52.5115
-20.9156,49.7928
-19.4614,51.898
-18.0072,52.8849
-16.553,56.2477
-15.0987,65.3199
-13.6445,74.0602
-12.1903,85.0756
-10.7361,113.429
-9.28187,78.9329
-7.82765,78.9329
-6.37343,78.9329
-4.91921,78.9329
-3.46499,78.9329
-2.01077,78.9329
-0.556553,78.9329
0.897666,78.9329
2.35189,78.9329
3.8061,407.2
5.26032,141.102
6.71454,128.854
8.16876,116.877
9.62298,109.589
11.0772,104.091
12.5314,96.0639
13.9856,86.7502
15.4399,81.6224
16.8941,75.8397
18.3483,68.8416
19.8025,64.0556
21.2567,61.7104
22.711,59.2722
24.1652,56.6767
25.6194,55.6249
27.0736,54.8863
28.5278,53.9866
29.982,52.5146
31.4363,50.9622
32.8905,48.6106
34.3447,48.5864
35.7989,45.0358
37.2531,44.0276
38.7074,45.8475
40.1616,51.3819
41.6158,58.0547
43.07,63.5242
44.5242,75.661
45.9785,97.6149
47.4327,131.39
48.8869,203.961
50.3411,312.388
51.7953,434.824
53.2495,574.444
54.7038,715.701
56.158,846.216
57.6122,963.626
59.0664,1047.08
60.5206,1114.7
61.9749,1142.51
63.4291,1175.39
64.8833,1206.69
66.3375,1237.88
67.7917,1233.78
69.246,1249.7
70.7002,1253.84
72.1544,1287.32
73.6086,1317.73
75.0628,1319.66
76.5171,1315.51
77.9713,1355.95
79.4255,1406.43
80.8797,1427.95
82.3339,1404.45
83.7882,1412.08
85.2424,1383.77
86.6966,1344.41
88.1508,1314.63
89.605,1299.89
91.0592,1245.34
92.5135,1195.73
93.9677,1152.95
95.4219,1105.77
96.8761,1078.49
98.3303,1043.25
99.7846,1004.7
101.239,987.151
102.693,977.874
104.147,968.659
105.601,928.004
107.056,915.086
108.51,904.656
109.964,895.722
111.418,905.544
112.873,894.455
114.327,884.523
115.781,869.148
117.235,842.294
118.689,811.399
120.144,817.071
121.598,817.133
123.052,798.112
124.506,773.699
125.961,772.848
127.415,759.348
128.869,738.94
130.323,725.274
131.777,714.033
133.232,724.619
134.686,696.274
136.14,668.376
137.594,662.221
139.048,661.645
140.503,647.428
141.957,646.124
143.411,642.862
144.865,633.523
146.32,633.206
147.774,614.175
149.228,600.633
150.682,591.715
152.136,584.038
153.591,561.064
155.045,566.071
156.499,566.793
157.953,560.404
159.408,558.773
160.862,563.765
162.316,562.305
163.77,566.918
165.224,566.466
166.679,547.024
168.133,533.228
169.587,546.084
171.041,547.985
172.496,534.765
173.95,525.504
175.404,524.574
176.858,528.008
178.312,529.104
179.767,530.449
181.221,530.309
182.675,537.591
184.129,539.903
185.583,537.222
187.038,529.54
188.492,519.806
189.946,524.938
191.4,533.779
192.855,535.768
194.309,548.644
195.763,555.127
197.217,534.443
198.671,527.296
200.126,529.743
201.58,524.143
203.034,509.957
204.488,498.488
205.943,512.644
207.397,517.221
208.851,512.843
210.305,506.176
211.759,507.015
213.214,504.375
214.668,508.549
216.122,505.273
217.576,496.161
219.031,503.474
220.485,503.962
221.939,508.632
223.393,507.123
224.847,498.283
226.302,515.91
227.756,502.955
229.21,513.541
230.664,517.536
232.118,507.296
233.573,494.805
235.027,506.107
236.481,506.524
237.935,502.078
239.39,504.972
240.844,504.243
242.298,509.83
243.752,506.623
245.206,505.669
246.661,502.088
248.115,506.35
249.569,483.713
251.023,481.082
252.478,483.187
253.932,485.691
255.386,481.314
256.84,488.327
258.294,490.806
259.749,480.192
261.203,483.332
262.657,501.426
264.111,476.306
265.566,484.822
267.02,478.685
268.474,473.952
269.928,484.601
271.382,479.326
272.837,471.284
274.291,470.892
275.745,473.847
277.199,473.853
278.654,468.96
280.108,457.733
281.562,454.354
283.016,458.989
284.47,457.937
285.925,446.469
287.379,457.422
288.833,446.052
290.287,442.489
291.741,444.696
293.196,440.421
294.65,432.645
296.104,427.198
297.558,428.578
299.013,423.82
300.467,419.853
301.921,426.42
303.375,417.77
304.829,421.285
306.284,426.125
307.738,427.866
309.192,418.372
310.646,422.683
312.101,422.32
313.555,420.764
315.009,421.55
316.463,415
317.917,417.224
319.372,408.746
320.826,401.745
322.28,400.054
323.734,402.011
325.189,403.151
326.643,398.15
328.097,394.444
329.551,393.118
331.005,395.995
332.46,411.028
333.914,414.548
335.368,398.52
336.822,396.073
338.276,402.721
339.731,395.923
341.185,401.386
342.639,403.029
344.093,403.485
345.548,399.683
347.002,393.364
348.456,409.195
349.91,393.16
351.364,380.835
352.819,384.056
354.273,394.633
355.727,395.815
357.181,381.918
358.636,384.542
360.09,390.334
361.544,393.686
362.998,395.894
364.452,393.903
365.907,395.009
367.361,392.137
368.815,381.332
370.269,370.782
371.724,386.886
373.178,387.251
374.632,389.922
376.086,387.692
377.54,387.153
378.995,394.792
380.449,400.446
381.903,379.151
383.357,379.848
384.811,381.897
386.266,381.231
387.72,395.022
389.174,388.78
390.628,389.083
392.083,388.943
393.537,384.785
394.991,376.848
396.445,387.491
397.899,389.857
399.354,393.231
400.808,392.781
402.262,385.796
403.716,371.695
405.171,394.892
406.625,385.588
408.079,386.009
409.533,386.961
410.987,379.573
412.442,399.175
413.896,396.706
415.35,375.113
416.804,377.1
418.259,393.869
419.713,383.04
421.167,383.315
422.621,388.408
424.075,392.92
425.53,393.897
426.984,393.48
428.438,395.57
429.892,395.056
431.346,405.28
432.801,404.586
434.255,397.687
435.709,397.5
437.163,380.023
438.618,386.912
440.072,392.329
441.526,400.715
442.98,404.874
444.434,401.505
445.889,392.861
447.343,386.565
448.797,391.062
450.251,401.842
451.706,410.03
453.16,397.868
454.614,393.551
456.068,393.372
457.522,391.959
458.977,398.508
460.431,410.196
461.885,404.019
463.339,412.45
464.794,401.899
466.248,389.731
467.702,392.408
469.156,406.098
470.61,396.288
472.065,399.767
473.519,404.84
474.973,399.859
476.427,392.607
477.882,413.23
479.336,408.195
480.79,403.611
482.244,394.032
483.698,389.687
485.153,393.103
486.607,395.315
488.061,396.909
489.515,391.902
490.969,383.983
492.424,384.286
493.878,397.636
495.332,395.26
496.786,383.535
498.241,393.015
499.695,396.282
501.149,392.182
502.603,388.01
504.057,376.625
505.512,378.022
506.966,378.091
508.42,376.647
509.874,379.244
511.329,374.127
512.783,380.273
514.237,365.304
515.691,369.388
517.145,377.537
518.6,378.528
520.054,378.434
521.508,380.071
522.962,370.569
524.417,371.477
525.871,376.616
527.325,375.711
528.779,366.576
530.233,375.41
531.688,373.773
533.142,377.211
534.596,376.515
536.05,372.634
537.505,383.144
538.959,372.193
540.413,370.045
541.867,369.219
543.321,368.965
544.776,376.076
546.23,385.708
547.684,374.79
549.138,386.505
550.592,387.425
552.047,378.92
553.501,372.993
554.955,375.805
556.409,375.335
557.864,375.434
559.318,372.853
560.772,367.32
562.226,374.555
563.68,382.668
565.135,380.674
566.589,375.393
568.043,372.205
569.497,379.426
570.952,373.779
572.406,365.74
573.86,369.792
575.314,383.073
576.768,386.874
578.223,384.446
579.677,376.291
581.131,378.584
582.585,372.013
584.039,373.493
585.494,377.299
586.948,373.891
588.402,376.165
589.856,386.045
591.311,370.262
592.765,376.518
594.219,361.862
595.673,360.756
597.127,376.443
598.582,380.669
600.036,363.641
601.49,375.907
602.944,376.719
604.399,379.425
605.853,382.302
607.307,375.625
608.761,363.181
610.215,381.771
611.67,396.935
613.124,394.393
614.578,385.888
616.032,381.748
617.487,366.57
618.941,383.141
620.395,385.517
621.849,383.59
623.303,380.235
624.758,386.83
626.212,388.648
627.666,377.642
629.12,383.512
630.575,384.347
632.029,388.278
633.483,391.622
634.937,385.488
636.391,386.75
637.846,372.105
639.3,378.045
640.754,380.553
642.208,387.838
643.662,386.124
645.117,368.782
646.571,382.425
648.025,385.137
649.479,382.738
650.934,383.641
652.388,385.792
653.842,384.824
655.296,402.414
656.75,397.559
658.205,384.406
659.659,382.746
661.113,392.262
662.567,387.366
664.022,384.312
665.476,392.404
666.93,393.439
668.384,388.955
669.838,381.22
671.293,386.802
672.747,390.919
674.201,402.418
675.655,389.861
677.109,394.885
678.564,402.594
680.018,398.933
681.472,405.256
682.926,401.931
684.381,399.029
685.835,395.146
687.289,393.476
688.743,395.926
690.198,392.551
691.652,396.134
693.106,400.601
694.56,393.884
696.014,399.055
697.469,401.375
698.923,401.251
700.377,397.536
701.831,406.975
703.285,400.637
704.74,389.784
706.194,396.974
707.648,401.624
709.102,401.655
710.557,403.767
712.011,405.783
713.465,405.289
714.919,403.991
716.373,401.292
717.828,403.605
719.282,415.23
720.736,412.983
722.19,404.708
723.645,402.406
725.099,403.199
726.553,406.72
728.007,409.601
729.461,400.187
730.916,394.127
732.37,403.421
733.824,408.62
735.278,408.14
736.732,406.335
738.187,400.48
739.641,398.91
741.095,403.475
742.549,409.576
744.004,414.789
745.458,410.591
746.912,411.002
748.366,403.233
749.82,400.685
751.275,399.892
752.729,404.784
754.183,408.703
755.637,404.234
757.092,407.445
758.546,401.119
760,408.766
761.454,415.329
762.908,421.331
764.363,421.887
765.817,415.466
767.271,412.819
768.725,415.401
770.18,416.89
771.634,415.199
773.088,410.95
774.542,414.229
775.996,405.347
777.451,399.417
778.905,420.497
780.359,407.264
781.813,408.368
783.268,416.048
784.722,418.149
786.176,414.507
787.63,418.234
789.084,422.364
790.539,415.398
791.993,403.949
793.447,410.73
794.901,414.414
796.355,423.12
797.81,427.514
799.264,424.031
800.718,417.892
802.172,415.881
803.627,417.642
805.081,423.202
806.535,424.203
807.989,428.147
809.443,420.759
810.898,430.05
812.352,429.079
813.806,434.374
815.26,432.382
816.715,423.473
818.169,419.269
819.623,427.073
821.077,427.939
822.531,436.62
823.986,434.743
825.44,434.577
826.894,432.395
828.348,435.999
829.802,430.81
831.257,448.816
832.711,434.748
834.165,442.732
835.619,443.329
837.074,435.532
838.528,431.565
839.982,428.276
841.436,431.22
842.891,442.368
844.345,442.217
845.799,442.484
847.253,445.394
848.707,447.74
850.162,443.1
851.616,455.231
853.07,462.921
854.524,452.96
855.978,445.661
857.433,459.194
858.887,464.473
860.341,464.085
861.795,461.401
863.25,454.494
864.704,447.457
866.158,448.097
867.612,459.052
869.066,461.545
870.521,442.721
871.975,436.64
873.429,438.04
874.883,437.533
876.338,438.822
877.792,446.666
879.246,451.466
880.7,443.835
882.154,447.722
883.609,443.592
885.063,451.467
886.517,456.337
887.971,447.998
889.425,444.104
890.88,445.795
892.334,445.475
893.788,454.718
895.242,453.53
896.697,449.795
898.151,448.105
899.605,448.355
901.059,453.137
902.513,449.988
903.968,448.538
905.422,457.186
906.876,444.415
908.33,459.183
909.785,467.6
911.239,461.918
912.693,453.785
914.147,461.636
915.601,455.968
917.056,472.123
918.51,467.633
919.964,461.654
921.418,464.088
922.873,469.272
924.327,472.621
925.781,460.778
927.235,463.067
928.689,472.754
930.144,466.674
931.598,463.421
933.052,472.769
934.506,483.305
935.961,475.639
937.415,468.55
938.869,471.042
940.323,475.024
941.777,465.253
943.232,461.182
944.686,465.782
946.14,465.465
947.594,465.952
949.048,460.623
950.503,480.628
951.957,478.271
953.411,460.336
954.865,452.205
956.32,463.161
957.774,475.404
959.228,474.429
960.682,475.76
962.136,461.586
963.591,479.794
965.045,468.389
966.499,464.882
967.953,471.926
969.408,474.87
970.862,481.791
972.316,490.915
973.77,488.221
975.224,474.963
976.679,470.371
978.133,482.304
979.587,481.775
981.041,484.186
982.495,488.816
983.95,476.544
985.404,489.072
986.858,490.322
988.312,488.588
989.767,501.969
991.221,493.491
992.675,484.174
994.129,486.945
995.583,488.737
997.038,503.842
998.492,502.162
999.946,487.825
1001.4,494.177
1002.85,497.621
1004.31,495.358
1005.76,502.404
1007.22,503.333
1008.67,527.068
1010.13,512.711
1011.58,522.206
1013.03,523.364
1014.49,516.704
1015.94,514.37
1017.4,513.122
1018.85,523.598
1020.31,518.901
1021.76,515.794
1023.21,535.57
1024.67,541.269
1026.12,541.471
1027.58,538.573
1029.03,532.464
1030.48,542.796
1031.94,558.939
1033.39,541.549
1034.85,542.032
1036.3,558.83
1037.76,558.316
1039.21,559.796
1040.66,567.214
1042.12,571.395
1043.57,572.839
1045.03,568.632
1046.48,563.063
1047.94,577.716
1049.39,578.506
1050.84,580.999
1052.3,588.676
1053.75,590.032
1055.21,599.979
1056.66,590.089
1058.11,602.82
1059.57,602.908
1061.02,606.087
1062.48,603.511
1063.93,621.659
1065.39,630.895
1066.84,631.264
1068.29,644.95
1069.75,643.309
1071.2,634.588
1072.66,645.08
1074.11,650.778
1075.57,663.52
1077.02,664.237
1078.47,665.914
1079.93,678.406
1081.38,678.043
1082.84,669.846
1084.29,683.013
1085.75,675.991
1087.2,679.284
1088.65,676.708
1090.11,663.79
1091.56,669.031
1093.02,698.908
1094.47,678.978
1095.92,672.817
1097.38,672.506
1098.83,671.898
1100.29,672.386
1101.74,670.402
1103.2,670.163
1104.65,660.138
1106.1,654.793
1107.56,665.312
1109.01,671.856
1110.47,655.573
1111.92,669.067
1113.38,662.917
1114.83,658.393
1116.28,658.383
1117.74,645.641
1119.19,658.814
1120.65,663.888
1122.1,635.471
1123.55,635.845
1125.01,650.69
1126.46,647.958
1127.92,646.742
1129.37,641.932
1130.83,626.823
1132.28,636.421
1133.73,639.663
1135.19,657.25
1136.64,647.703
1138.1,638.863
1139.55,654.482
1141.01,655.676
1142.46,647.76
1143.91,655.391
1145.37,653.63
1146.82,645.444
1148.28,642.436
1149.73,649.724
1151.18,626.937
1152.64,638.042
1154.09,645.293
1155.55,644.665
1157,650.383
1158.46,657.744
1159.91,641.512
1161.36,651.054
1162.82,664.143
1164.27,661.67
1165.73,658.71
1167.18,654.175
1168.64,655.744
1170.09,649.713
1171.54,644.94
1173,661.499
1174.45,650.108
1175.91,646.779
1177.36,667.119
1178.82,653.053
1180.27,665.208
1181.72,672.791
1183.18,668.07
1184.63,665.966
1186.09,668.418
1187.54,661.198
1188.99,674.625
1190.45,672.08
1191.9,659.079
1193.36,675.243
1194.81,686.753
1196.27,684.421
1197.72,677.622
1199.17,683.98
1200.63,688.774
1202.08,676.838
1203.54,702.258
1204.99,684.089
1206.45,697.412
1207.9,706.071
1209.35,699.957
1210.81,703.967
1212.26,707.463
1213.72,689.366
1215.17,683.969
1216.62,706.585
1218.08,700.606
1219.53,702.866
1220.99,699.682
1222.44,707.832
1223.9,712.506
1225.35,711.717
1226.8,717.321
1228.26,733.133
1229.71,744.181
1231.17,743.708
1232.62,717.711
1234.08,726.198
1235.53,730.577
1236.98,740.628
1238.44,729.486
1239.89,733.304
1241.35,746.814
1242.8,737.023
1244.25,745.817
1245.71,762.942
1247.16,767.955
1248.62,772.307
1250.07,793.697
1251.53,784.046
1252.98,784.877
1254.43,795.318
1255.89,801.971
1257.34,805.161
1258.8,805.618
1260.25,816.536
1261.71,835.417
1263.16,814.484
1264.61,844.258
1266.07,853.436
1267.52,854.173
1268.98,860.812
1270.43,874.27
1271.89,886.887
1273.34,909.959
1274.79,911.767
1276.25,900.407
1277.7,932.409
1279.16,946.028
1280.61,963.719
1282.06,975.593
1283.52,1001.7
1284.97,1015.69
1286.43,1029.07
1287.88,1067.73
1289.34,1104.55
1290.79,1115.6
1292.24,1122.68
1293.7,1161.18
1295.15,1181.59
1296.61,1231.67
1298.06,1248.37
1299.52,1284.54
1300.97,1354
1302.42,1399.56
1303.88,1428.97
1305.33,1499.21
1306.79,1551.13
1308.24,1595.19
1309.69,1661.84
1311.15,1748.46
1312.6,1818.61
1314.06,1898.42
1315.51,1968.49
1316.97,2066.78
1318.42,2155.95
1319.87,2205.65
1321.33,2326.42
1322.78,2427.97
1324.24,2536.56
1325.69,2588.71
1327.15,2659.81
1328.6,2734.09
1330.05,2772.69
1331.51,2789.09
1332.96,2822.17
1334.42,2826.67
1335.87,2797.42
1337.32,2784.68
1338.78,2726.75
1340.23,2687.34
1341.69,2617.61
1343.14,2531.07
1344.6,2445.65
1346.05,2371.88
1347.5,2285.82
1348.96,2199.02
1350.41,2110.64
1351.87,2013.86
1353.32,1916.8
1354.78,1847.99
1356.23,1771.59
1357.68,1692.54
1359.14,1640.79
1360.59,1557.07
1362.05,1496.1
1363.5,1448.86
1364.96,1406.39
1366.41,1353.73
1367.86,1313.77
1369.32,1291.84
1370.77,1256.22
1372.23,1221.22
1373.68,1210.92
1375.13,1158.05
1376.59,1156.25
1378.04,1106.63
1379.5,1087.8
1380.95,1065.07
1382.41,1057.43
1383.86,1054.15
1385.31,1033.98
1386.77,1017.07
1388.22,1004.85
1389.68,993.711
1391.13,990.579
1392.59,1004.18
1394.04,963.922
1395.49,978.616
1396.95,974.264
1398.4,964.182
1399.86,965.953
1401.31,945.005
1402.76,930.736
1404.22,940.257
1405.67,938.59
1407.13,929.479
1408.58,924.965
1410.04,922.856
1411.49,920.353
1412.94,912.878
1414.4,930.809
1415.85,926.877
1417.31,915.029
1418.76,926.991
1420.22,936.554
1421.67,920.571
1423.12,904.417
1424.58,913.658
1426.03,922.316
1427.49,929.604
1428.94,938.933
1430.4,925.744
1431.85,910.229
1433.3,924.316
1434.76,932.861
1436.21,922
1437.67,940.101
1439.12,947.628
1440.57,935.946
1442.03,936.855
1443.48,952.884
1444.94,947.015
1446.39,959.528
1447.85,953.128
1449.3,942.397
1450.75,975.526
1452.21,992.526
1453.66,984.979
1455.12,973.656
1456.57,977.287
1458.03,991.872
1459.48,997.264
1460.93,999.513
1462.39,1013.94
1463.84,1010.39
1465.3,1012.35
1466.75,1005.35
1468.2,1044.69
1469.66,1032.6
1471.11,1045.91
1472.57,1060.17
1474.02,1076.38
1475.48,1075.69
1476.93,1092.89
1478.38,1114.21
1479.84,1115.82
1481.29,1120.77
1482.75,1149.68
1484.2,1164.5
1485.66,1152.03
1487.11,1200.04
1488.56,1214.66
1490.02,1232.29
1491.47,1235.67
1492.93,1234.41
1494.38,1228.11
1495.83,1280.53
1497.29,1314.3
1498.74,1348.17
1500.2,1388.41
1501.65,1411.38
1503.11,1435.05
1504.56,1440.97
1506.01,1452.42
1507.47,1523.89
1508.92,1565.54
1510.38,1604.79
1511.83,1654.36
1513.29,1705.59
1514.74,1751.85
1516.19,1812.85
1517.65,1886.92
1519.1,1979.54
1520.56,2080.31
1522.01,2163.11
1523.46,2279.08
1524.92,2408.82
1526.37,2533.06
1527.83,2698.48
1529.28,2889.31
1530.74,2984.62
1532.19,3219.81
1533.64,3478.1
1535.1,3737.05
1536.55,4029.5
1538.01,4399.22
1539.46,4780.66
1540.92,5184
1542.37,5611.78
1543.82,6081.86
1545.28,6607.3
1546.73,7129.22
1548.19,7728.27
1549.64,8253.97
1551.1,8881.18
1552.55,9477.37
1554,10118.6
1555.46,10715.4
1556.91,11306.7
1558.37,11910.8
1559.82,12471.7
1561.27,12973.1
1562.73,13377.8
1564.18,13691.3
1565.64,13813.3
1567.09,13831.1
1568.55,13864.5
1570,13645.7
1571.45,13298.6
1572.91,12895
1574.36,12321.1
1575.82,11582.8
1577.27,10908
1578.73,10249.2
1580.18,9455.71
1581.63,8714.29
1583.09,7991.72
1584.54,7364.93
1586,6803.23
1587.45,6224.33
1588.9,5731.4
1590.36,5314.36
1591.81,4949.97
1593.27,4571.7
1594.72,4324.39
1596.18,4024.66
1597.63,3841.14
1599.08,3656.45
1600.54,3438.22
1601.99,3264.97
1603.45,3141.17
1604.9,2965.66
1606.36,2852.1
1607.81,2746.52
1609.26,2631.6
1610.72,2504.99
1612.17,2359.82
1613.63,2248.88
1615.08,2132.01
1616.54,2033.32
1617.99,1941.85
1619.44,1844.41
1620.9,1783.54
1622.35,1690.9
1623.81,1625.55
1625.26,1558.03
1626.71,1517.75
1628.17,1468.16
1629.62,1411.62
1631.08,1382.46
1632.53,1356.32
1633.99,1317
1635.44,1282.64
1636.89,1249.89
1638.35,1215.95
1639.8,1187.45
1641.26,1163.54
1642.71,1148.73
1644.17,1125.2
1645.62,1126.93
1647.07,1059.44
1648.53,1076.83
1649.98,1057.57
1651.44,1019.76
1652.89,1036.5
1654.34,1008.46
1655.8,1009.08
1657.25,984.564
1658.71,954.811
1660.16,946.36
1661.62,948.776
1663.07,930.014
1664.52,922.285
1665.98,923.246
1667.43,919.927
1668.89,900.516
1670.34,897.223
1671.8,897.732
1673.25,886.648
1674.7,888.019
1676.16,857.243
1677.61,889.93
1679.07,903.929
1680.52,854.34
1681.97,852.984
1683.43,837.121
1684.88,835.173
1686.34,848.372
1687.79,844.528
1689.25,824.634
1690.7,813.492
1692.15,814.578
1693.61,818.354
1695.06,815.44
1696.52,806.922
1697.97,800.74
1699.43,807.083
1700.88,788.913
1702.33,789.843
1703.79,783.844
1705.24,776.515
1706.7,800.257
1708.15,768.375
1709.6,752.154
1711.06,767.321
1712.51,755.566
1713.97,771.398
1715.42,775.216
1716.88,755.92
1718.33,768.568
1719.78,760.677
1721.24,758.75
1722.69,765.612
1724.15,756.231
1725.6,748.139
1727.06,743.77
1728.51,750.305
1729.96,753.317
1731.42,745.697
1732.87,756.917
1734.33,748.3
1735.78,750.523
1737.24,741.864
1738.69,747.167
1740.14,745.505
1741.6,743.936
1743.05,749.692
1744.51,750.544
1745.96,747.131
1747.41,739.122
1748.87,740.534
1750.32,727.185
1751.78,719.633
1753.23,722.926
1754.69,731.839
1756.14,734.078
1757.59,713.846
1759.05,715.883
1760.5,714.413
1761.96,715.337
1763.41,717.903
1764.87,694.965
1766.32,701.089
1767.77,718.703
1769.23,711.805
1770.68,710.314
1772.14,715.192
1773.59,696.602
1775.04,697.308
1776.5,710.371
1777.95,700.601
1779.41,681.533
1780.86,702.949
1782.32,701.765
1783.77,699.282
1785.22,686.083
1786.68,673.503
1788.13,685.117
1789.59,677.877
1791.04,687.049
1792.5,690.062
1793.95,687.044
1795.4,692.997
1796.86,686.011
1798.31,691.293
1799.77,685.668
1801.22,685.128
1802.68,673.42
1804.13,669.171
1805.58,677.113
1807.04,684.255
1808.49,675.981
1809.95,673.493
1811.4,671.898
1812.85,668.828
1814.31,662.543
1815.76,669.296
1817.22,667.187
1818.67,672.293
1820.13,659.837
1821.58,672.859
1823.03,668.433
1824.49,662.528
1825.94,667.504
1827.4,672.558
1828.85,652.565
1830.31,652.357
1831.76,665.457
1833.21,682.463
1834.67,671.498
1836.12,662.605
1837.58,677.648
1839.03,673.809
1840.48,671.882
1841.94,682.042
1843.39,678.791
1844.85,688.956
1846.3,687.849
1847.76,691.932
1849.21,695.864
1850.66,681.263
1852.12,675.43
1853.57,682.105
1855.03,688.556
1856.48,715.737
1857.94,702.778
1859.39,707.042
1860.84,702.871
1862.3,706.59
1863.75,687.766
1865.21,711.379
1866.66,704.154
1868.11,710.195
1869.57,693.859
1871.02,690.685
1872.48,683.647
1873.93,690.093
1875.39,698.456
1876.84,687.049
1878.29,702.855
1879.75,691.631
1881.2,693.553
1882.66,705.691
1884.11,690.254
1885.57,683.917
1887.02,686.473
1888.47,674.968
1889.93,672.558
1891.38,666.756
1892.84,670.599
1894.29,677.051
1895.75,669.799
1897.2,659.51
1898.65,665.478
1900.11,655.271
1901.56,666.678
1903.02,646.145
1904.47,652.934
1905.92,646.233
1907.38,664.449
1908.83,643.558
1910.29,657.38
1911.74,643.839
1913.2,636.676
1914.65,663.722
1916.1,647.558
1917.56,646.316
1919.01,627.659
1920.47,657.453
1921.92,633.32
1923.38,628.209
1924.83,658.512
1926.28,631.487
1927.74,632.058
1929.19,635.216
1930.65,648.062
1932.1,642.094
1933.55,641.881
1935.01,645.433
1936.46,631.165
1937.92,649.459
1939.37,667.306
1940.83,645.88
1942.28,649.423
1943.73,650.872
1945.19,638.12
1946.64,635.58
1948.1,653.038
1949.55,647.74
1951.01,641.803
1952.46,637.434
1953.91,635.149
1955.37,642.841
1956.82,655.853
1958.28,665.551
1959.73,660.32
1961.18,648.597
1962.64,657.068
1964.09,666.21
1965.55,663.25
1967,658.315
1968.46,663.031
1969.91,665.12
1971.36,675.004
1972.82,672.194
1974.27,664.543
1975.73,648.825
1977.18,671.004
1978.64,672.137
1980.09,678.531
1981.54,667.187
1983,661.697
1984.45,665.26
1985.91,680.198
1987.36,661.494
1988.82,661.115
1990.27,675.773
1991.72,678.157
1993.18,675.383
1994.63,686.509
1996.09,682.499
1997.54,689.979
1998.99,657.313
2000.45,674.344
2001.9,677.139
2003.36,663.457
2004.81,662.419
2006.27,674.215
2007.72,681.788
2009.17,693.953
2010.63,668.885
2012.08,669.748
2013.54,684.26
2014.99,671.851
2016.45,639.621
2017.9,658.268
2019.35,667.691
2020.81,666.735
2022.26,656.975
2023.72,656.191
2025.17,649.137
2026.62,647.693
2028.08,674.724
2029.53,669.368
2030.99,656.45
2032.44,646.244
2033.9,652.243
2035.35,657.302
2036.8,643.408
2038.26,638.837
2039.71,639.896
2041.17,642.104
2042.62,647.402
2044.08,632.983
2045.53,636.697
2046.98,634.661
2048.44,646.213
2049.89,644.654
2051.35,627.108
2052.8,632.131
2054.25,634.505
2055.71,648.28
2057.16,636.775
2058.62,617.094
2060.07,611.411
2061.53,623.311
2062.98,631.57
2064.43,634.853
2065.89,625.981
2067.34,612.455
2068.8,600.929
2070.25,609.957
2071.71,617.343
2073.16,618.891
2074.61,613.26
2076.07,604.222
2077.52,611.001
2078.98,622.465
2080.43,610.84
2081.89,610.918
2083.34,607.604
2084.79,597.06
2086.25,597.595
2087.7,604.659
2089.16,608.466
2090.61,609.65
2092.06,612.383
2093.52,620.283
2094.97,613.764
2096.43,606.435
2097.88,618.398
2099.34,622.724
2100.79,615.442
2102.24,600.566
2103.7,612.834
2105.15,658.601
2106.61,672.999
2108.06,625.088
2109.52,619.021
2110.97,616.683
2112.42,616.574
2113.88,616.979
2115.33,613.956
2116.79,610.279
2118.24,609.578
2119.69,616.382
2121.15,619.758
2122.6,612.403
2124.06,619.519
2125.51,622.87
2126.97,622.169
2128.42,618.73
2129.87,621.639
2131.33,626.163
2132.78,625.514
2134.24,622.563
2135.69,622.776
2137.15,620.081
2138.6,617.764
2140.05,620.278
2141.51,620.195
2142.96,630.007
2144.42,625.924
2145.87,623.545
2147.32,630.76
2148.78,635.112
2150.23,626.303
2151.69,626.682
2153.14,626.35
2154.6,629.113
2156.05,630.251
2157.5,622.21
2158.96,623.831
2160.41,630.625
2161.87,643.61
2163.32,640.566
2164.78,636.333
2166.23,634.983
2167.68,643.434
2169.14,636.027
2170.59,648.529
2172.05,644.161
2173.5,647.018
2174.96,640.54
2176.41,645.828
2177.86,658.341
2179.32,656.294
2180.77,660.33
2182.23,645.703
2183.68,646.914
2185.13,642.681
2186.59,651.672
2188.04,654.731
2189.5,649.521
2190.95,656.31
2192.41,663.837
2193.86,650.487
2195.31,657.214
2196.77,658.554
2198.22,643.657
2199.68,650.638
2201.13,658.549
2202.59,650.929
2204.04,665.779
2205.49,644.187
2206.95,655.354
2208.4,660.497
2209.86,651.988
2211.31,661.203
2212.76,662.974
2214.22,650.768
2215.67,654.3
2217.13,649.802
2218.58,653.432
2220.04,648.212
2221.49,685.471
2222.94,649.776
2224.4,638.961
2225.85,665.068
2227.31,663.411
2228.76,661.452
2230.22,654.149
2231.67,653.651
2233.12,670.792
2234.58,651.183
2236.03,652.872
2237.49,666.174
2238.94,661.442
2240.4,655.375
2241.85,666.917
2243.3,679.762
2244.76,672.558
2246.21,666.646
2247.67,661.832
2249.12,664.647
2250.57,655.77
2252.03,662.096
2253.48,675.903
2254.94,672.552
2256.39,652.051
2257.85,658.211
2259.3,670.823
2260.75,665.426
2262.21,666.834
2263.66,671.83
2265.12,682.842
2266.57,672.199
2268.03,672.017
2269.48,672.895
2270.93,676.079
2272.39,686.514
2273.84,658.653
2275.3,669.836
2276.75,679.757
2278.2,686.992
2279.66,689.938
2281.11,673.394
2282.57,681.081
2284.02,692.701
2285.48,692.742
2286.93,690.555
2288.38,663.935
2289.84,707.541
2291.29,690.852
2292.75,697.895
2294.2,693.719
2295.66,704.06
2297.11,712.969
2298.56,713.374
2300.02,707.193
2301.47,699.11
2302.93,695.636
2304.38,704.985
2305.83,709.494
2307.29,701.879
2308.74,713.8
2310.2,705.156
2311.65,710.231
2313.11,720.828
2314.56,711.509
2316.01,716.812
2317.47,710.096
2318.92,718.63
2320.38,736.27
2321.83,740.477
2323.29,733.751
2324.74,733.616
2326.19,736.753
2327.65,728.998
2329.1,718.771
2330.56,735.984
2332.01,754.096
2333.47,729.58
2334.92,752.278
2336.37,745.292
2337.83,756.247
2339.28,763.041
2340.74,748.097
2342.19,751.411
2343.64,775.637
2345.1,763.311
2346.55,766.931
2348.01,776.873
2349.46,759.53
2350.92,778.405
2352.37,771.097
2353.82,781.366
2355.28,785.028
2356.73,772.411
2358.19,784.171
2359.64,793.463
2361.1,800.927
2362.55,804.792
2364,820.556
2365.46,814.874
2366.91,801.13
2368.37,810.397
2369.82,820.785
2371.27,826.416
2372.73,836.414
2374.18,831.07
2375.64,843.032
2377.09,860.375
2378.55,859.066
2380,861.087
2381.45,860.895
2382.91,868.312
2384.36,881.251
2385.82,909.383
2387.27,926.113
2388.73,893.831
2390.18,931.915
2391.63,947.233
2393.09,958.504
2394.54,946.251
2396,944.849
2397.45,971.625
2398.9,1001.4
2400.36,1012.89
2401.81,1031.28
2403.27,1051.22
2404.72,1059.69
2406.18,1072
2407.63,1088.48
2409.08,1112.14
2410.54,1120.95
2411.99,1119.86
2413.45,1157.42
2414.9,1161.3
2416.36,1154.44
2417.81,1171.17
2419.26,1181.14
2420.72,1174.68
2422.17,1222.03
2423.63,1225.22
2425.08,1245.47
2426.53,1249
2427.99,1231.09
2429.44,1243.33
2430.9,1227.81
2432.35,1233.91
2433.81,1244.86
2435.26,1226.54
2436.71,1238.91
2438.17,1227.4
2439.62,1236.92
2441.08,1248.71
2442.53,1245.65
2443.99,1250.52
2445.44,1237.08
2446.89,1192.99
2448.35,1205.75
2449.8,1195.72
2451.26,1203.62
2452.71,1182.51
2454.17,1171.37
2455.62,1186.43
2457.07,1184.93
2458.53,1168.99
2459.98,1170.25
2461.44,1135.96
2462.89,1161.33
2464.34,1141.98
2465.8,1145.08
2467.25,1129.86
2468.71,1125.24
2470.16,1114.42
2471.62,1106.66
2473.07,1101.49
2474.52,1108.26
2475.98,1108.17
2477.43,1113.64
2478.89,1095.17
2480.34,1097.49
2481.8,1067.91
2483.25,1070.74
2484.7,1105.01
2486.16,1072.52
2487.61,1069.55
2489.07,1041.91
2490.52,1069.22
2491.97,1079.27
2493.43,1076.56
2494.88,1077.68
2496.34,1086.05
2497.79,1101.34
2499.25,1082.47
2500.7,1074.89
2502.15,1092.74
2503.61,1083.38
2505.06,1071.62
2506.52,1075.2
2507.97,1087.04
2509.43,1087.81
2510.88,1083.36
2512.33,1100.94
2513.79,1095.1
2515.24,1107.05
2516.7,1094.04
2518.15,1096.77
2519.6,1116.34
2521.06,1105.2
2522.51,1107.93
2523.97,1107.82
2525.42,1112.99
2526.88,1117.63
2528.33,1139.59
2529.78,1147.82
2531.24,1160.75
2532.69,1163.63
2534.15,1173.24
2535.6,1181.34
2537.06,1198.04
2538.51,1212.46
2539.96,1194.78
2541.42,1217.5
2542.87,1200.72
2544.33,1237.07
2545.78,1249.75
2547.24,1264.18
2548.69,1280.14
2550.14,1269.58
2551.6,1296.87
2553.05,1315.29
2554.51,1329.28
2555.96,1353.56
2557.41,1357.99
2558.87,1368.26
2560.32,1391.02
2561.78,1405.08
2563.23,1413.68
2564.69,1450.79
2566.14,1458.5
2567.59,1476.26
2569.05,1536.48
2570.5,1517.27
2571.96,1535.11
2573.41,1581.67
2574.87,1610.69
2576.32,1649.11
2577.77,1677.3
2579.23,1732.46
2580.68,1754.87
2582.14,1788.41
2583.59,1822.73
2585.04,1847.42
2586.5,1903.6
2587.95,1972.36
2589.41,1989.55
2590.86,2025.42
2592.32,2066.7
2593.77,2133.74
2595.22,2206.22
2596.68,2303.48
2598.13,2329.8
2599.59,2394.02
2601.04,2474.01
2602.5,2555.17
2603.95,2646.75
2605.4,2701.71
2606.86,2800.4
2608.31,2902.37
2609.77,3014.97
2611.22,3117.97
2612.68,3254.39
2614.13,3298.76
2615.58,3514.63
2617.04,3586.08
2618.49,3721.73
2619.95,3888.66
2621.4,4031.23
2622.85,4185.98
2624.31,4323.53
2625.76,4519.18
2627.22,4692.39
2628.67,4845.83
2630.13,5062.68
2631.58,5252.44
2633.03,5512.93
2634.49,5726.31
2635.94,5899.75
2637.4,6094.06
2638.85,6326.4
2640.31,6528.2
2641.76,6733.83
2643.21,6934.69
2644.67,7131.87
2646.12,7346.96
2647.58,7534.83
2649.03,7726.03
2650.48,7859.11
2651.94,8024.18
2653.39,8174.97
2654.85,8253.82
2656.3,8397.49
2657.76,8447.2
2659.21,8609.52
2660.66,8643.44
2662.12,8645.93
2663.57,8680.16
2665.03,8672.94
2666.48,8663.38
2667.94,8618.09
2669.39,8604.69
2670.84,8513.22
2672.3,8415.51
2673.75,8258.23
2675.21,8120.53
2676.66,7956.4
2678.11,7774.96
2679.57,7639.29
2681.02,7441.44
2682.48,7277.98
2683.93,7032.24
2685.39,6758.98
2686.84,6596.14
2688.29,6412.42
2689.75,6213.63
2691.2,5963.74
2692.66,5708.08
2694.11,5536.62
2695.57,5331.97
2697.02,5101.22
2698.47,4951.93
2699.93,4659.61
2701.38,4432.06
2702.84,4281.71
2704.29,4123.63
2705.75,3955.08
2707.2,3796.23
2708.65,3632.25
2710.11,3512.53
2711.56,3362.4
2713.02,3189.33
2714.47,3147.03
2715.92,2998.16
2717.38,2877.76
2718.83,2767.85
2720.29,2661.16
2721.74,2567.21
2723.2,2464.16
2724.65,2409.91
2726.1,2331.09
2727.56,2269.94
2729.01,2172.92
2730.47,2101.94
2731.92,2046.22
2733.38,2006.43
2734.83,1880.71
2736.28,1842.41
2737.74,1819.89
2739.19,1784.8
2740.65,1691.56
2742.1,1673.66
2743.55,1656.36
2745.01,1620.25
2746.46,1557.27
2747.92,1558.72
2749.37,1480.7
2750.83,1505.09
2752.28,1469.72
2753.73,1409.02
2755.19,1387.79
2756.64,1346.27
2758.1,1345.37
2759.55,1351.34
2761.01,1319.74
2762.46,1283.2
2763.91,1293.86
2765.37,1265.38
2766.82,1256.01
2768.28,1236.74
2769.73,1223.83
2771.18,1204.18
2772.64,1184.96
2774.09,1183.19
2775.55,1161.08
2777,1133.58
2778.46,1128.4
2779.91,1127.5
2781.36,1111.36
2782.82,1092.36
2784.27,1083.94
2785.73,1070.93
2787.18,1072.06
2788.64,1076.5
2790.09,1069.16
2791.54,1055.48
2793,1042.74
2794.45,1022.32
2795.91,1006.61
2797.36,1011.25
2798.82,1002.13
2800.27,1017.77
2801.72,989.078
2803.18,974.471
2804.63,983.39
2806.09,984.382
2807.54,974.638
2808.99,972.186
2810.45,979.385
2811.9,952.401
2813.36,952.978
2814.81,948.256
2816.27,932.159
2817.72,960.873
2819.17,929.438
2820.63,943.046
2822.08,931.183
2823.54,926.799
2824.99,928.996
2826.45,916.177
2827.9,911.227
2829.35,932.383
2830.81,916.462
2832.26,883.079
2833.72,908.172
2835.17,917.782
2836.62,903.113
2838.08,890.715
2839.53,886.668
2840.99,898.994
2842.44,889.39
2843.9,876.628
2845.35,862.661
2846.8,892.086
2848.26,889.504
2849.71,883.001
2851.17,890.045
2852.62,880.456
2854.08,882.918
2855.53,882.144
2856.98,885.728
2858.44,887.842
2859.89,877.511
2861.35,860.827
2862.8,871.787
2864.25,873.428
2865.71,874.171
2867.16,870.665
2868.62,863.793
2870.07,880.669
2871.53,905.892
2872.98,897.924
2874.43,895.031
2875.89,883.718
2877.34,900.163
2878.8,898.891
2880.25,892.855
2881.71,883.926
2883.16,892.673
2884.61,894.584
2886.07,885.115
2887.52,889.011
2888.98,895.499
2890.43,923.542
2891.89,915.704
2893.34,927.012
2894.79,925.791
2896.25,905.336
2897.7,909.492
2899.16,912.162
2900.61,916.073
2902.06,928.565
2903.52,893.172
2904.97,910.141
2906.43,925.438
2907.88,917.797
2909.34,929.832
2910.79,935.281
2912.24,922.415
2913.7,920.852
2915.15,900.262
2916.61,917.164
2918.06,897.093
2919.52,890.112
2920.97,877.054
2922.42,889.577
2923.88,884.591
2925.33,886.149
2926.79,867.476
2928.24,861.658
2929.69,855.654
2931.15,849.057
2932.6,832.41
2934.06,869.154
2935.51,841.479
2936.97,836.544
2938.42,834.337
2939.87,847.707
2941.33,819.45
2942.78,810.334
2944.24,817.887
2945.69,802.527
2947.15,779.091
2948.6,776.806
2950.05,760.594
2951.51,772.764
2952.96,754.912
2954.42,743.791
2955.87,743.807
2957.32,746.274
2958.78,754.86
2960.23,750.808
2961.69,742.435
2963.14,717.072
2964.6,700.918
2966.05,700.502
2967.5,706.128
2968.96,704.694
2970.41,696.466
2971.87,703.37
2973.32,689.049
2974.78,695.459
2976.23,703.328
2977.68,681.492
2979.14,665.026
2980.59,655.521
2982.05,656.71
2983.5,645.615
2984.96,642.068
2986.41,652.742
2987.86,656.357
2989.32,651.744
2990.77,632.791
2992.23,634.936
2993.68,650.186
2995.13,643.158
2996.59,641.61
2998.04,639.803
2999.5,644.353
3000.95,636.193
3002.41,636.873
3003.86,627.519
3005.31,626.552
3006.77,624.444
3008.22,619.421
3009.68,626.407
3011.13,610.757
3012.59,605.734
3014.04,610.243
3015.49,621.514
3016.95,605.464
3018.4,603.464
3019.86,616.117
3021.31,606.477
3022.76,603.874
3024.22,611.453
3025.67,599.683
3027.13,619.447
3028.58,628.433
3030.04,611.281
3031.49,605.521
3032.94,605.511
3034.4,600.228
3035.85,597.247
3037.31,600.825
3038.76,610.284
3040.22,603.636
3041.67,612.294
3043.12,611.219
3044.58,595.756
3046.03,592.239
3047.49,587.694
3048.94,600.555
3050.4,602.451
3051.85,582.807
3053.3,586.697
3054.76,605.313
3056.21,596.712
3057.67,604.555
3059.12,606.586
3060.57,617.13
3062.03,595.574
3063.48,607.245
3064.94,597.086
3066.39,600.841
3067.85,600.223
3069.3,610.648
3070.75,611.437
3072.21,604.254
3073.66,588.744
3075.12,578.672
3076.57,592.478
3078.03,613.224
3079.48,609.095
3080.93,613.323
3082.39,604.742
3083.84,615.8
3085.3,623.966
3086.75,625.727
3088.2,631.284
3089.66,629.503
3091.11,630.209
3092.57,615.832
3094.02,608.513
3095.48,643.626
3096.93,635.029
3098.38,643.034
3099.84,638.068
3101.29,658.663
3102.75,666.506
3104.2,661.421
3105.66,661.92
3107.11,696.976
3108.56,675.555
3110.02,698.534
3111.47,686.639
3112.93,675.887
3114.38,680.51
3115.83,729.756
3117.29,723.108
3118.74,721.326
3120.2,721.695
3121.65,746.409
3123.11,770.043
3124.56,769.939
3126.01,782.691
3127.47,782.945
3128.92,771.736
3130.38,796.938
3131.83,799.146
3133.29,793.25
3134.74,802.631
3136.19,820.873
3137.65,810.537
3139.1,816.988
3140.56,829.122
3142.01,818.302
3143.47,836.414
3144.92,840.216
3146.37,846.18
3147.83,828.317
3149.28,847.686
3150.74,843.182
3152.19,841.972
3153.64,845.458
3155.1,868.229
3156.55,860.178
3158.01,825.74
3159.46,831.885
3160.92,856.08
3162.37,862.962
3163.82,856.532
3165.28,873.527
3166.73,862.001
3168.19,853.909
3169.64,846.2
3171.1,873.984
3172.55,871.896
3174,871.242
3175.46,860.401
3176.91,860.832
3178.37,877.475
3179.82,888.538
3181.27,902.594
3182.73,909.419
3184.18,925.345
3185.64,899.867
3187.09,916.93
3188.55,938.486
3190,914.125
3191.45,955.165
3192.91,953.206
3194.36,952.812
3195.82,969.475
3197.27,960.914
3198.73,961.309
3200.18,970.041
3201.63,1010.17
3203.09,1003.79
3204.54,984.018
3206,996.765
3207.45,989.072
3208.9,1006.21
3210.36,989.317
3211.81,984.564
3213.27,992.49
3214.72,978.658
3216.18,973.801
3217.63,969.724
3219.08,944.179
3220.54,924.394
3221.99,914.343
3223.45,902.09
3224.9,886.663
3226.36,862.531
3227.81,859.736
3229.26,840.31
3230.72,808.568
3232.17,800.725
3233.63,761.057
3235.08,753.317
3236.53,738.675
3237.99,723.513
3239.44,726.603
3240.9,698.305
3242.35,670.08
3243.81,680.276
3245.26,651.329
3246.71,654.544
3248.17,611.172
3249.62,609.739
3251.08,604.628
3252.53,602.285
3253.99,595.491
3255.44,587.897
3256.89,571.187
3258.35,566.237
3259.8,556.093
3261.26,547.263
3262.71,535.56
3264.17,546.068
3265.62,540.131
3267.07,535.55
3268.53,534.106
3269.98,524.642
3271.44,515.788
3272.89,519.147
3274.34,521.437
3275.8,529.846
3277.25,519.474
3278.71,516.198
3280.16,500.311
3281.62,493.421
3283.07,500.722
3284.52,499.028
3285.98,515.608
3287.43,514.225
3288.89,488.264
3290.34,478.98
3291.8,486.993
3293.25,482.408
3294.7,489.402
3296.16,490.978
3297.61,497.64
3299.07,493.978
3300.52,472.529
3301.97,483.941
3303.43,481.055
3304.88,480.599
3306.34,485.878
3307.79,490.155
3309.25,498.224
3310.7,496.816
3312.15,487.638
3313.61,492.849
3315.06,483.902
3316.52,488.308
3317.97,486.37
3319.43,478.384
3320.88,479.21
3322.33,473.507
3323.79,489.738
3325.24,485.125
3326.7,485.259
3328.15,477.168
3329.6,475.96
3331.06,477.532
3332.51,475.207
3333.97,475.56
3335.42,457.596
3336.88,473.561
3338.33,477.372
3339.78,473.736
3341.24,469.917
3342.69,474.889
3344.15,479.423
3345.6,476.113
3347.06,475.886
3348.51,474.158
3349.96,480.902
3351.42,471.96
3352.87,471.932
3354.33,473.743
3355.78,477.254
3357.24,476.078
3358.69,461.707
3360.14,465.71
3361.6,468.116
3363.05,464.079
3364.51,472.497
3365.96,478.56
3367.41,478.906
3368.87,470.093
3370.32,462.035
3371.78,467.886
3373.23,465.991
3374.69,454.797
3376.14,469.263
3377.59,470.234
3379.05,447.092
3380.5,459.565
3381.96,470.09
3383.41,466.024
3384.87,463.611
3386.32,457.163
3387.77,457.746
3389.23,456.836
3390.68,464.555
3392.14,461.877
3393.59,462.821
3395.04,474.067
3396.5,474.983
3397.95,459.514
3399.41,452.955
3400.86,462.98
3402.32,458.395
3403.77,463.981
3405.22,449.626
3406.68,466.354
3408.13,461.084
3409.59,474.977
3411.04,468.903
3412.5,469.205
3413.95,472.869
3415.4,452.195
3416.86,466.359
3418.31,455.103
3419.77,456.92
3421.22,456.472
3422.68,458.546
3424.13,466.802
3425.58,458.87
3427.04,475.907
3428.49,464.357
3429.95,446.831
3431.4,449.816
3432.85,458.508
3434.31,444.019
3435.76,460.208
3437.22,454.325
3438.67,442.124
3440.13,459.126
3441.58,450.531
3443.03,458.039
3444.49,446.165
3445.94,453.662
3447.4,442.578
3448.85,454.264
3450.31,453.272
3451.76,466.198
3453.21,436.736
3454.67,450.459
3456.12,454.117
3457.58,441.505
3459.03,462.129
3460.48,453.921
3461.94,459.27
3463.39,444.634
3464.85,457.797
3466.3,454.293
3467.76,444.567
3469.21,445.109
3470.66,438.437
3472.12,432.676
3473.57,440.309
3475.03,445.661
3476.48,451.207
3477.94,458.141
3479.39,454.966
3480.84,456.615
3482.3,458.087
3483.75,440.213
3485.21,455.043
3486.66,437.718
3488.11,455.497
3489.57,464.821
3491.02,455.055
3492.48,448.19
3493.93,456.246
3495.39,467.005
3496.84,464.809
3498.29,455.365
3499.75,450.698
3501.2,444.33
3502.66,446.033
3504.11,448.258
3505.57,440.378
3507.02,466.55
3508.47,445.729
3509.93,467.837
3511.38,444.086
3512.84,453.026
3514.29,444.862
3515.75,438.095
3517.2,440.088
3518.65,464.32
3520.11,454.746
3521.56,437.855
3523.02,458.662
3524.47,456.104
3525.92,446.227
3527.38,445.042
3528.83,439.782
3530.29,448.92
3531.74,449.217
3533.2,453.833
3534.65,444.765
3536.1,439.364
3537.56,455.889
3539.01,451.824
3540.47,454.539
3541.92,450.41
3543.38,444.243
3544.83,441.544
3546.28,446.575
3547.74,439.08
3549.19,444.194
3550.65,448.207
3552.1,443.474
3553.55,449.06
3555.01,457.6
3556.46,445.387
3557.92,447.842
3559.37,450.644
3560.83,436.377
3562.28,439.5
3563.73,444.733
3565.19,436.777
3566.64,427.515
3568.1,440.927
3569.55,451.626
3571.01,445.439
3572.46,451.57
3573.91,445.578
3575.37,448.87
3576.82,442.645
3578.28,434.041
3579.73,444.837
3581.18,447.378
3582.64,447.188
3584.09,440.5
3585.55,442.479
3587,452.963
3588.46,448.163
3589.91,450.652
3591.36,452.648
3592.82,441.36
3594.27,448.407
3595.73,440.252
3597.18,441.794
3598.64,441.534
3600.09,448.14
3601.54,434.262
3603,441.505
3604.45,447.785
3605.91,434.368
3607.36,449.893
3608.82,425.225
3610.27,440.161
3611.72,447.814
3613.18,435.789
3614.63,429.864
3616.09,443.916
3617.54,435.788
3618.99,434.393
3620.45,460.846
3621.9,445.028
3623.36,440.845
3624.81,433.16
3626.27,435.331
3627.72,451.984
3629.17,446.267
3630.63,438.915
3632.08,434.892
3633.54,430.15
3634.99,445.425
3636.45,441.091
3637.9,455.054
3639.35,453.201
3640.81,450.824
3642.26,440.804
3643.72,438.872
3645.17,453.703
3646.62,439.197
3648.08,434.559
3649.53,434.556
3650.99,448.99
3652.44,459.247
3653.9,450.578
3655.35,439.3
3656.8,455.322
3658.26,454.974
3659.71,436.55
3661.17,451.551
3662.62,453.228
3664.08,436.178
3665.53,441.157
3666.98,458.356
3668.44,448.19
3669.89,445.513
3671.35,450.993
3672.8,451.116
3674.25,440.734
3675.71,433.266
3677.16,435.293
3678.62,440.204
3680.07,438.487
3681.53,441.389
3682.98,456.734
3684.43,450.696
3685.89,431.027
3687.34,452.839
3688.8,440.736
3690.25,443.696
3691.71,442.903
3693.16,444.451
3694.61,426.885
3696.07,433.804
3697.52,441.362
3698.98,452.689
3700.43,449.383
3701.89,446.547
3703.34,438.366
3704.79,455.366
3706.25,455.336
3707.7,437.727
3709.16,441.223
3710.61,431.559
3712.06,436.099
3713.52,453.638
3714.97,447.423
3716.43,455.9
3717.88,442.139
3719.34,442.228
3720.79,433.73
3722.24,435.506
3723.7,448.07
3725.15,450.584
3726.61,444.414
3728.06,450.956
3729.52,447.091
3730.97,467.958
3732.42,463.87
3733.88,446.334
3735.33,452.211
3736.79,436.029
3738.24,455.484
3739.69,449.941
3741.15,441.824
3742.6,471.947
3744.06,446.308
3745.51,445.726
3746.97,453.666
3748.42,444.884
3749.87,433.321
3751.33,437.749
3752.78,447.05
3754.24,437.276
3755.69,448.846
3757.15,448.99
3758.6,447.968
3760.05,447.441
3761.51,433.526
3762.96,439.887
3764.42,442.659
3765.87,439.324
3767.32,452.344
3768.78,441.939
3770.23,444.168
3771.69,447.847
3773.14,466.454
3774.6,449.571
3776.05,454.485
3777.5,457.856
3778.96,443.804
3780.41,455.448
3781.87,451.239
3783.32,452.051
3784.78,447.119
3786.23,452.552
3787.68,452.144
3789.14,455.679
3790.59,447.367
3792.05,457.583
3793.5,445.718
3794.96,449.994
3796.41,466.368
3797.86,460.167
3799.32,445.657
3800.77,441.514
3802.23,436.37
3803.68,464.658
3805.13,450.445
3806.59,449.928
3808.04,452.488
3809.5,448.791
3810.95,452.884
3812.41,454.549
3813.86,462.111
3815.31,457.52
3816.77,454.071
3818.22,442.356
3819.68,455.948
3821.13,460.446
3822.59,457.937
3824.04,454.337
3825.49,452.493
3826.95,457.75
3828.4,450.547
3829.86,433.589
3831.31,460.748
3832.76,449.771
3834.22,447.553
3835.67,451.62
3837.13,468.436
3838.58,440.17
3840.04,464.307
3841.49,475.456
3842.94,449.426
3844.4,460.199
3845.85,454.141
3847.31,460.31
3848.76,448.24
3850.22,475.423
3851.67,458.812
3853.12,455.546
3854.58,457.711
3856.03,460.838
3857.49,458.394
3858.94,456.057
3860.4,454.745
3861.85,455.377
3863.3,461.35
3864.76,469.538
3866.21,445.863
3867.67,461.892
3869.12,461.272
3870.57,457.707
3872.03,447.516
3873.48,454.687
3874.94,455.948
3876.39,465.306
3877.85,454.893
3879.3,459.634
3880.75,466.958
3882.21,470.01
3883.66,480.078
3885.12,476.255
3886.57,472.603
3888.03,469.971
3889.48,457.895
3890.93,464.247
3892.39,476.337
3893.84,466.117
3895.3,460.401
3896.75,457.806
3898.2,466.147
3899.66,472.895
3901.11,470.009
3902.57,484.915
3904.02,481.729
3905.48,462.332
3906.93,480.033
3908.38,478.989
3909.84,470.93
3911.29,465.645
3912.75,469.728
3914.2,481.121
3915.66,481.596
3917.11,491.346
3918.56,487.986
3920.02,488.485
3921.47,480.898
3922.93,482.423
3924.38,493.474
3925.83,481.54
3927.29,477.87
3928.74,476.735
3930.2,483.437
3931.65,489.239
3933.11,481.892
3934.56,486.962
3936.01,493.21
3937.47,482.751
3938.92,495.935
3940.38,479.344
3941.83,474.118
3943.29,482.686
3944.74,489.248
3946.19,488.415
3947.65,494.659
3949.1,495.642
3950.56,495.611
3952.01,507.341
3953.47,497.552
3954.92,496.532
3956.37,491.303
3957.83,482.615
3959.28,483.132
3960.74,501.908
3962.19,492.891
3963.64,508.868
3965.1,498.176
3966.55,509.542
3968.01,503.678
3969.46,518.967
3970.92,506.361
3972.37,506.387
3973.82,500.363
3975.28,523.681
3976.73,507.758
3978.19,505.619
3979.64,513.917
3981.1,517.628
3982.55,515.938
3984,517.225
3985.46,513.224
3986.91,506.958
3988.37,516.442
3989.82,524.792
3991.27,527.66
3992.73,537.295
3994.18,539.326
3995.64,522.793
3997.09,516.704
3998.55,524.164
4000,532.454
