0.1,55.5018
1.45033,55.5018
2.90065,55.5018
4.35098,55.5018
5.80131,55.5018
7.25163,45.7889
8.70196,103.318
10.1523,71.1509
11.6026,55.6982
13.0529,48.3334
14.5033,42.6319
15.9536,37.3118
17.4039,33.9547
18.8542,31.5012
20.3046,32.5598
21.7549,32.4711
23.2052,28.5811
24.6555,24.848
26.1059,25.4374
27.5562,24.6843
29.0065,22.2165
30.4569,19.2334
31.9072,16.4314
33.3575,17.1361
34.8078,18.0298
36.2582,17.6948
37.7085,16.7602
39.1588,17.2053
40.6091,14.6192
42.0595,11.711
43.5098,11.5516
44.9601,15.1058
46.4104,17.2743
47.8608,21.9189
49.3111,28.7402
50.7614,35.3094
52.2117,56.6507
53.6621,103.974
55.1124,176.58
56.5627,276.477
58.0131,415.089
59.4634,541.657
60.9137,660.467
62.364,765.266
63.8144,851.399
65.2647,931.07
66.715,974.667
68.1653,1000.84
69.6157,1020.36
71.066,1042.76
72.5163,1044.07
73.9666,1044.15
75.417,1041.25
76.8673,1035.46
78.3176,1029.83
79.7679,1052.82
81.2183,1082.73
82.6686,1115.82
84.1189,1148.39
85.5693,1167.18
87.0196,1179.77
88.4699,1172.53
89.9202,1158.2
91.3706,1156.54
92.8209,1113.48
94.2712,1092.85
95.7215,1073.03
97.1719,1044.12
98.6222,1004.05
100.073,984.822
101.523,975.22
102.973,957.912
104.423,924.382
105.874,883.526
107.324,887.538
108.774,873.757
110.225,852.394
111.675,840.414
113.125,836.646
114.576,826.983
116.026,812.85
117.476,797.926
118.927,785.42
120.377,750.683
121.827,742.582
123.278,744.507
124.728,739.746
126.178,708.614
127.629,686.694
129.079,672.278
130.529,659.322
131.98,647.412
133.43,644.769
134.88,635.507
136.331,631.306
137.781,625.127
139.231,615.718
140.682,621.198
142.132,597.733
143.582,578.212
145.033,570.371
146.483,573.096
147.933,560.991
149.384,549.859
150.834,528.695
152.284,510.108
153.735,511.057
155.185,525.063
156.635,494.795
158.086,494.087
159.536,503.377
160.986,467.124
162.437,469.397
163.887,472.12
165.337,479.581
166.788,482.494
168.238,462.578
169.688,468.841
171.139,467.773
172.589,462.273
174.039,456.67
175.489,457.241
176.94,445.065
178.39,438.422
179.84,441.897
181.291,447.678
182.741,430.213
184.191,416.027
185.642,410.198
187.092,403.062
188.542,394.591
189.993,403.15
191.443,404.867
192.893,403.302
194.344,400.949
195.794,400.082
197.244,402.935
198.695,407.03
200.145,400.113
201.595,394.333
203.046,395.769
204.496,390.442
205.946,406.862
207.397,407.17
208.847,402.893
210.297,402.073
211.748,388.553
213.198,390.187
214.648,385.769
216.099,378.519
217.549,372.233
218.999,364.038
220.45,357.052
221.9,347.911
223.35,347.769
224.801,361.678
226.251,373.504
227.701,369.288
229.152,367.117
230.602,364.026
232.052,356.191
233.503,343.578
234.953,363.67
236.403,360.267
237.854,353.924
239.304,357.48
240.754,344.666
242.204,340.389
243.655,346.688
245.105,341.895
246.555,326.621
248.006,353.002
249.456,344.566
250.906,344.86
252.357,344.379
253.807,338.091
255.257,334.835
256.708,345.767
258.158,345.856
259.608,345.431
261.059,348.145
262.509,346.419
263.959,327.731
265.41,326.478
266.86,337.27
268.31,347.449
269.761,338.542
271.211,340.462
272.661,330.462
274.112,328.111
275.562,336.521
277.012,345.273
278.463,328.95
279.913,330.403
281.363,325.556
282.814,316.657
284.264,317.349
285.714,314.658
287.165,312.768
288.615,313.544
290.065,312.047
291.516,303.746
292.966,299.707
294.416,308.748
295.867,307.546
297.317,302.83
298.767,301.609
300.218,289.496
301.668,298.497
303.118,301.139
304.569,304.6
306.019,308.445
307.469,289.183
308.919,296.992
310.37,294.543
311.82,291.459
313.27,288.139
314.721,272.635
316.171,265.5
317.621,260.612
319.072,269.293
320.522,277.163
321.972,259.881
323.423,267.214
324.873,269.884
326.323,269.312
327.774,266.419
329.224,264.381
330.674,277.512
332.125,272.376
333.575,268.087
335.025,268.249
336.476,270.764
337.926,266.705
339.376,268.933
340.827,266.831
342.277,261.258
343.727,261.975
345.178,284.72
346.628,258.797
348.078,253.877
349.529,255.65
350.979,256.262
352.429,254.027
353.88,265.256
355.33,256.378
356.78,255.303
358.231,259.907
359.681,261.115
361.131,250.458
362.582,253.127
364.032,257.995
365.482,261.929
366.933,260.735
368.383,249.413
369.833,251.548
371.284,241.195
372.734,242.983
374.184,250.286
375.635,246.209
377.085,250.091
378.535,252.948
379.986,255.033
381.436,256.204
382.886,256.593
384.336,256.981
385.787,253.788
387.237,254.385
388.687,251.81
390.138,246.361
391.588,244.494
393.038,246.632
394.489,248.446
395.939,249.364
397.389,253.293
398.84,259.082
400.29,245.462
401.74,245.69
403.191,244.919
404.641,254.459
406.091,263.997
407.542,242.087
408.992,251.047
410.442,250.161
411.893,245.889
413.343,245.855
414.793,253.549
416.244,256.082
417.694,244.405
419.144,242.047
420.595,237.004
422.045,232.982
423.495,254.101
424.946,260.149
426.396,242.243
427.846,233.254
429.297,236.689
430.747,244.187
432.197,251.029
433.648,238.619
435.098,233.199
436.548,241.562
437.999,251.612
439.449,238.215
440.899,248.964
442.35,241.052
443.8,241.273
445.25,242.346
446.701,236.346
448.151,246.528
449.601,243.054
451.051,236.488
452.502,238.105
453.952,245.664
455.402,247.375
456.853,246.395
458.303,233.863
459.753,240.336
461.204,247.68
462.654,241.777
464.104,236.509
465.555,245.72
467.005,242.456
468.455,240.261
469.906,238.518
471.356,233.527
472.806,241.381
474.257,238.529
475.707,238.977
477.157,238.803
478.608,242.645
480.058,260.479
481.508,244.971
482.959,245.204
484.409,238.975
485.859,237.885
487.31,246.588
488.76,240.313
490.21,245.029
491.661,234.392
493.111,235.063
494.561,243.621
496.012,244.977
497.462,239.667
498.912,238.055
500.363,229.202
501.813,229.647
503.263,239.684
504.714,244.8
506.164,237.123
507.614,229.263
509.065,226.717
510.515,228.375
511.965,231.82
513.416,234.611
514.866,230.273
516.316,229.246
517.766,238.799
519.217,239.959
520.667,225.944
522.117,227.939
523.568,234.06
525.018,237.819
526.468,239.113
527.919,236.472
529.369,229.731
530.819,223.803
532.27,227.825
533.72,227.809
535.17,232.46
536.621,240.431
538.071,242.141
539.521,223.373
540.972,233.491
542.422,240.493
543.872,239.488
545.323,234.36
546.773,232.738
548.223,235.311
549.674,233.731
551.124,237.22
552.574,240.766
554.025,242.45
555.475,243.796
556.925,235.473
558.376,239.363
559.826,237.6
561.276,233.707
562.727,232.909
564.177,236.875
565.627,238.66
567.078,236.082
568.528,227.256
569.978,232.586
571.429,243.826
572.879,223.899
574.329,227.67
575.78,228.321
577.23,228.519
578.68,231.246
580.131,234.49
581.581,232.15
583.031,238.112
584.482,230.209
585.932,233.374
587.382,236.704
588.832,234.816
590.283,237.387
591.733,239.774
593.183,248.621
594.634,241.882
596.084,235.878
597.534,237.088
598.985,233.749
600.435,235.143
601.885,243.084
603.336,242.346
604.786,235.199
606.236,230.82
607.687,236.333
609.137,225.371
610.587,232.272
612.038,228.741
613.488,231.74
614.938,239.927
616.389,236.007
617.839,234.013
619.289,220.725
620.74,234.495
622.19,244.045
623.64,238.573
625.091,231.105
626.541,241.301
627.991,237.147
629.442,234.641
630.892,237.058
632.342,241.749
633.793,243.218
635.243,237.022
636.693,242.714
638.144,237.334
639.594,245.519
641.044,246.789
642.495,230.952
643.945,241.285
645.395,249.488
646.846,244.4
648.296,247.074
649.746,250.128
651.197,248.581
652.647,250.921
654.097,252.524
655.547,251.278
656.998,244.91
658.448,240.578
659.898,237.736
661.349,233.109
662.799,250.951
664.249,252.743
665.7,249.915
667.15,253.052
668.6,255.85
670.051,249.027
671.501,242.245
672.951,255.894
674.402,257.442
675.852,251.321
677.302,255.123
678.753,265.055
680.203,247.232
681.653,258.094
683.104,263.984
684.554,261.802
686.004,256.269
687.455,254.291
688.905,259.389
690.355,261.199
691.806,264.356
693.256,257.67
694.706,256.951
696.157,258.879
697.607,256.561
699.057,259.022
700.508,262.851
701.958,273.857
703.408,271.671
704.859,264.92
706.309,263.203
707.759,264.777
709.21,253.896
710.66,250.731
712.11,258.57
713.561,256.533
715.011,254.996
716.461,265.295
717.912,257.141
719.362,253.506
720.812,257.371
722.263,258.335
723.713,265.316
725.163,273.616
726.613,265.244
728.064,260.6
729.514,265.474
730.964,264.147
732.415,262.243
733.865,261.925
735.315,261.37
736.766,258.482
738.216,275.077
739.666,270.055
741.117,261.059
742.567,262.007
744.017,263.07
745.468,250.011
746.918,264.8
748.368,263.115
749.819,256.052
751.269,261.182
752.719,263.521
754.17,256.004
755.62,258.743
757.07,271.925
758.521,268.674
759.971,256.153
761.421,257.462
762.872,265.014
764.322,262.497
765.772,258.785
767.223,266.907
768.673,274.492
770.123,263.507
771.574,258.291
773.024,265.451
774.474,268.599
775.925,255.805
777.375,263.529
778.825,267.889
780.276,266.623
781.726,265.503
783.176,264.314
784.627,258.784
786.077,268.347
787.527,268.085
788.978,263.276
790.428,272.943
791.878,277.675
793.328,271.343
794.779,279.347
796.229,267.94
797.68,273.741
799.13,272.066
800.58,270.343
802.03,272.001
803.481,278.087
804.931,288.142
806.381,273.868
807.832,280.61
809.282,274.003
810.732,269.745
812.183,271.439
813.633,273.893
815.083,275.761
816.534,278.006
817.984,278.396
819.434,282.388
820.885,279.366
822.335,278.249
823.785,284.398
825.236,276.686
826.686,272.189
828.136,283.463
829.587,277.545
831.037,280.372
832.487,293.813
833.938,298.095
835.388,279.544
836.838,290.389
838.289,298.056
839.739,287.025
841.189,286.939
842.64,295.579
844.09,298.999
845.54,300.068
846.991,291.464
848.441,291.416
849.891,293.598
851.342,294.167
852.792,299.186
854.242,304.523
855.693,290.367
857.143,271.294
858.593,293.759
860.044,301.542
861.494,301.478
862.944,296.942
864.394,294.295
865.845,301.306
867.295,301.101
868.745,299.283
870.196,303.164
871.646,294.732
873.096,288.883
874.547,288.524
875.997,283.084
877.447,290.037
878.898,285.514
880.348,300.305
881.798,303.458
883.249,300.26
884.699,299.186
886.149,300.539
887.6,297.193
889.05,281.739
890.5,294.415
891.951,297.462
893.401,295.82
894.851,297.453
896.302,300.951
897.752,297.317
899.202,295.669
900.653,307.779
902.103,303.635
903.553,307.607
905.004,308.253
906.454,309.301
907.904,326.742
909.355,331.042
910.805,328.151
912.255,322.001
913.706,305.407
915.156,304.307
916.606,311.02
918.057,312.42
919.507,322.573
920.957,297.758
922.408,307.581
923.858,324.445
925.308,325.025
926.759,318.474
928.209,322.329
929.659,336.495
931.109,329.705
932.56,329.705
934.01,332.261
935.46,336.672
936.911,324.016
938.361,318.375
939.811,331.463
941.262,326.778
942.712,341.479
944.162,333.988
945.613,334.443
947.063,319.552
948.513,315.541
949.964,327.003
951.414,330.443
952.864,319.317
954.315,326.988
955.765,335.438
957.215,334.431
958.666,331.999
960.116,329.542
961.566,327.321
963.017,325.532
964.467,316.506
965.917,327.73
967.368,327.697
968.818,329.167
970.268,322.906
971.719,317.231
973.169,320.787
974.619,326.782
976.07,332.517
977.52,325.865
978.97,340.697
980.421,337.281
981.871,336.83
983.321,335.447
984.772,329.063
986.222,339.76
987.672,324.136
989.123,336.556
990.573,331.657
992.023,332.881
993.474,333.678
994.924,331.573
996.374,332.4
997.825,337.151
999.275,330.058
1000.73,340.809
1002.18,338.547
1003.63,346.121
1005.08,352.687
1006.53,355.355
1007.98,356.857
1009.43,350.672
1010.88,345.032
1012.33,348.676
1013.78,368.888
1015.23,363.917
1016.68,359.239
1018.13,363.038
1019.58,364.633
1021.03,362.839
1022.48,357.9
1023.93,378.192
1025.38,376.262
1026.83,388.099
1028.28,383.876
1029.73,376.341
1031.18,380.166
1032.63,375.042
1034.08,376.779
1035.53,380.549
1036.98,404.856
1038.43,409.739
1039.88,404.337
1041.33,406.321
1042.78,409.191
1044.23,400.674
1045.69,416.356
1047.14,410.902
1048.59,407.399
1050.04,413.703
1051.49,412.165
1052.94,415.969
1054.39,427.508
1055.84,432.543
1057.29,429.774
1058.74,439.645
1060.19,443.96
1061.64,438.933
1063.09,450.562
1064.54,459.041
1065.99,461.155
1067.44,466.247
1068.89,475.238
1070.34,490.119
1071.79,483.388
1073.24,477.228
1074.69,468.028
1076.14,471.011
1077.59,481.109
1079.04,487.997
1080.49,489.38
1081.94,487.298
1083.39,470.24
1084.84,501.434
1086.29,498.673
1087.74,485.229
1089.2,489.803
1090.65,495.323
1092.1,486.431
1093.55,481.082
1095,479.506
1096.45,473.39
1097.9,471.406
1099.35,474.294
1100.8,472.763
1102.25,478.646
1103.7,468.548
1105.15,449.973
1106.6,488.424
1108.05,484.552
1109.5,463.616
1110.95,462.3
1112.4,460.207
1113.85,463.515
1115.3,467.439
1116.75,464.59
1118.2,457.614
1119.65,455.638
1121.1,444.067
1122.55,463.528
1124,448.086
1125.45,443.182
1126.9,451.045
1128.35,450.421
1129.8,446.958
1131.25,451.476
1132.7,435.078
1134.16,450.113
1135.61,456.68
1137.06,438.69
1138.51,438.358
1139.96,433.862
1141.41,432.471
1142.86,432.859
1144.31,427.465
1145.76,438.954
1147.21,434.033
1148.66,424.9
1150.11,438.372
1151.56,431.838
1153.01,419.611
1154.46,420.938
1155.91,426.852
1157.36,427.19
1158.81,439.312
1160.26,436.68
1161.71,412.006
1163.16,434.584
1164.61,429.91
1166.06,428.672
1167.51,434.286
1168.96,434.205
1170.41,427.901
1171.86,426.531
1173.31,422.853
1174.76,418.385
1176.21,427.438
1177.66,424.348
1179.12,423.889
1180.57,426.349
1182.02,429.837
1183.47,430.417
1184.92,429.577
1186.37,441.591
1187.82,430.07
1189.27,437.53
1190.72,435.028
1192.17,431.348
1193.62,430.07
1195.07,422.602
1196.52,422.992
1197.97,439.729
1199.42,444.443
1200.87,440.078
1202.32,443.711
1203.77,420.777
1205.22,434.873
1206.67,436.59
1208.12,426.139
1209.57,427.37
1211.02,435.149
1212.47,433.758
1213.92,444.082
1215.37,431.172
1216.82,444.444
1218.27,440.862
1219.72,451.18
1221.17,449.832
1222.63,441.114
1224.08,441.904
1225.53,445.746
1226.98,434.314
1228.43,428.627
1229.88,454.876
1231.33,436.007
1232.78,458.223
1234.23,450.415
1235.68,457.608
1237.13,463.529
1238.58,464.706
1240.03,466.409
1241.48,463.885
1242.93,479.897
1244.38,464.242
1245.83,450.282
1247.28,459.551
1248.73,482.759
1250.18,480.405
1251.63,468.407
1253.08,471.013
1254.53,479.584
1255.98,478.901
1257.43,492.486
1258.88,500.27
1260.33,487.363
1261.78,497.815
1263.23,502.956
1264.68,496.697
1266.13,501.01
1267.59,515.219
1269.04,527.785
1270.49,531.29
1271.94,524.466
1273.39,547.902
1274.84,541.214
1276.29,541.131
1277.74,556.016
1279.19,555.818
1280.64,568.852
1282.09,579.218
1283.54,589.063
1284.99,606.008
1286.44,608.549
1287.89,616.734
1289.34,598.527
1290.79,637.816
1292.24,652.673
1293.69,656.503
1295.14,674.367
1296.59,697.293
1298.04,707.962
1299.49,719.475
1300.94,747.954
1302.39,766.926
1303.84,769.215
1305.29,782.837
1306.74,809.575
1308.19,823.557
1309.64,852.437
1311.09,889.976
1312.55,922.83
1314,947.201
1315.45,976.755
1316.9,1013.05
1318.35,1030.63
1319.8,1074.27
1321.25,1089
1322.7,1099.97
1324.15,1153.72
1325.6,1152.85
1327.05,1147.62
1328.5,1147.12
1329.95,1154.55
1331.4,1172.54
1332.85,1182.29
1334.3,1173.99
1335.75,1175.36
1337.2,1135.86
1338.65,1126.72
1340.1,1091.84
1341.55,1088.12
1343,1064.02
1344.45,1025.96
1345.9,1008.98
1347.35,1000.32
1348.8,964.52
1350.25,916.997
1351.7,884.149
1353.15,876.903
1354.6,883.862
1356.06,856.977
1357.51,801.633
1358.96,772.195
1360.41,769.299
1361.86,762.617
1363.31,750.561
1364.76,744.052
1366.21,726.751
1367.66,689.744
1369.11,682.281
1370.56,693.404
1372.01,675.964
1373.46,674.669
1374.91,661.062
1376.36,666.751
1377.81,659.404
1379.26,641.9
1380.71,632.778
1382.16,633.37
1383.61,639.61
1385.06,623.679
1386.51,601.78
1387.96,623.609
1389.41,625.646
1390.86,637.692
1392.31,635.24
1393.76,615.502
1395.21,622.14
1396.66,619.724
1398.11,613.11
1399.56,636.655
1401.02,640.767
1402.47,637.264
1403.92,633.195
1405.37,642.173
1406.82,647.552
1408.27,647.245
1409.72,633.383
1411.17,651.78
1412.62,657.655
1414.07,637.568
1415.52,634.476
1416.97,652.829
1418.42,656.763
1419.87,671.806
1421.32,672.264
1422.77,677.519
1424.22,658.644
1425.67,668.463
1427.12,700.428
1428.57,683.668
1430.02,682.646
1431.47,693.802
1432.92,696.25
1434.37,700.456
1435.82,711.538
1437.27,723.553
1438.72,751.106
1440.17,733.071
1441.62,725.154
1443.07,739.357
1444.53,726.414
1445.98,747.32
1447.43,768.089
1448.88,776.577
1450.33,767.678
1451.78,765.618
1453.23,788.401
1454.68,810.552
1456.13,810.717
1457.58,817.277
1459.03,827.824
1460.48,844.131
1461.93,825.12
1463.38,865.323
1464.83,880.058
1466.28,879.791
1467.73,890.491
1469.18,905.049
1470.63,928.685
1472.08,958.865
1473.53,976.25
1474.98,982.82
1476.43,993.376
1477.88,1016.15
1479.33,1003.5
1480.78,1047.96
1482.23,1069.11
1483.68,1086.11
1485.13,1128.27
1486.58,1142.57
1488.03,1151.95
1489.49,1191.69
1490.94,1225.22
1492.39,1236.54
1493.84,1258.59
1495.29,1289.2
1496.74,1347.17
1498.19,1371.89
1499.64,1424.38
1501.09,1418.4
1502.54,1511.41
1503.99,1574.5
1505.44,1621.38
1506.89,1689.64
1508.34,1757.83
1509.79,1824.83
1511.24,1902.11
1512.69,1993.19
1514.14,2097.94
1515.59,2209.47
1517.04,2321.31
1518.49,2442.26
1519.94,2576.77
1521.39,2768.3
1522.84,2977.08
1524.29,3152.48
1525.74,3345.96
1527.19,3646.08
1528.64,3924.85
1530.09,4192.07
1531.54,4515.02
1532.99,4884.32
1534.45,5295.42
1535.9,5740.78
1537.35,6160.2
1538.8,6653.65
1540.25,7092.65
1541.7,7663.81
1543.15,8241.64
1544.6,8920.36
1546.05,9404.42
1547.5,9930.33
1548.95,10493.1
1550.4,11116.4
1551.85,11627.7
1553.3,11646.2
1554.75,11665.3
1556.2,11698.7
1557.65,11727.3
1559.1,11748.3
1560.55,11822.6
1562,11786.4
1563.45,11777.2
1564.9,11771.8
1566.35,11749.8
1567.8,11658.8
1569.25,11081.8
1570.7,10437.6
1572.15,9784.71
1573.6,9144
1575.05,8518.73
1576.5,7877.12
1577.96,7247.16
1579.41,6690.15
1580.86,6191.82
1582.31,5697.12
1583.76,5214.22
1585.21,4867.35
1586.66,4495.75
1588.11,4209.93
1589.56,3911.19
1591.01,3657.6
1592.46,3403.25
1593.91,3218.57
1595.36,3009.47
1596.81,2850.18
1598.26,2708.27
1599.71,2554.34
1601.16,2426.19
1602.61,2307.47
1604.06,2185.77
1605.51,2079.86
1606.96,1985.88
1608.41,1885.06
1609.86,1830.45
1611.31,1747.47
1612.76,1660.14
1614.21,1622.41
1615.66,1556.24
1617.11,1492.11
1618.56,1439.37
1620.01,1399.13
1621.46,1366.11
1622.92,1318.5
1624.37,1269.72
1625.82,1225.12
1627.27,1205.15
1628.72,1185.05
1630.17,1136.57
1631.62,1110.6
1633.07,1112.5
1634.52,1077.67
1635.97,1077.93
1637.42,1059.6
1638.87,1015.56
1640.32,1004.3
1641.77,997.963
1643.22,982.6
1644.67,962.184
1646.12,943.873
1647.57,937.279
1649.02,921.27
1650.47,904.343
1651.92,895.93
1653.37,896.151
1654.82,887.64
1656.27,893.683
1657.72,869.543
1659.17,864.932
1660.62,839.327
1662.07,828.063
1663.52,813.168
1664.97,821.4
1666.42,798.409
1667.88,799.388
1669.33,779.181
1670.78,766.43
1672.23,782.838
1673.68,783.496
1675.13,776.565
1676.58,765.334
1678.03,764.805
1679.48,770.881
1680.93,757.135
1682.38,737.836
1683.83,749.236
1685.28,728.621
1686.73,717.003
1688.18,703.914
1689.63,710.123
1691.08,727.642
1692.53,723.934
1693.98,704.084
1695.43,707.235
1696.88,717.118
1698.33,713.224
1699.78,708.234
1701.23,705.179
1702.68,710.211
1704.13,698.419
1705.58,707.36
1707.03,696.641
1708.48,709.68
1709.93,674.422
1711.39,681.326
1712.84,707.644
1714.29,688.76
1715.74,678.691
1717.19,687.199
1718.64,697.652
1720.09,688.75
1721.54,695.324
1722.99,695.906
1724.44,681.324
1725.89,687.8
1727.34,691.22
1728.79,675.592
1730.24,682.725
1731.69,681.337
1733.14,678.194
1734.59,664.831
1736.04,692.087
1737.49,671.626
1738.94,653.981
1740.39,648.083
1741.84,641.292
1743.29,640.355
1744.74,652.826
1746.19,653.253
1747.64,656.228
1749.09,639.409
1750.54,650.187
1751.99,640.785
1753.44,618.078
1754.89,625.006
1756.35,632.777
1757.8,620.406
1759.25,624.721
1760.7,630.659
1762.15,608.434
1763.6,617.3
1765.05,613.987
1766.5,618.319
1767.95,605.563
1769.4,601.811
1770.85,596.989
1772.3,613.194
1773.75,589.362
1775.2,606.269
1776.65,587.612
1778.1,585.521
1779.55,591.381
1781,584.371
1782.45,591.557
1783.9,594.56
1785.35,592.911
1786.8,592.227
1788.25,601.201
1789.7,593.088
1791.15,583.699
1792.6,588.935
1794.05,574.826
1795.5,576.6
1796.95,583.601
1798.4,597.783
1799.85,601.197
1801.31,584.33
1802.76,568.702
1804.21,573.055
1805.66,584.261
1807.11,583.575
1808.56,563.18
1810.01,569.589
1811.46,555.861
1812.91,552.933
1814.36,574.669
1815.81,576.08
1817.26,575.174
1818.71,561.097
1820.16,558.961
1821.61,566.528
1823.06,565.23
1824.51,570.768
1825.96,575.374
1827.41,575.176
1828.86,577.801
1830.31,575.584
1831.76,583.312
1833.21,585.315
1834.66,570.469
1836.11,585.493
1837.56,573.844
1839.01,574.963
1840.46,584.91
1841.91,582.418
1843.36,601.396
1844.82,590.633
1846.27,583.734
1847.72,580.192
1849.17,596.842
1850.62,586.926
1852.07,606.212
1853.52,586.308
1854.97,589.826
1856.42,596.13
1857.87,601.411
1859.32,603.747
1860.77,598.292
1862.22,583.775
1863.67,587.015
1865.12,592.566
1866.57,598.185
1868.02,597.497
1869.47,585.279
1870.92,588.63
1872.37,596.807
1873.82,598.699
1875.27,604.061
1876.72,588.709
1878.17,579.032
1879.62,580.955
1881.07,586.727
1882.52,590.766
1883.97,579.663
1885.42,585.309
1886.87,569.6
1888.32,581.122
1889.78,591.079
1891.23,554.043
1892.68,561.673
1894.13,561.664
1895.58,566.309
1897.03,563.579
1898.48,569.228
1899.93,556.982
1901.38,550.421
1902.83,551.793
1904.28,554.291
1905.73,548.496
1907.18,559.802
1908.63,556.653
1910.08,567.243
1911.53,558.913
1912.98,544.057
1914.43,552.295
1915.88,554.418
1917.33,549.76
1918.78,550.405
1920.23,551.162
1921.68,550.038
1923.13,543.301
1924.58,546.031
1926.03,549.767
1927.48,546.146
1928.93,555.076
1930.38,544.441
1931.83,559.511
1933.29,537.162
1934.74,546.299
1936.19,545.494
1937.64,537.327
1939.09,541.919
1940.54,539.854
1941.99,554.645
1943.44,541.77
1944.89,546.63
1946.34,548.727
1947.79,551.285
1949.24,534.961
1950.69,554.173
1952.14,558.474
1953.59,567.536
1955.04,573.463
1956.49,552.226
1957.94,556.697
1959.39,552.738
1960.84,539.401
1962.29,563.532
1963.74,554.617
1965.19,564.658
1966.64,567.71
1968.09,551.933
1969.54,550.334
1970.99,548.352
1972.44,551.785
1973.89,558.708
1975.34,567.583
1976.79,578.723
1978.25,580.021
1979.7,573.105
1981.15,571.139
1982.6,576.223
1984.05,577.919
1985.5,566.583
1986.95,563.797
1988.4,572.53
1989.85,566.359
1991.3,572.058
1992.75,573.108
1994.2,561.517
1995.65,575.8
1997.1,556.777
1998.55,561.588
2000,557.753
2001.45,569.969
2002.9,572.409
2004.35,585.707
2005.8,576.264
2007.25,563.831
2008.7,568.473
2010.15,563.298
2011.6,554.682
2013.05,548.875
2014.5,551.163
2015.95,561.963
2017.4,555.814
2018.85,550.788
2020.3,565.466
2021.75,573.879
2023.21,575.713
2024.66,568.31
2026.11,541.025
2027.56,580.827
2029.01,547.124
2030.46,554.655
2031.91,540.415
2033.36,561.013
2034.81,534.656
2036.26,576.26
2037.71,545.45
2039.16,554.844
2040.61,551.753
2042.06,533.259
2043.51,553.825
2044.96,553.32
2046.41,530.348
2047.86,530.651
2049.31,556.367
2050.76,526.964
2052.21,530.141
2053.66,521.349
2055.11,529.578
2056.56,540.858
2058.01,540.729
2059.46,537.242
2060.91,523.412
2062.36,520.706
2063.81,524.457
2065.26,524.772
2066.72,531.892
2068.17,529.566
2069.62,522.988
2071.07,532.573
2072.52,519.945
2073.97,521.029
2075.42,524.358
2076.87,525.608
2078.32,538.098
2079.77,533.287
2081.22,525.466
2082.67,515.22
2084.12,518.877
2085.57,520.639
2087.02,512.45
2088.47,520.078
2089.92,520.937
2091.37,521.54
2092.82,518.276
2094.27,523.54
2095.72,526.375
2097.17,521.357
2098.62,523.949
2100.07,513.213
2101.52,526.133
2102.97,527.932
2104.42,520.803
2105.87,527.112
2107.32,530.403
2108.77,531.88
2110.22,536.525
2111.68,539.932
2113.13,538.231
2114.58,528.887
2116.03,524.368
2117.48,524.552
2118.93,530.607
2120.38,537.348
2121.83,533.933
2123.28,537.049
2124.73,542.555
2126.18,543.835
2127.63,540.851
2129.08,538.716
2130.53,544.278
2131.98,546.504
2133.43,531.24
2134.88,533.9
2136.33,546.223
2137.78,538.703
2139.23,536.66
2140.68,539.397
2142.13,541.587
2143.58,555.912
2145.03,550.322
2146.48,547.356
2147.93,547.412
2149.38,546.965
2150.83,557.115
2152.28,553.442
2153.73,554.27
2155.18,559.719
2156.64,559.584
2158.09,553.362
2159.54,566.133
2160.99,564.564
2162.44,561.351
2163.89,573.892
2165.34,569.053
2166.79,566.21
2168.24,563.452
2169.69,565.331
2171.14,569.889
2172.59,563.851
2174.04,568.445
2175.49,583.636
2176.94,576.565
2178.39,581.638
2179.84,584.506
2181.29,578.874
2182.74,572.74
2184.19,579.144
2185.64,571.577
2187.09,571.653
2188.54,570.422
2189.99,573.327
2191.44,573.45
2192.89,575.295
2194.34,581.87
2195.79,592.494
2197.24,580.006
2198.69,585.386
2200.15,581.054
2201.6,582.478
2203.05,571.894
2204.5,574.232
2205.95,584.744
2207.4,588.845
2208.85,582.357
2210.3,585.956
2211.75,596.398
2213.2,609.925
2214.65,586.887
2216.1,601.411
2217.55,599.356
2219,586.39
2220.45,600.076
2221.9,598.037
2223.35,601.776
2224.8,610.341
2226.25,621.732
2227.7,599.048
2229.15,609.137
2230.6,619.565
2232.05,602.311
2233.5,595.925
2234.95,588.078
2236.4,616.021
2237.85,624.006
2239.3,606.972
2240.75,612.222
2242.2,617.301
2243.65,600.214
2245.11,618.277
2246.56,627.877
2248.01,620.962
2249.46,612.702
2250.91,628.287
2252.36,628.459
2253.81,646.626
2255.26,629.731
2256.71,618.528
2258.16,629.253
2259.61,644.423
2261.06,633.781
2262.51,617.33
2263.96,630.737
2265.41,647.087
2266.86,637.131
2268.31,649.08
2269.76,642.685
2271.21,633.711
2272.66,650.234
2274.11,647.255
2275.56,636.902
2277.01,643.498
2278.46,645.054
2279.91,645.054
2281.36,641.781
2282.81,656.709
2284.26,662.162
2285.71,655.27
2287.16,646.403
2288.61,661.049
2290.07,668.547
2291.52,679.822
2292.97,674.537
2294.42,677.372
2295.87,676.629
2297.32,665.136
2298.77,668.179
2300.22,671.016
2301.67,656.653
2303.12,684.316
2304.57,687.145
2306.02,685.93
2307.47,668.522
2308.92,676.432
2310.37,700.259
2311.82,695.666
2313.27,687.112
2314.72,675.823
2316.17,688.776
2317.62,690.038
2319.07,729.293
2320.52,714.117
2321.97,706.149
2323.42,729.56
2324.87,714.148
2326.32,721.71
2327.77,729.036
2329.22,723.99
2330.67,723.563
2332.12,739.92
2333.57,740.717
2335.03,751.999
2336.48,722.75
2337.93,736.523
2339.38,750.566
2340.83,749.497
2342.28,761.313
2343.73,763.55
2345.18,759.388
2346.63,773.917
2348.08,762.246
2349.53,762.71
2350.98,790.938
2352.43,792.436
2353.88,803.808
2355.33,801.463
2356.78,805.062
2358.23,823.16
2359.68,821.754
2361.13,812.489
2362.58,815.428
2364.03,842.332
2365.48,845.292
2366.93,886.195
2368.38,842.217
2369.83,862.41
2371.28,859.257
2372.73,890.73
2374.18,895.961
2375.63,907.122
2377.08,922.327
2378.54,926.786
2379.99,938.595
2381.44,953.387
2382.89,960.801
2384.34,966.838
2385.79,967.696
2387.24,986.777
2388.69,995.274
2390.14,1015.16
2391.59,1040.14
2393.04,1037.62
2394.49,1022.47
2395.94,1035.24
2397.39,1072.1
2398.84,1109.3
2400.29,1088.87
2401.74,1114.39
2403.19,1116.22
2404.64,1149.53
2406.09,1164.51
2407.54,1142.26
2408.99,1151.7
2410.44,1162.6
2411.89,1150.39
2413.34,1184.21
2414.79,1202.41
2416.24,1184.87
2417.69,1173.44
2419.14,1187.57
2420.59,1184.22
2422.04,1152.44
2423.5,1174.44
2424.95,1186.3
2426.4,1167.23
2427.85,1154.54
2429.3,1161.4
2430.75,1172.31
2432.2,1171.31
2433.65,1157.17
2435.1,1131.85
2436.55,1157.03
2438,1137.61
2439.45,1137.69
2440.9,1147.82
2442.35,1131.95
2443.8,1134.22
2445.25,1116.69
2446.7,1134.52
2448.15,1119.48
2449.6,1110.56
2451.05,1095.32
2452.5,1102.3
2453.95,1080.36
2455.4,1106.2
2456.85,1083.52
2458.3,1084.09
2459.75,1094.41
2461.2,1099.07
2462.65,1087.71
2464.1,1087.43
2465.55,1078.85
2467.01,1077.62
2468.46,1083.38
2469.91,1083.55
2471.36,1077.97
2472.81,1082.82
2474.26,1088.18
2475.71,1076.78
2477.16,1096.07
2478.61,1101.65
2480.06,1115.97
2481.51,1110.53
2482.96,1111.49
2484.41,1089.12
2485.86,1115.86
2487.31,1128.78
2488.76,1123.93
2490.21,1118.55
2491.66,1115.32
2493.11,1113.84
2494.56,1125.18
2496.01,1106.35
2497.46,1104.27
2498.91,1115.86
2500.36,1118.81
2501.81,1112.06
2503.26,1144.15
2504.71,1147.75
2506.16,1160.6
2507.61,1183.8
2509.06,1140.79
2510.51,1196.33
2511.97,1175.76
2513.42,1188.16
2514.87,1204.91
2516.32,1220.85
2517.77,1219.43
2519.22,1227.56
2520.67,1249.89
2522.12,1260.57
2523.57,1279.84
2525.02,1276.7
2526.47,1290.84
2527.92,1297.51
2529.37,1276.96
2530.82,1308.4
2532.27,1335.66
2533.72,1328.14
2535.17,1338.14
2536.62,1360.7
2538.07,1395.95
2539.52,1376.33
2540.97,1416.79
2542.42,1421.49
2543.87,1484.79
2545.32,1495.6
2546.77,1489.22
2548.22,1522.89
2549.67,1542.64
2551.12,1557.58
2552.57,1560.22
2554.02,1595.68
2555.48,1629.42
2556.93,1671.31
2558.38,1691.56
2559.83,1710.36
2561.28,1737.91
2562.73,1801.89
2564.18,1821.44
2565.63,1855.68
2567.08,1901.26
2568.53,1925.87
2569.98,1980.72
2571.43,2053.85
2572.88,2092.72
2574.33,2091.33
2575.78,2157.04
2577.23,2213.89
2578.68,2259.03
2580.13,2322.98
2581.58,2375
2583.03,2417.75
2584.48,2487.62
2585.93,2547.79
2587.38,2598.82
2588.83,2701.6
2590.28,2803.75
2591.73,2909.37
2593.18,2944.94
2594.63,3022.81
2596.08,3131.25
2597.53,3214.71
2598.98,3356.08
2600.44,3451.56
2601.89,3577.82
2603.34,3705.95
2604.79,3813.84
2606.24,3958.73
2607.69,4058.3
2609.14,4225.42
2610.59,4310.89
2612.04,4489.18
2613.49,4608.55
2614.94,4792.48
2616.39,4938.12
2617.84,5049.16
2619.29,5206.75
2620.74,5354.96
2622.19,5504.72
2623.64,5694.93
2625.09,5787.74
2626.54,5934.12
2627.99,6082.29
2629.44,6257.8
2630.89,6420.99
2632.34,6572.47
2633.79,6684.8
2635.24,6883.55
2636.69,6927.76
2638.14,7035.91
2639.59,7178.6
2641.04,7221.4
2642.49,7312.53
2643.94,7365.38
2645.4,7386.67
2646.85,7417.85
2648.3,7433.87
2649.75,7382.99
2651.2,7393.4
2652.65,7301.84
2654.1,7337.33
2655.55,7232.23
2657,7168.66
2658.45,7046.52
2659.9,6923.4
2661.35,6795.56
2662.8,6683.96
2664.25,6528.67
2665.7,6435.36
2667.15,6321.79
2668.6,6124.7
2670.05,5999.07
2671.5,5859.42
2672.95,5611.31
2674.4,5512.27
2675.85,5342.58
2677.3,5148.78
2678.75,5007.9
2680.2,4898.08
2681.65,4669.92
2683.1,4540.83
2684.55,4387.95
2686,4273.47
2687.45,4116.34
2688.91,3948.44
2690.36,3807.88
2691.81,3692.6
2693.26,3571.05
2694.71,3389.41
2696.16,3285.72
2697.61,3242.55
2699.06,3077.44
2700.51,2998.88
2701.96,2948.08
2703.41,2839.75
2704.86,2709.06
2706.31,2634.57
2707.76,2524.45
2709.21,2488.91
2710.66,2409.66
2712.11,2321.75
2713.56,2263.07
2715.01,2224.61
2716.46,2153.81
2717.91,2102.73
2719.36,2036.77
2720.81,2005.45
2722.26,1966.28
2723.71,1899.95
2725.16,1840.51
2726.61,1805.03
2728.06,1780.71
2729.51,1755.03
2730.96,1709.72
2732.41,1650.91
2733.87,1651.72
2735.32,1595.45
2736.77,1578.84
2738.22,1550.01
2739.67,1530.24
2741.12,1509.41
2742.57,1461.29
2744.02,1448.1
2745.47,1446.25
2746.92,1402.11
2748.37,1402.82
2749.82,1366.23
2751.27,1370.03
2752.72,1332.28
2754.17,1336.89
2755.62,1303.28
2757.07,1269.65
2758.52,1260.77
2759.97,1255.46
2761.42,1224.6
2762.87,1215.57
2764.32,1220.78
2765.77,1201.09
2767.22,1158.02
2768.67,1202.33
2770.12,1172.64
2771.57,1164.74
2773.02,1148.2
2774.47,1150.47
2775.92,1144.35
2777.38,1125.41
2778.83,1124.38
2780.28,1109.22
2781.73,1100.08
2783.18,1083.81
2784.63,1085.26
2786.08,1075.73
2787.53,1041.49
2788.98,1058.84
2790.43,1070.21
2791.88,1054.79
2793.33,1040.35
2794.78,1024.09
2796.23,1021.28
2797.68,1031.49
2799.13,1017.65
2800.58,1018.77
2802.03,1005.59
2803.48,997.972
2804.93,1008.05
2806.38,991.898
2807.83,972.283
2809.28,979.702
2810.73,968.258
2812.18,976.917
2813.63,977.585
2815.08,985.518
2816.53,959.39
2817.98,967.038
2819.43,977.575
2820.88,959.848
2822.33,945.164
2823.79,953.561
2825.24,941.974
2826.69,933.548
2828.14,927.287
2829.59,929.292
2831.04,943.012
2832.49,949.873
2833.94,906.895
2835.39,904.485
2836.84,907.278
2838.29,899.337
2839.74,899.341
2841.19,904.909
2842.64,920.852
2844.09,917.465
2845.54,907.057
2846.99,901.816
2848.44,899.33
2849.89,885.898
2851.34,900.537
2852.79,890.769
2854.24,880.875
2855.69,893.439
2857.14,915.192
2858.59,891.184
2860.04,879.149
2861.49,891.736
2862.94,874.085
2864.39,876.249
2865.84,895.405
2867.3,890.862
2868.75,889.105
2870.2,888.906
2871.65,872.954
2873.1,879.035
2874.55,897.182
2876,888.257
2877.45,890.998
2878.9,893.071
2880.35,887.893
2881.8,867.984
2883.25,875.298
2884.7,876.813
2886.15,876.65
2887.6,874.243
2889.05,866.068
2890.5,880.295
2891.95,888.599
2893.4,880.469
2894.85,885.791
2896.3,885.384
2897.75,872.79
2899.2,870.841
2900.65,869.579
2902.1,864.043
2903.55,860.387
2905,861.364
2906.45,863.95
2907.9,866.383
2909.35,858.899
2910.8,843.561
2912.26,842.88
2913.71,851.362
2915.16,822.053
2916.61,856.194
2918.06,843.961
2919.51,824.913
2920.96,843.406
2922.41,839.492
2923.86,837.39
2925.31,830.025
2926.76,817.126
2928.21,811.324
2929.66,809.324
2931.11,804.728
2932.56,795.855
2934.01,813.779
2935.46,797.114
2936.91,797.108
2938.36,793.833
2939.81,784.521
2941.26,775.898
2942.71,783.214
2944.16,786.742
2945.61,783.984
2947.06,782.731
2948.51,785.582
2949.96,768.348
2951.41,766.148
2952.86,778.618
2954.31,765.317
2955.77,760.202
2957.22,769.977
2958.67,761.212
2960.12,748.813
2961.57,783.895
2963.02,759.366
2964.47,755.862
2965.92,752.927
2967.37,757.464
2968.82,755.396
2970.27,762.298
2971.72,743.68
2973.17,745.792
2974.62,744.931
2976.07,736.484
2977.52,737.187
2978.97,743.33
2980.42,735.938
2981.87,747.833
2983.32,754.235
2984.77,745.594
2986.22,733.338
2987.67,741.67
2989.12,747.775
2990.57,751.6
2992.02,744.083
2993.47,731.849
2994.92,738.41
2996.37,751.138
2997.82,747.769
2999.27,754.839
3000.73,728.415
3002.18,744.79
3003.63,730.536
3005.08,740.148
3006.53,736.457
3007.98,718.68
3009.43,715.119
3010.88,724.793
3012.33,737.345
3013.78,753.039
3015.23,719.96
3016.68,732.866
3018.13,722.194
3019.58,732.368
3021.03,733.952
3022.48,721.238
3023.93,736.681
3025.38,750.856
3026.83,728.929
3028.28,738.752
3029.73,757.994
3031.18,759.954
3032.63,747.203
3034.08,760.693
3035.53,764.707
3036.98,719.718
3038.43,751.797
3039.88,755.869
3041.33,750.168
3042.78,748.764
3044.23,738.009
3045.69,737.827
3047.14,733.163
3048.59,748.827
3050.04,759.025
3051.49,737.758
3052.94,735.664
3054.39,750.869
3055.84,763.623
3057.29,759.574
3058.74,747.731
3060.19,766.393
3061.64,775.688
3063.09,781.5
3064.54,786.087
3065.99,782.579
3067.44,762.81
3068.89,779.302
3070.34,793.914
3071.79,816.925
3073.24,782.147
3074.69,799.992
3076.14,798.597
3077.59,803.901
3079.04,827.845
3080.49,826.586
3081.94,843.82
3083.39,837.121
3084.84,857.602
3086.29,844.909
3087.74,853.023
3089.2,857.276
3090.65,871.707
3092.1,876.962
3093.55,880.82
3095,877.784
3096.45,883.77
3097.9,897.679
3099.35,918.721
3100.8,927.53
3102.25,918.266
3103.7,946.392
3105.15,952.155
3106.6,941.706
3108.05,965.503
3109.5,946.801
3110.95,965.236
3112.4,970.242
3113.85,998.974
3115.3,994.53
3116.75,1005.77
3118.2,998.22
3119.65,1014.27
3121.1,1021.5
3122.55,1023.88
3124,1029.31
3125.45,1025.18
3126.9,1035.79
3128.35,1051.96
3129.8,1037.53
3131.25,1039.33
3132.7,1055.38
3134.16,1047.48
3135.61,1047.14
3137.06,1065.69
3138.51,1039.27
3139.96,1056.17
3141.41,1062.52
3142.86,1050.21
3144.31,1069.87
3145.76,1070.21
3147.21,1073.69
3148.66,1058.08
3150.11,1056.73
3151.56,1040.85
3153.01,1051.14
3154.46,1069.9
3155.91,1076.66
3157.36,1087.88
3158.81,1100.04
3160.26,1067.29
3161.71,1087.63
3163.16,1099.06
3164.61,1096.32
3166.06,1085.32
3167.51,1117.47
3168.96,1108.85
3170.41,1107.97
3171.86,1124.87
3173.31,1133.91
3174.76,1140.04
3176.21,1120.59
3177.67,1138.84
3179.12,1131.39
3180.57,1147.64
3182.02,1174.56
3183.47,1159.19
3184.92,1134.89
3186.37,1152.11
3187.82,1147.03
3189.27,1128.24
3190.72,1153.64
3192.17,1132.48
3193.62,1125.02
3195.07,1119.4
3196.52,1117.34
3197.97,1090.82
3199.42,1046.47
3200.87,1068.1
3202.32,1059.36
3203.77,1043.11
3205.22,1041.84
3206.67,1026.28
3208.12,1014.7
3209.57,993.319
3211.02,968.926
3212.47,990.773
3213.92,957.187
3215.37,930.454
3216.82,931.775
3218.27,912.867
3219.72,895.194
3221.17,897.205
3222.63,890.407
3224.08,888.443
3225.53,873.114
3226.98,866.55
3228.43,825.189
3229.88,851.319
3231.33,830.353
3232.78,808.753
3234.23,791.543
3235.68,798.712
3237.13,794.792
3238.58,792.079
3240.03,768.357
3241.48,757.791
3242.93,763.437
3244.38,773.098
3245.83,768.34
3247.28,770.262
3248.73,751.531
3250.18,758.776
3251.63,755.636
3253.08,754.797
3254.53,744.736
3255.98,717.5
3257.43,732.961
3258.88,732.611
3260.33,725.264
3261.78,724.598
3263.23,721.343
3264.68,738.148
3266.13,727.727
3267.59,710.795
3269.04,720.834
3270.49,733.623
3271.94,727.799
3273.39,707.887
3274.84,720.886
3276.29,713.807
3277.74,708.845
3279.19,726.791
3280.64,706.455
3282.09,716.016
3283.54,708.398
3284.99,718.123
3286.44,713.336
3287.89,706.764
3289.34,723.1
3290.79,723.201
3292.24,698.566
3293.69,728.564
3295.14,727.534
3296.59,715.348
3298.04,709.378
3299.49,707.596
3300.94,701.668
3302.39,711.941
3303.84,695.574
3305.29,706.125
3306.74,724.193
3308.19,710.697
3309.64,697.845
3311.09,703.99
3312.55,717.811
3314,713.117
3315.45,689.232
3316.9,700.518
3318.35,718.06
3319.8,692.207
3321.25,715.968
3322.7,702.104
3324.15,706.922
3325.6,715.89
3327.05,718.142
3328.5,699.271
3329.95,714.517
3331.4,722.552
3332.85,699.391
3334.3,693.298
3335.75,701.014
3337.2,706.202
3338.65,703.241
3340.1,705.624
3341.55,712.899
3343,711.937
3344.45,702.164
3345.9,710.138
3347.35,699.016
3348.8,687.838
3350.25,712.144
3351.7,704.28
3353.15,701.926
3354.6,711.761
3356.06,701.308
3357.51,707.524
3358.96,707.337
3360.41,701.653
3361.86,703.516
3363.31,698.083
3364.76,698.976
3366.21,705.471
3367.66,709.112
3369.11,709.947
3370.56,725.651
3372.01,720.084
3373.46,743.266
3374.91,712.445
3376.36,710.274
3377.81,704.393
3379.26,712.319
3380.71,695.739
3382.16,714.322
3383.61,708.407
3385.06,725.575
3386.51,713.733
3387.96,702.552
3389.41,686.123
3390.86,707.414
3392.31,713.18
3393.76,701.825
3395.21,712.284
3396.66,712.016
3398.11,730.199
3399.56,721.502
3401.02,722.805
3402.47,717.282
3403.92,703.246
3405.37,690.639
3406.82,720.454
3408.27,698.136
3409.72,703.355
3411.17,713.134
3412.62,715.944
3414.07,713.506
3415.52,718.307
3416.97,702.509
3418.42,719.478
3419.87,703.926
3421.32,708.096
3422.77,714.519
3424.22,724.131
3425.67,729.273
3427.12,732.917
3428.57,728.303
3430.02,713.195
3431.47,722.28
3432.92,729.251
3434.37,706.016
3435.82,718.619
3437.27,720.894
3438.72,718.907
3440.17,722.36
3441.62,709.334
3443.07,711.361
3444.52,719.42
3445.98,685.46
3447.43,725.796
3448.88,724.012
3450.33,718.526
3451.78,716.013
3453.23,722.549
3454.68,722.836
3456.13,719.538
3457.58,719.82
3459.03,712.865
3460.48,707.935
3461.93,737.194
3463.38,724.576
3464.83,731.649
3466.28,739.414
3467.73,739.959
3469.18,730.159
3470.63,718.989
3472.08,729.657
3473.53,742.018
3474.98,734.956
3476.43,707.174
3477.88,740.963
3479.33,736.943
3480.78,737.34
3482.23,727.231
3483.68,746.602
3485.13,700.696
3486.58,730.781
3488.03,744.314
3489.49,737.792
3490.94,716.904
3492.39,719.315
3493.84,728.818
3495.29,742.941
3496.74,742.66
3498.19,722.688
3499.64,735.276
3501.09,733.969
3502.54,745.295
3503.99,730.502
3505.44,734.15
3506.89,741.898
3508.34,747.789
3509.79,735.136
3511.24,739.69
3512.69,739.517
3514.14,734.886
3515.59,766.455
3517.04,744.479
3518.49,749.221
3519.94,747.744
3521.39,739.58
3522.84,751.202
3524.29,748.526
3525.74,746.017
3527.19,758.461
3528.64,733.829
3530.09,745.543
3531.54,752.108
3532.99,762.755
3534.45,757.612
3535.9,725.797
3537.35,750.488
3538.8,748.534
3540.25,744.331
3541.7,745.26
3543.15,739.916
3544.6,760.643
3546.05,741.83
3547.5,742.358
3548.95,750.425
3550.4,759.287
3551.85,753.051
3553.3,745.762
3554.75,735.415
3556.2,733.369
3557.65,752.882
3559.1,737.667
3560.55,747.28
3562,748.137
3563.45,749.015
3564.9,738.823
3566.35,752.441
3567.8,767.004
3569.25,757.034
3570.7,763.583
3572.15,758.669
3573.6,747.465
3575.05,743.361
3576.5,748.487
3577.96,754.424
3579.41,768.87
3580.86,750.366
3582.31,761.868
3583.76,764.486
3585.21,755.066
3586.66,745.619
3588.11,757.954
3589.56,761.154
3591.01,754.95
3592.46,783.784
3593.91,734.254
3595.36,736.844
3596.81,749.443
3598.26,765.06
3599.71,760.727
3601.16,757.207
3602.61,757.768
3604.06,765.582
3605.51,760.017
3606.96,774.253
3608.41,762.678
3609.86,781.056
3611.31,772.37
3612.76,763.112
3614.21,769.308
3615.66,770.319
3617.11,780.052
3618.56,758.058
3620.01,775.206
3621.46,792.949
3622.92,790.374
3624.37,775.287
3625.82,759.079
3627.27,774.029
3628.72,777.59
3630.17,768.031
3631.62,772.636
3633.07,762.248
3634.52,785.102
3635.97,760.948
3637.42,779.085
3638.87,781.66
3640.32,806.168
3641.77,777.168
3643.22,764.206
3644.67,792.695
3646.12,772.558
3647.57,790.778
3649.02,786.156
3650.47,780.137
3651.92,798.679
3653.37,789.325
3654.82,782.741
3656.27,781.122
3657.72,779.086
3659.17,778.326
3660.62,791.095
3662.07,790.535
3663.52,790.887
3664.97,780.572
3666.43,788.678
3667.88,812.467
3669.33,795.775
3670.78,794.39
3672.23,793.839
3673.68,801.302
3675.13,794.603
3676.58,789.278
3678.03,783.121
3679.48,785.122
3680.93,802.719
3682.38,796.932
3683.83,797.621
3685.28,782.727
3686.73,811.59
3688.18,798.011
3689.63,802.243
3691.08,792.405
3692.53,795.951
3693.98,799.817
3695.43,778.715
3696.88,806.557
3698.33,831.014
3699.78,807.756
3701.23,803.577
3702.68,801.462
3704.13,791.717
3705.58,790.755
3707.03,802.619
3708.48,792.743
3709.93,800.781
3711.39,806.096
3712.84,802.602
3714.29,822.898
3715.74,813.195
3717.19,810.852
3718.64,801.413
3720.09,809.505
3721.54,809.355
3722.99,814.735
3724.44,826.71
3725.89,819.904
3727.34,837.534
3728.79,833.049
3730.24,815.038
3731.69,806.342
3733.14,809.27
3734.59,805.203
3736.04,817.565
3737.49,806.066
3738.94,810.346
3740.39,811.165
3741.84,835.368
3743.29,837.567
3744.74,815.949
3746.19,823.106
3747.64,828.134
3749.09,822.12
3750.54,834.984
3751.99,832.058
3753.44,817.459
3754.89,827.632
3756.35,822.862
3757.8,821.197
3759.25,824.983
3760.7,817.705
3762.15,855.387
3763.6,838.2
3765.05,841.45
3766.5,839.882
3767.95,821.35
3769.4,836.548
3770.85,818.82
3772.3,833.686
3773.75,833.58
3775.2,839.299
3776.65,844.884
3778.1,849.218
3779.55,828.961
3781,829.26
3782.45,859.447
3783.9,845.248
3785.35,844.509
3786.8,848.635
3788.25,847.494
3789.7,874.159
3791.15,858.667
3792.6,838.046
3794.05,836.809
3795.5,855.725
3796.95,860.144
3798.4,832.605
3799.85,854.932
3801.31,858.479
3802.76,846.747
3804.21,846.795
3805.66,856.054
3807.11,856.016
3808.56,842.864
3810.01,839.108
3811.46,863.341
3812.91,845.505
3814.36,850.561
3815.81,877.846
3817.26,861.265
3818.71,867.341
3820.16,876.471
3821.61,867.095
3823.06,866.65
3824.51,862.018
3825.96,861.32
3827.41,859.944
3828.86,874.544
3830.31,872.169
3831.76,873.739
3833.21,888.752
3834.66,857.408
3836.11,855.394
3837.56,850.626
3839.01,865.593
3840.46,867.871
3841.91,874.878
3843.36,883.122
3844.82,873.502
3846.27,888.135
3847.72,885.808
3849.17,885.811
3850.62,888.407
3852.07,881.593
3853.52,878.152
3854.97,886.541
3856.42,865.162
3857.87,905.417
3859.32,892.895
3860.77,904.027
3862.22,885.489
3863.67,887.85
3865.12,872.028
3866.57,900.572
3868.02,894.555
3869.47,893.997
3870.92,908.743
3872.37,879.553
3873.82,907.298
3875.27,902.492
3876.72,911.142
3878.17,908.928
3879.62,890.053
3881.07,896.078
3882.52,918.182
3883.97,903.837
3885.42,915.56
3886.87,909.136
3888.32,908.039
3889.78,917.236
3891.23,917.586
3892.68,899.231
3894.13,899.231
3895.58,900.152
3897.03,922.786
3898.48,926.759
3899.93,931.226
3901.38,919.626
3902.83,932.757
3904.28,940.589
3905.73,923.738
3907.18,935.877
3908.63,929.336
3910.08,912.97
3911.53,923.982
3912.98,949.033
3914.43,932.341
3915.88,944.892
3917.33,939.828
3918.78,945.104
3920.23,930.529
3921.68,956.71
3923.13,933.386
3924.58,939.83
3926.03,958.932
3927.48,961.45
3928.93,936.019
3930.38,951.287
3931.83,981.084
3933.28,947.176
3934.74,970.557
3936.19,980.903
3937.64,972.655
3939.09,960.62
3940.54,943.286
3941.99,967.305
3943.44,977.146
3944.89,956.51
3946.34,957.521
3947.79,965.216
3949.24,953.014
3950.69,995.703
3952.14,978.023
3953.59,958.026
3955.04,986.091
3956.49,998.955
3957.94,983.983
3959.39,992.804
3960.84,1022.2
3962.29,974.886
3963.74,1007.07
3965.19,969.298
3966.64,1013.34
3968.09,1015.64
3969.54,1002.67
3970.99,997.896
3972.44,994.006
3973.89,1001.4
3975.34,1016.59
3976.79,972.397
3978.25,1017.39
3979.7,1027.21
3981.15,1005.5
3982.6,1028.18
3984.05,1032.81
3985.5,997.257
3986.95,1030.8
3988.4,1056.49
3989.85,1024.83
3991.3,1024.76
3992.75,1028.77
3994.2,1014.76
3995.65,1032.54
3997.1,1013.91
3998.55,1042.1
4000,1024.67
