0.1,54.4921
1.45033,54.4921
2.90065,54.4921
4.35098,54.4921
5.80131,54.4921
7.25163,44.9559
8.70196,101.438
10.1523,69.8565
11.6026,54.6849
13.0529,47.4541
14.5033,41.8563
15.9536,36.633
17.4039,33.337
18.8542,30.9282
20.3046,31.9675
21.7549,31.8803
23.2052,28.0611
24.6555,24.396
26.1059,24.9746
27.5562,24.2353
29.0065,21.8123
30.4569,18.8835
31.9072,16.1325
33.3575,16.8244
34.8078,17.7018
36.2582,17.3729
37.7085,16.4553
39.1588,16.8923
40.6091,14.3533
42.0595,11.4979
43.5098,11.3415
44.9601,14.831
46.4104,16.9601
47.8608,21.5201
49.3111,28.2174
50.7614,34.6671
52.2117,55.6201
53.6621,102.082
55.1124,173.367
56.5627,271.447
58.0131,407.538
59.4634,531.803
60.9137,648.451
62.364,751.345
63.8144,835.91
65.2647,914.132
66.715,956.936
68.1653,982.635
69.6157,1001.8
71.066,1023.79
72.5163,1025.08
73.9666,1025.15
75.417,1022.3
76.8673,1016.62
78.3176,1011.1
79.7679,1033.67
81.2183,1063.03
82.6686,1095.52
84.1189,1127.5
85.5693,1145.94
87.0196,1158.3
88.4699,1151.2
89.9202,1137.13
91.3706,1135.5
92.8209,1093.22
94.2712,1072.97
95.7215,1053.51
97.1719,1025.12
98.6222,985.781
100.073,966.907
101.523,957.479
102.973,940.486
104.423,907.566
105.874,867.453
107.324,871.392
108.774,857.861
110.225,836.888
111.675,825.125
113.125,821.425
114.576,811.939
116.026,798.063
117.476,783.41
118.927,771.132
120.377,737.027
121.827,729.073
123.278,730.963
124.728,726.289
126.178,695.722
127.629,674.202
129.079,660.048
130.529,647.328
131.98,635.634
133.43,633.039
134.88,623.946
136.331,619.821
137.781,613.755
139.231,604.517
140.682,609.898
142.132,586.859
143.582,567.694
145.033,559.995
146.483,562.67
147.933,550.785
149.384,539.856
150.834,519.077
152.284,500.828
153.735,501.76
155.185,515.511
156.635,485.794
158.086,485.098
159.536,494.219
160.986,458.626
162.437,460.858
163.887,463.531
165.337,470.856
166.788,473.716
168.238,454.163
169.688,460.312
171.139,459.264
172.589,453.863
174.039,448.363
175.489,448.923
176.94,436.969
178.39,430.446
179.84,433.858
181.291,439.534
182.741,422.387
184.191,408.458
185.642,402.736
187.092,395.73
188.542,387.412
189.993,395.816
191.443,397.501
192.893,395.965
194.344,393.655
195.794,392.804
197.244,395.605
198.695,399.626
200.145,392.834
201.595,387.16
203.046,388.57
204.496,383.339
205.946,399.46
207.397,399.762
208.847,395.563
210.297,394.758
211.748,381.484
213.198,383.089
214.648,378.751
216.099,371.633
217.549,365.461
218.999,357.415
220.45,350.556
221.9,341.582
223.35,341.443
224.801,355.099
226.251,366.709
227.701,362.57
229.152,360.438
230.602,357.404
232.052,349.711
233.503,337.328
234.953,357.054
236.403,353.713
237.854,347.485
239.304,350.977
240.754,338.396
242.204,334.197
243.655,340.381
245.105,335.675
246.555,320.679
248.006,346.58
249.456,338.298
250.906,338.586
252.357,338.114
253.807,331.941
255.257,328.744
256.708,339.477
258.158,339.565
259.608,339.147
261.059,341.812
262.509,340.117
263.959,321.769
265.41,320.538
266.86,331.135
268.31,341.128
269.761,332.384
271.211,334.268
272.661,324.45
274.112,322.142
275.562,330.399
277.012,338.992
278.463,322.966
279.913,324.392
281.363,319.634
282.814,310.897
284.264,311.576
285.714,308.934
287.165,307.078
288.615,307.84
290.065,306.37
291.516,298.22
292.966,294.255
294.416,303.132
295.867,301.951
297.317,297.321
298.767,296.122
300.218,284.23
301.668,293.067
303.118,295.66
304.569,299.059
306.019,302.834
307.469,283.922
308.919,291.59
310.37,289.184
311.82,286.157
313.27,282.898
314.721,267.675
316.171,260.67
317.621,255.871
319.072,264.395
320.522,272.121
321.972,255.153
323.423,262.353
324.873,264.974
326.323,264.412
327.774,261.573
329.224,259.571
330.674,272.463
332.125,267.421
333.575,263.21
335.025,263.369
336.476,265.838
337.926,261.854
339.376,264.041
340.827,261.977
342.277,256.505
343.727,257.209
345.178,279.54
346.628,254.089
348.078,249.258
349.529,251
350.979,251.6
352.429,249.406
353.88,260.43
355.33,251.714
356.78,250.659
358.231,255.179
359.681,256.364
361.131,245.902
362.582,248.522
364.032,253.302
365.482,257.164
366.933,255.992
368.383,244.876
369.833,246.972
371.284,236.807
372.734,238.563
374.184,245.733
375.635,241.73
377.085,245.541
378.535,248.346
379.986,250.394
381.436,251.544
382.886,251.925
384.336,252.306
385.787,249.171
387.237,249.757
388.687,247.229
390.138,241.879
391.588,240.047
393.038,242.146
394.489,243.926
395.939,244.828
397.389,248.685
398.84,254.369
400.29,240.997
401.74,241.221
403.191,240.463
404.641,249.83
406.091,259.195
407.542,237.683
408.992,246.48
410.442,245.61
411.893,241.415
413.343,241.383
414.793,248.936
416.244,251.424
417.694,239.959
419.144,237.643
420.595,232.692
422.045,228.743
423.495,249.478
424.946,255.416
426.396,237.836
427.846,229.011
429.297,232.383
430.747,239.745
432.197,246.463
433.648,234.278
435.098,228.957
436.548,237.168
437.999,247.035
439.449,233.881
440.899,244.435
442.35,236.667
443.8,236.884
445.25,237.937
446.701,232.046
448.151,242.044
449.601,238.633
451.051,232.186
452.502,233.774
453.952,241.195
455.402,242.875
456.853,241.912
458.303,229.608
459.753,235.964
461.204,243.175
462.654,237.378
464.104,232.206
465.555,241.25
467.005,238.045
468.455,235.891
469.906,234.179
471.356,229.279
472.806,236.99
474.257,234.189
475.707,234.629
477.157,234.459
478.608,238.231
480.058,255.741
481.508,240.515
482.959,240.743
484.409,234.628
485.859,233.557
487.31,242.103
488.76,235.941
490.21,240.572
491.661,230.128
493.111,230.787
494.561,239.189
496.012,240.52
497.462,235.307
498.912,233.724
500.363,225.032
501.813,225.469
503.263,235.323
504.714,240.346
506.164,232.809
507.614,225.092
509.065,222.592
510.515,224.22
511.965,227.603
513.416,230.343
514.866,226.083
516.316,225.076
517.766,234.454
519.217,235.594
520.667,221.834
522.117,223.792
523.568,229.802
525.018,233.493
526.468,234.763
527.919,232.17
529.369,225.552
530.819,219.732
532.27,223.68
533.72,223.665
535.17,228.231
536.621,236.057
538.071,237.736
539.521,219.31
540.972,229.243
542.422,236.118
543.872,235.131
545.323,230.096
546.773,228.504
548.223,231.031
549.674,229.479
551.124,232.905
552.574,236.386
554.025,238.039
555.475,239.361
556.925,231.19
558.376,235.009
559.826,233.278
561.276,229.456
562.727,228.672
564.177,232.566
565.627,234.319
567.078,231.787
568.528,223.122
569.978,228.355
571.429,239.39
572.879,219.826
574.329,223.528
575.78,224.167
577.23,224.362
578.68,227.039
580.131,230.224
581.581,227.927
583.031,233.78
584.482,226.021
585.932,229.128
587.382,232.397
588.832,230.545
590.283,233.069
591.733,235.412
593.183,244.098
594.634,237.482
596.084,231.587
597.534,232.775
598.985,229.497
600.435,230.866
601.885,238.662
603.336,237.937
604.786,230.92
606.236,226.621
607.687,232.033
609.137,221.271
610.587,228.047
612.038,224.58
613.488,227.524
614.938,235.562
616.389,231.714
617.839,229.755
619.289,216.71
620.74,230.229
622.19,239.606
623.64,234.232
625.091,226.901
626.541,236.911
627.991,232.833
629.442,230.372
630.892,232.746
632.342,237.351
633.793,238.793
635.243,232.71
636.693,238.299
638.144,233.016
639.594,241.053
641.044,242.299
642.495,226.751
643.945,236.895
645.395,244.95
646.846,239.954
648.296,242.579
649.746,245.578
651.197,244.059
652.647,246.356
654.097,247.93
655.547,246.707
656.998,240.455
658.448,236.201
659.898,233.411
661.349,228.868
662.799,246.386
664.249,248.145
665.7,245.368
667.15,248.448
668.6,251.195
670.051,244.497
671.501,237.838
672.951,251.238
674.402,252.759
675.852,246.749
677.302,250.482
678.753,260.233
680.203,242.735
681.653,253.398
683.104,259.182
684.554,257.039
686.004,251.607
687.455,249.665
688.905,254.671
690.355,256.448
691.806,259.547
693.256,252.983
694.706,252.277
696.157,254.17
697.607,251.894
699.057,254.31
700.508,258.069
701.958,268.875
703.408,266.729
704.859,260.101
706.309,258.415
707.759,259.96
709.21,249.277
710.66,246.17
712.11,253.866
713.561,251.867
715.011,250.357
716.461,260.469
717.912,252.463
719.362,248.894
720.812,252.689
722.263,253.635
723.713,260.489
725.163,268.639
726.613,260.418
728.064,255.859
729.514,260.645
730.964,259.342
732.415,257.472
733.865,257.16
735.315,256.615
736.766,253.779
738.216,270.073
739.666,265.143
741.117,256.31
742.567,257.241
744.017,258.285
745.468,245.463
746.918,259.983
748.368,258.329
749.819,251.394
751.269,256.431
752.719,258.727
754.17,251.347
755.62,254.036
757.07,266.979
758.521,263.786
759.971,251.493
761.421,252.779
762.872,260.193
764.322,257.722
765.772,254.077
767.223,262.051
768.673,269.498
770.123,258.713
771.574,253.592
773.024,260.622
774.474,263.713
775.925,251.151
777.375,258.735
778.825,263.015
780.276,261.773
781.726,260.673
783.176,259.505
784.627,254.076
786.077,263.465
787.527,263.208
788.978,258.487
790.428,267.978
791.878,272.623
793.328,266.407
794.779,274.265
796.229,263.066
797.68,268.761
799.13,267.116
800.58,265.425
802.03,267.053
803.481,273.028
804.931,282.9
806.381,268.886
807.832,275.505
809.282,269.019
810.732,264.838
812.183,266.501
813.633,268.91
815.083,270.744
816.534,272.949
817.984,273.332
819.434,277.251
820.885,274.284
822.335,273.187
823.785,279.225
825.236,271.652
826.686,267.237
828.136,278.306
829.587,272.496
831.037,275.272
832.487,288.468
833.938,292.672
835.388,274.458
836.838,285.106
838.289,292.634
839.739,281.803
841.189,281.719
842.64,290.202
844.09,293.559
845.54,294.609
846.991,286.162
848.441,286.114
849.891,288.257
851.342,288.816
852.792,293.743
854.242,298.983
855.693,285.085
857.143,266.359
858.593,288.415
860.044,296.056
861.494,295.994
862.944,291.54
864.394,288.941
865.845,295.824
867.295,295.623
868.745,293.839
870.196,297.649
871.646,289.371
873.096,283.628
874.547,283.275
875.997,277.935
877.447,284.761
878.898,280.32
880.348,294.842
881.798,297.937
883.249,294.798
884.699,293.743
886.149,295.072
887.6,291.786
889.05,276.613
890.5,289.059
891.951,292.05
893.401,290.438
894.851,292.042
896.302,295.476
897.752,291.908
899.202,290.29
900.653,302.18
902.103,298.111
903.553,302.011
905.004,302.645
906.454,303.675
907.904,320.798
909.355,325.02
910.805,322.181
912.255,316.144
913.706,299.851
915.156,298.771
916.606,305.362
918.057,306.736
919.507,316.704
920.957,292.341
922.408,301.986
923.858,318.543
925.308,319.112
926.759,312.68
928.209,316.465
929.659,330.374
931.109,323.707
932.56,323.707
934.01,326.217
935.46,330.548
936.911,318.122
938.361,312.583
939.811,325.433
941.262,320.833
942.712,335.267
944.162,327.912
945.613,328.359
947.063,313.738
948.513,309.801
949.964,321.054
951.414,324.431
952.864,313.508
954.315,321.039
955.765,329.335
957.215,328.348
958.666,325.959
960.116,323.547
961.566,321.366
963.017,319.61
964.467,310.748
965.917,321.768
967.368,321.736
968.818,323.179
970.268,317.032
971.719,311.46
973.169,314.951
974.619,320.837
976.07,326.468
977.52,319.937
978.97,334.499
980.421,331.145
981.871,330.702
983.321,329.345
984.772,323.076
986.222,333.579
987.672,318.239
989.123,330.433
990.573,325.624
992.023,326.825
993.474,327.608
994.924,325.541
996.374,326.353
997.825,331.018
999.275,324.054
1000.73,334.609
1002.18,332.388
1003.63,339.824
1005.08,346.271
1006.53,348.891
1007.98,350.365
1009.43,344.293
1010.88,338.755
1012.33,342.333
1013.78,362.177
1015.23,357.296
1016.68,352.704
1018.13,356.434
1019.58,357.999
1021.03,356.238
1022.48,351.389
1023.93,371.312
1025.38,369.417
1026.83,381.038
1028.28,376.893
1029.73,369.495
1031.18,373.25
1032.63,368.219
1034.08,369.924
1035.53,373.626
1036.98,397.491
1038.43,402.285
1039.88,396.982
1041.33,398.929
1042.78,401.747
1044.23,393.385
1045.69,408.781
1047.14,403.427
1048.59,399.988
1050.04,406.177
1051.49,404.667
1052.94,408.402
1054.39,419.731
1055.84,424.674
1057.29,421.956
1058.74,431.647
1060.19,435.884
1061.64,430.948
1063.09,442.365
1064.54,450.69
1065.99,452.766
1067.44,457.766
1068.89,466.592
1070.34,481.203
1071.79,474.595
1073.24,468.546
1074.69,459.514
1076.14,462.442
1077.59,472.357
1079.04,479.119
1080.49,480.477
1081.94,478.433
1083.39,461.686
1084.84,492.312
1086.29,489.602
1087.74,476.401
1089.2,480.893
1090.65,486.312
1092.1,477.582
1093.55,472.33
1095,470.783
1096.45,464.778
1097.9,462.831
1099.35,465.666
1100.8,464.163
1102.25,469.939
1103.7,460.024
1105.15,441.787
1106.6,479.539
1108.05,475.737
1109.5,455.182
1110.95,453.89
1112.4,451.835
1113.85,455.083
1115.3,458.936
1116.75,456.138
1118.2,449.289
1119.65,447.349
1121.1,435.989
1122.55,455.095
1124,439.935
1125.45,435.12
1126.9,442.84
1128.35,442.227
1129.8,438.827
1131.25,443.263
1132.7,427.163
1134.16,441.924
1135.61,448.372
1137.06,430.709
1138.51,430.383
1139.96,425.969
1141.41,424.604
1142.86,424.985
1144.31,419.688
1145.76,430.968
1147.21,426.137
1148.66,417.17
1150.11,430.397
1151.56,423.982
1153.01,411.978
1154.46,413.28
1155.91,419.086
1157.36,419.419
1158.81,431.32
1160.26,428.736
1161.71,404.511
1163.16,426.679
1164.61,422.089
1166.06,420.874
1167.51,426.385
1168.96,426.306
1170.41,420.116
1171.86,418.772
1173.31,415.161
1174.76,410.774
1176.21,419.662
1177.66,416.628
1179.12,416.178
1180.57,418.593
1182.02,422.018
1183.47,422.587
1184.92,421.762
1186.37,433.558
1187.82,422.246
1189.27,429.571
1190.72,427.114
1192.17,423.501
1193.62,422.246
1195.07,414.914
1196.52,415.297
1197.97,431.73
1199.42,436.357
1200.87,432.072
1202.32,435.639
1203.77,413.123
1205.22,426.962
1206.67,428.647
1208.12,418.387
1209.57,419.595
1211.02,427.233
1212.47,425.867
1213.92,436.003
1215.37,423.329
1216.82,436.359
1218.27,432.842
1219.72,442.972
1221.17,441.649
1222.63,433.089
1224.08,433.865
1225.53,437.637
1226.98,426.413
1228.43,420.83
1229.88,446.601
1231.33,428.075
1232.78,449.887
1234.23,442.221
1235.68,449.283
1237.13,455.096
1238.58,456.252
1240.03,457.924
1241.48,455.447
1242.93,471.167
1244.38,455.797
1245.83,442.091
1247.28,451.191
1248.73,473.977
1250.18,471.666
1251.63,459.886
1253.08,462.444
1254.53,470.86
1255.98,470.189
1257.43,483.526
1258.88,491.169
1260.33,478.497
1261.78,488.759
1263.23,493.806
1264.68,487.661
1266.13,491.895
1267.59,505.846
1269.04,518.183
1270.49,521.625
1271.94,514.925
1273.39,537.934
1274.84,531.368
1276.29,531.287
1277.74,545.901
1279.19,545.706
1280.64,558.504
1282.09,568.681
1283.54,578.346
1284.99,594.983
1286.44,597.479
1287.89,605.514
1289.34,587.639
1290.79,626.213
1292.24,640.799
1293.69,644.56
1295.14,662.099
1296.59,684.608
1298.04,695.083
1299.49,706.386
1300.94,734.347
1302.39,752.974
1303.84,755.222
1305.29,768.596
1306.74,794.847
1308.19,808.575
1309.64,836.93
1311.09,873.786
1312.55,906.042
1314,929.97
1315.45,958.986
1316.9,994.619
1318.35,1011.88
1319.8,1054.73
1321.25,1069.19
1322.7,1079.96
1324.15,1132.73
1325.6,1131.88
1327.05,1126.74
1328.5,1126.26
1329.95,1133.55
1331.4,1151.21
1332.85,1160.78
1334.3,1152.63
1335.75,1153.98
1337.2,1115.2
1338.65,1106.22
1340.1,1071.98
1341.55,1068.32
1343,1044.66
1344.45,1007.3
1345.9,990.622
1347.35,982.121
1348.8,946.974
1350.25,900.315
1351.7,868.065
1353.15,860.95
1354.6,867.783
1356.06,841.387
1357.51,787.05
1358.96,758.148
1360.41,755.304
1361.86,748.744
1363.31,736.907
1364.76,730.516
1366.21,713.53
1367.66,677.196
1369.11,669.869
1370.56,680.789
1372.01,663.667
1373.46,662.395
1374.91,649.036
1376.36,654.621
1377.81,647.408
1379.26,630.223
1380.71,621.267
1382.16,621.848
1383.61,627.974
1385.06,612.333
1386.51,590.832
1387.96,612.265
1389.41,614.264
1390.86,626.091
1392.31,623.684
1393.76,604.305
1395.21,610.822
1396.66,608.45
1398.11,601.957
1399.56,625.073
1401.02,629.111
1402.47,625.671
1403.92,621.676
1405.37,630.491
1406.82,635.772
1408.27,635.47
1409.72,621.86
1411.17,639.923
1412.62,645.691
1414.07,625.969
1415.52,622.933
1416.97,640.953
1418.42,644.815
1419.87,659.584
1421.32,660.035
1422.77,665.193
1424.22,646.662
1425.67,656.302
1427.12,687.686
1428.57,671.231
1430.02,670.228
1431.47,681.181
1432.92,683.584
1434.37,687.714
1435.82,698.594
1437.27,710.391
1438.72,737.442
1440.17,719.735
1441.62,711.962
1443.07,725.907
1444.53,713.199
1445.98,733.725
1447.43,754.116
1448.88,762.45
1450.33,753.713
1451.78,751.69
1453.23,774.058
1454.68,795.806
1456.13,795.969
1457.58,802.409
1459.03,812.764
1460.48,828.775
1461.93,810.109
1463.38,849.581
1464.83,864.048
1466.28,863.786
1467.73,874.291
1469.18,888.584
1470.63,911.791
1472.08,941.422
1473.53,958.49
1474.98,964.94
1476.43,975.305
1477.88,997.662
1479.33,985.248
1480.78,1028.9
1482.23,1049.66
1483.68,1066.35
1485.13,1107.75
1486.58,1121.78
1488.03,1130.99
1489.49,1170.02
1490.94,1202.93
1492.39,1214.05
1493.84,1235.69
1495.29,1265.75
1496.74,1322.66
1498.19,1346.93
1499.64,1398.47
1501.09,1392.6
1502.54,1483.92
1503.99,1545.86
1505.44,1591.89
1506.89,1658.9
1508.34,1725.85
1509.79,1791.64
1511.24,1867.51
1512.69,1956.93
1514.14,2059.78
1515.59,2169.28
1517.04,2279.08
1518.49,2397.83
1519.94,2529.89
1521.39,2717.94
1522.84,2922.92
1524.29,3095.13
1525.74,3285.1
1527.19,3579.75
1528.64,3853.45
1530.09,4115.81
1531.54,4432.88
1532.99,4795.46
1534.45,5199.09
1535.9,5636.34
1537.35,6048.13
1538.8,6532.61
1540.25,6963.62
1541.7,7524.39
1543.15,8091.71
1544.6,8758.08
1546.05,9233.34
1547.5,9749.68
1548.95,10302.2
1550.4,10914.2
1551.85,11416.2
1553.3,11434.4
1554.75,11453.1
1556.2,11485.8
1557.65,11513.9
1559.1,11534.5
1560.55,11607.6
1562,11572
1563.45,11562.9
1564.9,11557.7
1566.35,11536
1567.8,11446.7
1569.25,10880.2
1570.7,10247.8
1572.15,9606.71
1573.6,8977.65
1575.05,8363.76
1576.5,7733.82
1577.96,7115.32
1579.41,6568.45
1580.86,6079.18
1582.31,5593.48
1583.76,5119.37
1585.21,4778.81
1586.66,4413.96
1588.11,4133.34
1589.56,3840.03
1591.01,3591.06
1592.46,3341.34
1593.91,3160.02
1595.36,2954.72
1596.81,2798.33
1598.26,2659
1599.71,2507.87
1601.16,2382.05
1602.61,2265.5
1604.06,2146
1605.51,2042.02
1606.96,1949.76
1608.41,1850.77
1609.86,1797.15
1611.31,1715.68
1612.76,1629.94
1614.21,1592.9
1615.66,1527.93
1617.11,1464.97
1618.56,1413.19
1620.01,1373.68
1621.46,1341.25
1622.92,1294.52
1624.37,1246.62
1625.82,1202.83
1627.27,1183.23
1628.72,1163.49
1630.17,1115.89
1631.62,1090.4
1633.07,1092.26
1634.52,1058.07
1635.97,1058.32
1637.42,1040.33
1638.87,997.082
1640.32,986.034
1641.77,979.808
1643.22,964.725
1644.67,944.68
1646.12,926.702
1647.57,920.228
1649.02,904.511
1650.47,887.891
1651.92,879.632
1653.37,879.848
1654.82,871.492
1656.27,877.425
1657.72,853.724
1659.17,849.197
1660.62,824.058
1662.07,812.999
1663.52,798.375
1664.97,806.457
1666.42,783.885
1667.88,784.845
1669.33,765.006
1670.78,752.487
1672.23,768.597
1673.68,769.243
1675.13,762.438
1676.58,751.411
1678.03,750.892
1679.48,756.857
1680.93,743.361
1682.38,724.414
1683.83,735.606
1685.28,715.366
1686.73,703.96
1688.18,691.109
1689.63,697.205
1691.08,714.405
1692.53,710.764
1693.98,691.275
1695.43,694.369
1696.88,704.072
1698.33,700.249
1699.78,695.35
1701.23,692.35
1702.68,697.291
1704.13,685.713
1705.58,694.492
1707.03,683.968
1708.48,696.769
1709.93,662.153
1711.39,668.932
1712.84,694.77
1714.29,676.23
1715.74,666.344
1717.19,674.697
1718.64,684.96
1720.09,676.22
1721.54,682.675
1722.99,683.246
1724.44,668.929
1725.89,675.288
1727.34,678.645
1728.79,663.302
1730.24,670.305
1731.69,668.942
1733.14,665.856
1734.59,652.737
1736.04,679.496
1737.49,659.408
1738.94,642.084
1740.39,636.293
1741.84,629.625
1743.29,628.706
1744.74,640.949
1746.19,641.369
1747.64,644.29
1749.09,627.777
1750.54,638.359
1751.99,629.128
1753.44,606.834
1754.89,613.636
1756.35,621.266
1757.8,609.12
1759.25,613.356
1760.7,619.186
1762.15,597.365
1763.6,606.07
1765.05,602.818
1766.5,607.07
1767.95,594.546
1769.4,590.863
1770.85,586.128
1772.3,602.039
1773.75,578.64
1775.2,595.24
1776.65,576.922
1778.1,574.869
1779.55,580.622
1781,573.74
1782.45,580.796
1783.9,583.744
1785.35,582.125
1786.8,581.453
1788.25,590.264
1789.7,582.298
1791.15,573.08
1792.6,578.221
1794.05,564.369
1795.5,566.111
1796.95,572.984
1798.4,586.908
1799.85,590.26
1801.31,573.7
1802.76,558.357
1804.21,562.63
1805.66,573.632
1807.11,572.958
1808.56,552.935
1810.01,559.227
1811.46,545.749
1812.91,542.874
1814.36,564.215
1815.81,565.6
1817.26,564.711
1818.71,550.889
1820.16,548.793
1821.61,556.222
1823.06,554.948
1824.51,560.384
1825.96,564.907
1827.41,564.713
1828.86,567.289
1830.31,565.113
1831.76,572.701
1833.21,574.667
1834.66,560.091
1836.11,574.842
1837.56,563.405
1839.01,564.503
1840.46,574.269
1841.91,571.823
1843.36,590.456
1844.82,579.888
1846.27,573.115
1847.72,569.637
1849.17,585.984
1850.62,576.249
1852.07,595.184
1853.52,575.642
1854.97,579.096
1856.42,585.285
1857.87,590.47
1859.32,592.764
1860.77,587.408
1862.22,573.155
1863.67,576.336
1865.12,581.786
1866.57,587.303
1868.02,586.628
1869.47,574.631
1870.92,577.921
1872.37,585.95
1873.82,587.807
1875.27,593.072
1876.72,577.999
1878.17,568.498
1879.62,570.386
1881.07,576.054
1882.52,580.018
1883.97,569.118
1885.42,574.661
1886.87,559.238
1888.32,570.55
1889.78,580.326
1891.23,543.964
1892.68,551.455
1894.13,551.446
1895.58,556.007
1897.03,553.326
1898.48,558.873
1899.93,546.849
1901.38,540.408
1902.83,541.755
1904.28,544.207
1905.73,538.518
1907.18,549.619
1908.63,546.526
1910.08,556.924
1911.53,548.745
1912.98,534.159
1914.43,542.248
1915.88,544.332
1917.33,539.759
1918.78,540.392
1920.23,541.135
1921.68,540.032
1923.13,533.417
1924.58,536.097
1926.03,539.766
1927.48,536.211
1928.93,544.979
1930.38,534.537
1931.83,549.332
1933.29,527.39
1934.74,536.36
1936.19,535.57
1937.64,527.552
1939.09,532.06
1940.54,530.033
1941.99,544.555
1943.44,531.914
1944.89,536.686
1946.34,538.745
1947.79,541.256
1949.24,525.229
1950.69,544.091
1952.14,548.314
1953.59,557.212
1955.04,563.03
1956.49,542.18
1957.94,546.569
1959.39,542.683
1960.84,529.589
1962.29,553.28
1963.74,544.527
1965.19,554.386
1966.64,557.382
1968.09,541.892
1969.54,540.323
1970.99,538.376
1972.44,541.747
1973.89,548.544
1975.34,557.258
1976.79,568.195
1978.25,569.469
1979.7,562.679
1981.15,560.749
1982.6,565.741
1984.05,567.405
1985.5,556.275
1986.95,553.541
1988.4,562.115
1989.85,556.056
1991.3,561.651
1992.75,562.682
1994.2,551.302
1995.65,565.325
1997.1,546.648
1998.55,551.371
2000,547.607
2001.45,559.6
2002.9,561.996
2004.35,575.052
2005.8,565.781
2007.25,553.574
2008.7,558.131
2010.15,553.051
2011.6,544.591
2013.05,538.89
2014.5,541.136
2015.95,551.74
2017.4,545.702
2018.85,540.768
2020.3,555.179
2021.75,563.44
2023.21,565.24
2024.66,557.971
2026.11,531.183
2027.56,570.261
2029.01,537.171
2030.46,544.565
2031.91,530.584
2033.36,550.808
2034.81,524.93
2036.26,565.776
2037.71,535.527
2039.16,544.75
2040.61,541.716
2042.06,523.558
2043.51,543.75
2044.96,543.254
2046.41,520.7
2047.86,520.998
2049.31,546.245
2050.76,517.377
2052.21,520.497
2053.66,511.865
2055.11,519.944
2056.56,531.018
2058.01,530.892
2059.46,527.469
2060.91,513.891
2062.36,511.234
2063.81,514.916
2065.26,515.226
2066.72,522.216
2068.17,519.932
2069.62,513.474
2071.07,522.884
2072.52,510.486
2073.97,511.551
2075.42,514.819
2076.87,516.046
2078.32,528.309
2079.77,523.585
2081.22,515.907
2082.67,505.847
2084.12,509.438
2085.57,511.168
2087.02,503.128
2088.47,510.617
2089.92,511.46
2091.37,512.052
2092.82,508.848
2094.27,514.016
2095.72,516.799
2097.17,511.873
2098.62,514.418
2100.07,503.877
2101.52,516.562
2102.97,518.328
2104.42,511.329
2105.87,517.523
2107.32,520.754
2108.77,522.204
2110.22,526.765
2111.68,530.11
2113.13,528.44
2114.58,519.266
2116.03,514.829
2117.48,515.009
2118.93,520.955
2120.38,527.573
2121.83,524.22
2123.28,527.279
2124.73,532.685
2126.18,533.941
2127.63,531.012
2129.08,528.915
2130.53,534.377
2131.98,536.562
2133.43,521.575
2134.88,524.187
2136.33,536.287
2137.78,528.903
2139.23,526.897
2140.68,529.584
2142.13,531.734
2143.58,545.799
2145.03,540.311
2146.48,537.399
2147.93,537.454
2149.38,537.015
2150.83,546.98
2152.28,543.374
2153.73,544.187
2155.18,549.537
2156.64,549.404
2158.09,543.295
2159.54,555.834
2160.99,554.293
2162.44,551.139
2163.89,563.452
2165.34,558.701
2166.79,555.909
2168.24,553.202
2169.69,555.046
2171.14,559.521
2172.59,553.593
2174.04,558.104
2175.49,573.018
2176.94,566.076
2178.39,571.057
2179.84,573.873
2181.29,568.344
2182.74,562.321
2184.19,568.608
2185.64,561.179
2187.09,561.253
2188.54,560.045
2189.99,562.897
2191.44,563.018
2192.89,564.829
2194.34,571.284
2195.79,581.716
2197.24,569.455
2198.69,574.737
2200.15,570.484
2201.6,571.882
2203.05,561.49
2204.5,563.786
2205.95,574.106
2207.4,578.133
2208.85,571.763
2210.3,575.296
2211.75,585.548
2213.2,598.83
2214.65,576.21
2216.1,590.47
2217.55,588.452
2219,575.722
2220.45,589.159
2221.9,587.157
2223.35,590.828
2224.8,599.238
2226.25,610.421
2227.7,588.15
2229.15,598.055
2230.6,608.294
2232.05,591.354
2233.5,585.084
2234.95,577.38
2236.4,604.815
2237.85,612.654
2239.3,595.93
2240.75,601.085
2242.2,606.071
2243.65,589.295
2245.11,607.029
2246.56,616.454
2248.01,609.666
2249.46,601.556
2250.91,616.857
2252.36,617.026
2253.81,634.863
2255.26,618.275
2256.71,607.275
2258.16,617.805
2259.61,632.7
2261.06,622.252
2262.51,606.099
2263.96,619.263
2265.41,635.315
2266.86,625.541
2268.31,637.272
2269.76,630.993
2271.21,622.182
2272.66,638.405
2274.11,635.481
2275.56,625.316
2277.01,631.792
2278.46,633.319
2279.91,633.319
2281.36,630.106
2282.81,644.763
2284.26,650.116
2285.71,643.349
2287.16,634.644
2288.61,649.023
2290.07,656.385
2291.52,667.455
2292.97,662.266
2294.42,665.049
2295.87,664.32
2297.32,653.036
2298.77,656.024
2300.22,658.809
2301.67,644.707
2303.12,671.867
2304.57,674.645
2306.02,673.452
2307.47,656.36
2308.92,664.127
2310.37,687.52
2311.82,683.011
2313.27,674.612
2314.72,663.529
2316.17,676.246
2317.62,677.484
2319.07,716.026
2320.52,701.125
2321.97,693.303
2323.42,716.288
2324.87,701.156
2326.32,708.581
2327.77,715.774
2329.22,710.819
2330.67,710.4
2332.12,726.459
2333.57,727.242
2335.03,738.319
2336.48,709.602
2337.93,723.124
2339.38,736.912
2340.83,735.862
2342.28,747.463
2343.73,749.659
2345.18,745.574
2346.63,759.838
2348.08,748.38
2349.53,748.835
2350.98,776.549
2352.43,778.02
2353.88,789.185
2355.33,786.883
2356.78,790.416
2358.23,808.185
2359.68,806.805
2361.13,797.708
2362.58,800.594
2364.03,827.008
2365.48,829.914
2366.93,870.074
2368.38,826.896
2369.83,846.721
2371.28,843.626
2372.73,874.526
2374.18,879.662
2375.63,890.619
2377.08,905.548
2378.54,909.926
2379.99,921.52
2381.44,936.043
2382.89,943.323
2384.34,949.249
2385.79,950.092
2387.24,968.826
2388.69,977.168
2390.14,996.689
2391.59,1021.22
2393.04,1018.75
2394.49,1003.87
2395.94,1016.41
2397.39,1052.6
2398.84,1089.12
2400.29,1069.06
2401.74,1094.11
2403.19,1095.91
2404.64,1128.61
2406.09,1143.32
2407.54,1121.48
2408.99,1130.75
2410.44,1141.45
2411.89,1129.47
2413.34,1162.67
2414.79,1180.54
2416.24,1163.31
2417.69,1152.1
2419.14,1165.96
2420.59,1162.68
2422.04,1131.48
2423.5,1153.08
2424.95,1164.72
2426.4,1145.99
2427.85,1133.54
2429.3,1140.27
2430.75,1150.98
2432.2,1150
2433.65,1136.12
2435.1,1111.26
2436.55,1135.98
2438,1116.91
2439.45,1117
2440.9,1126.94
2442.35,1111.36
2443.8,1113.59
2445.25,1096.37
2446.7,1113.88
2448.15,1099.11
2449.6,1090.36
2451.05,1075.4
2452.5,1082.25
2453.95,1060.71
2455.4,1086.07
2456.85,1063.81
2458.3,1064.37
2459.75,1074.5
2461.2,1079.08
2462.65,1067.92
2464.1,1067.65
2465.55,1059.22
2467.01,1058.01
2468.46,1063.67
2469.91,1063.84
2471.36,1058.36
2472.81,1063.12
2474.26,1068.39
2475.71,1057.19
2477.16,1076.13
2478.61,1081.61
2480.06,1095.67
2481.51,1090.33
2482.96,1091.27
2484.41,1069.3
2485.86,1095.56
2487.31,1108.24
2488.76,1103.49
2490.21,1098.21
2491.66,1095.03
2493.11,1093.58
2494.56,1104.71
2496.01,1086.22
2497.46,1084.18
2498.91,1095.56
2500.36,1098.46
2501.81,1091.83
2503.26,1123.33
2504.71,1126.87
2506.16,1139.48
2507.61,1162.26
2509.06,1120.04
2510.51,1174.57
2511.97,1154.37
2513.42,1166.54
2514.87,1182.99
2516.32,1198.64
2517.77,1197.25
2519.22,1205.23
2520.67,1227.15
2522.12,1237.64
2523.57,1256.56
2525.02,1253.47
2526.47,1267.36
2527.92,1273.9
2529.37,1253.73
2530.82,1284.59
2532.27,1311.36
2533.72,1303.98
2535.17,1313.79
2536.62,1335.95
2538.07,1370.56
2539.52,1351.29
2540.97,1391.02
2542.42,1395.63
2543.87,1457.78
2545.32,1468.4
2546.77,1462.13
2548.22,1495.18
2549.67,1514.57
2551.12,1529.24
2552.57,1531.84
2554.02,1566.66
2555.48,1599.78
2556.93,1640.91
2558.38,1660.79
2559.83,1679.25
2561.28,1706.3
2562.73,1769.11
2564.18,1788.3
2565.63,1821.92
2567.08,1866.68
2568.53,1890.84
2569.98,1944.68
2571.43,2016.48
2572.88,2054.65
2574.33,2053.29
2575.78,2117.79
2577.23,2173.61
2578.68,2217.94
2580.13,2280.72
2581.58,2331.79
2583.03,2373.76
2584.48,2442.36
2585.93,2501.44
2587.38,2551.55
2588.83,2652.46
2590.28,2752.75
2591.73,2856.44
2593.18,2891.37
2594.63,2967.82
2596.08,3074.29
2597.53,3156.23
2598.98,3295.03
2600.44,3388.77
2601.89,3512.73
2603.34,3638.54
2604.79,3744.46
2606.24,3886.72
2607.69,3984.47
2609.14,4148.56
2610.59,4232.46
2612.04,4407.51
2613.49,4524.71
2614.94,4705.29
2616.39,4848.29
2617.84,4957.3
2619.29,5112.03
2620.74,5257.55
2622.19,5404.58
2623.64,5591.33
2625.09,5682.45
2626.54,5826.17
2627.99,5971.64
2629.44,6143.96
2630.89,6304.18
2632.34,6452.91
2633.79,6563.19
2635.24,6758.33
2636.69,6801.73
2638.14,6907.91
2639.59,7048.01
2641.04,7090.03
2642.49,7179.5
2643.94,7231.39
2645.4,7252.29
2646.85,7282.91
2648.3,7298.64
2649.75,7248.68
2651.2,7258.9
2652.65,7169
2654.1,7203.85
2655.55,7100.66
2657,7038.25
2658.45,6918.33
2659.9,6797.45
2661.35,6671.94
2662.8,6562.36
2664.25,6409.9
2665.7,6318.29
2667.15,6206.79
2668.6,6013.28
2670.05,5889.93
2671.5,5752.83
2672.95,5509.23
2674.4,5411.99
2675.85,5245.39
2677.3,5055.11
2678.75,4916.8
2680.2,4808.97
2681.65,4584.97
2683.1,4458.22
2684.55,4308.12
2686,4195.72
2687.45,4041.46
2688.91,3876.61
2690.36,3738.61
2691.81,3625.43
2693.26,3506.09
2694.71,3327.75
2696.16,3225.94
2697.61,3183.56
2699.06,3021.46
2700.51,2944.32
2701.96,2894.45
2703.41,2788.09
2704.86,2659.78
2706.31,2586.64
2707.76,2478.53
2709.21,2443.64
2710.66,2365.82
2712.11,2279.51
2713.56,2221.9
2715.01,2184.14
2716.46,2114.63
2717.91,2064.48
2719.36,1999.72
2720.81,1968.97
2722.26,1930.51
2723.71,1865.38
2725.16,1807.03
2726.61,1772.19
2728.06,1748.31
2729.51,1723.1
2730.96,1678.62
2732.41,1620.87
2733.87,1621.67
2735.32,1566.43
2736.77,1550.12
2738.22,1521.81
2739.67,1502.4
2741.12,1481.95
2742.57,1434.71
2744.02,1421.75
2745.47,1419.94
2746.92,1376.61
2748.37,1377.3
2749.82,1341.38
2751.27,1345.1
2752.72,1308.05
2754.17,1312.57
2755.62,1279.57
2757.07,1246.55
2758.52,1237.84
2759.97,1232.62
2761.42,1202.33
2762.87,1193.46
2764.32,1198.57
2765.77,1179.24
2767.22,1136.96
2768.67,1180.45
2770.12,1151.31
2771.57,1143.55
2773.02,1127.31
2774.47,1129.54
2775.92,1123.53
2777.38,1104.94
2778.83,1103.93
2780.28,1089.04
2781.73,1080.07
2783.18,1064.1
2784.63,1065.52
2786.08,1056.16
2787.53,1022.55
2788.98,1039.58
2790.43,1050.74
2791.88,1035.6
2793.33,1021.42
2794.78,1005.46
2796.23,1002.7
2797.68,1012.73
2799.13,999.141
2800.58,1000.24
2802.03,987.298
2803.48,979.817
2804.93,989.714
2806.38,973.854
2807.83,954.595
2809.28,961.879
2810.73,950.644
2812.18,959.145
2813.63,959.801
2815.08,967.59
2816.53,941.937
2817.98,949.446
2819.43,959.791
2820.88,942.386
2822.33,927.97
2823.79,936.214
2825.24,924.837
2826.69,916.565
2828.14,910.418
2829.59,912.386
2831.04,925.857
2832.49,932.593
2833.94,890.397
2835.39,888.031
2836.84,890.773
2838.29,882.976
2839.74,882.981
2841.19,888.447
2842.64,904.1
2844.09,900.775
2845.54,890.556
2846.99,885.41
2848.44,882.969
2849.89,869.781
2851.34,884.155
2852.79,874.564
2854.24,864.85
2855.69,877.185
2857.14,898.543
2858.59,874.972
2860.04,863.156
2861.49,875.513
2862.94,858.183
2864.39,860.309
2865.84,879.116
2867.3,874.656
2868.75,872.931
2870.2,872.735
2871.65,857.073
2873.1,863.043
2874.55,880.861
2876,872.098
2877.45,874.789
2878.9,876.824
2880.35,871.74
2881.8,852.194
2883.25,859.374
2884.7,860.862
2886.15,860.702
2887.6,858.339
2889.05,850.312
2890.5,864.281
2891.95,872.434
2893.4,864.451
2894.85,869.677
2896.3,869.277
2897.75,856.913
2899.2,854.999
2900.65,853.76
2902.1,848.325
2903.55,844.735
2905,845.694
2906.45,848.233
2907.9,850.622
2909.35,843.274
2910.8,828.215
2912.26,827.547
2913.71,835.875
2915.16,807.098
2916.61,840.618
2918.06,828.607
2919.51,809.906
2920.96,828.063
2922.41,824.22
2923.86,822.157
2925.31,814.925
2926.76,802.261
2928.21,796.564
2929.66,794.601
2931.11,790.088
2932.56,781.377
2934.01,798.975
2935.46,782.613
2936.91,782.607
2938.36,779.392
2939.81,770.249
2941.26,761.783
2942.71,768.966
2944.16,772.43
2945.61,769.721
2947.06,768.491
2948.51,771.29
2949.96,754.371
2951.41,752.211
2952.86,764.453
2954.31,751.394
2955.77,746.372
2957.22,755.97
2958.67,747.364
2960.12,735.191
2961.57,769.634
2963.02,745.552
2964.47,742.112
2965.92,739.23
2967.37,743.684
2968.82,741.654
2970.27,748.43
2971.72,730.151
2973.17,732.225
2974.62,731.379
2976.07,723.086
2977.52,723.776
2978.97,729.807
2980.42,722.549
2981.87,734.228
2983.32,740.514
2984.77,732.03
2986.22,719.997
2987.67,728.177
2989.12,734.171
2990.57,737.927
2992.02,730.547
2993.47,718.535
2994.92,724.977
2996.37,737.473
2997.82,734.166
2999.27,741.107
3000.73,715.164
3002.18,731.241
3003.63,717.247
3005.08,726.683
3006.53,723.06
3007.98,705.605
3009.43,702.109
3010.88,711.608
3012.33,723.932
3013.78,739.34
3015.23,706.863
3016.68,719.534
3018.13,709.056
3019.58,719.045
3021.03,720.6
3022.48,708.117
3023.93,723.279
3025.38,737.196
3026.83,715.668
3028.28,725.312
3029.73,744.205
3031.18,746.129
3032.63,733.61
3034.08,746.854
3035.53,750.796
3036.98,706.625
3038.43,738.12
3039.88,742.118
3041.33,736.521
3042.78,735.143
3044.23,724.583
3045.69,724.404
3047.14,719.825
3048.59,735.205
3050.04,745.217
3051.49,724.337
3052.94,722.281
3054.39,737.209
3055.84,749.732
3057.29,745.756
3058.74,734.128
3060.19,752.451
3061.64,761.577
3063.09,767.283
3064.54,771.787
3065.99,768.342
3067.44,748.933
3068.89,765.125
3070.34,779.471
3071.79,802.064
3073.24,767.918
3074.69,785.439
3076.14,784.069
3077.59,789.277
3079.04,812.785
3080.49,811.549
3081.94,828.47
3083.39,821.893
3084.84,842
3086.29,829.539
3087.74,837.505
3089.2,841.68
3090.65,855.849
3092.1,861.009
3093.55,864.796
3095,861.816
3096.45,867.693
3097.9,881.349
3099.35,902.008
3100.8,910.656
3102.25,901.561
3103.7,929.175
3105.15,934.834
3106.6,924.574
3108.05,947.938
3109.5,929.577
3110.95,947.676
3112.4,952.591
3113.85,980.8
3115.3,976.438
3116.75,987.476
3118.2,980.061
3119.65,995.818
3121.1,1002.91
3122.55,1005.26
3124,1010.58
3125.45,1006.53
3126.9,1016.95
3128.35,1032.83
3129.8,1018.65
3131.25,1020.42
3132.7,1036.18
3134.16,1028.43
3135.61,1028.09
3137.06,1046.3
3138.51,1020.37
3139.96,1036.96
3141.41,1043.19
3142.86,1031.1
3144.31,1050.41
3145.76,1050.74
3147.21,1054.16
3148.66,1038.83
3150.11,1037.51
3151.56,1021.91
3153.01,1032.02
3154.46,1050.44
3155.91,1057.08
3157.36,1068.09
3158.81,1080.02
3160.26,1047.87
3161.71,1067.84
3163.16,1079.07
3164.61,1076.37
3166.06,1065.58
3167.51,1097.14
3168.96,1088.67
3170.41,1087.81
3171.86,1104.4
3173.31,1113.28
3174.76,1119.3
3176.21,1100.2
3177.67,1118.12
3179.12,1110.81
3180.57,1126.76
3182.02,1153.19
3183.47,1138.1
3184.92,1114.24
3186.37,1131.15
3187.82,1126.16
3189.27,1107.72
3190.72,1132.65
3192.17,1111.87
3193.62,1104.55
3195.07,1099.04
3196.52,1097.02
3197.97,1070.98
3199.42,1027.43
3200.87,1048.67
3202.32,1040.09
3203.77,1024.13
3205.22,1022.88
3206.67,1007.61
3208.12,996.239
3209.57,975.249
3211.02,951.299
3212.47,972.749
3213.92,939.774
3215.37,913.528
3216.82,914.824
3218.27,896.26
3219.72,878.909
3221.17,880.884
3222.63,874.209
3224.08,872.28
3225.53,857.23
3226.98,850.786
3228.43,810.177
3229.88,835.831
3231.33,815.247
3232.78,794.04
3234.23,777.143
3235.68,784.182
3237.13,780.334
3238.58,777.67
3240.03,754.379
3241.48,744.005
3242.93,749.549
3244.38,759.034
3245.83,754.362
3247.28,756.25
3248.73,737.859
3250.18,744.973
3251.63,741.89
3253.08,741.066
3254.53,731.187
3255.98,704.447
3257.43,719.627
3258.88,719.283
3260.33,712.07
3261.78,711.416
3263.23,708.22
3264.68,724.72
3266.13,714.489
3267.59,697.865
3269.04,707.72
3270.49,720.277
3271.94,714.559
3273.39,695.009
3274.84,707.772
3276.29,700.821
3277.74,695.95
3279.19,713.569
3280.64,693.603
3282.09,702.99
3283.54,695.511
3284.99,705.059
3286.44,700.359
3287.89,693.907
3289.34,709.946
3290.79,710.045
3292.24,685.858
3293.69,715.31
3295.14,714.299
3296.59,702.334
3298.04,696.473
3299.49,694.723
3300.94,688.904
3302.39,698.99
3303.84,682.92
3305.29,693.28
3306.74,711.019
3308.19,697.768
3309.64,685.15
3311.09,691.183
3312.55,704.753
3314,700.144
3315.45,676.693
3316.9,687.775
3318.35,704.997
3319.8,679.614
3321.25,702.943
3322.7,689.332
3324.15,694.062
3325.6,702.867
3327.05,705.077
3328.5,686.55
3329.95,701.519
3331.4,709.408
3332.85,686.668
3334.3,680.685
3335.75,688.261
3337.2,693.355
3338.65,690.448
3340.1,692.787
3341.55,699.93
3343,698.985
3344.45,689.391
3345.9,697.219
3347.35,686.299
3348.8,675.325
3350.25,699.188
3351.7,691.468
3353.15,689.157
3354.6,698.813
3356.06,688.55
3357.51,694.653
3358.96,694.47
3360.41,688.889
3361.86,690.717
3363.31,685.384
3364.76,686.261
3366.21,692.637
3367.66,696.212
3369.11,697.031
3370.56,712.45
3372.01,706.985
3373.46,729.745
3374.91,699.484
3376.36,697.352
3377.81,691.579
3379.26,699.361
3380.71,683.082
3382.16,701.327
3383.61,695.52
3385.06,712.375
3386.51,700.749
3387.96,689.772
3389.41,673.641
3390.86,694.545
3392.31,700.206
3393.76,689.057
3395.21,699.326
3396.66,699.063
3398.11,716.915
3399.56,708.377
3401.02,709.656
3402.47,704.233
3403.92,690.452
3405.37,678.075
3406.82,707.348
3408.27,685.436
3409.72,690.56
3411.17,700.161
3412.62,702.919
3414.07,700.526
3415.52,705.239
3416.97,689.729
3418.42,706.389
3419.87,691.12
3421.32,695.214
3422.77,701.521
3424.22,710.958
3425.67,716.006
3427.12,719.584
3428.57,715.054
3430.02,700.22
3431.47,709.141
3432.92,715.985
3434.37,693.172
3435.82,705.546
3437.27,707.779
3438.72,705.829
3440.17,709.219
3441.62,696.43
3443.07,698.42
3444.52,706.332
3445.98,672.99
3447.43,712.593
3448.88,710.841
3450.33,705.455
3451.78,702.988
3453.23,709.405
3454.68,709.686
3456.13,706.448
3457.58,706.725
3459.03,699.896
3460.48,695.057
3461.93,723.784
3463.38,711.394
3464.83,718.339
3466.28,725.962
3467.73,726.498
3469.18,716.876
3470.63,705.909
3472.08,716.383
3473.53,728.519
3474.98,721.585
3476.43,694.31
3477.88,727.484
3479.33,723.536
3480.78,723.927
3482.23,714.002
3483.68,733.02
3485.13,687.949
3486.58,717.486
3488.03,730.774
3489.49,724.37
3490.94,703.862
3492.39,706.229
3493.84,715.56
3495.29,729.425
3496.74,729.149
3498.19,709.54
3499.64,721.9
3501.09,720.616
3502.54,731.737
3503.99,717.213
3505.44,720.794
3506.89,728.401
3508.34,734.185
3509.79,721.762
3511.24,726.234
3512.69,726.064
3514.14,721.517
3515.59,752.512
3517.04,730.936
3518.49,735.591
3519.94,734.141
3521.39,726.126
3522.84,737.536
3524.29,734.909
3525.74,732.446
3527.19,744.664
3528.64,720.479
3530.09,731.98
3531.54,738.426
3532.99,748.88
3534.45,743.829
3535.9,712.594
3537.35,736.835
3538.8,734.916
3540.25,730.79
3541.7,731.702
3543.15,726.456
3544.6,746.806
3546.05,728.335
3547.5,728.853
3548.95,736.773
3550.4,745.474
3551.85,739.351
3553.3,732.195
3554.75,722.036
3556.2,720.027
3557.65,739.186
3559.1,724.247
3560.55,733.685
3562,734.527
3563.45,735.389
3564.9,725.383
3566.35,738.752
3567.8,753.051
3569.25,743.262
3570.7,749.692
3572.15,744.868
3573.6,733.867
3575.05,729.838
3576.5,734.871
3577.96,740.7
3579.41,754.883
3580.86,736.716
3582.31,748.008
3583.76,750.579
3585.21,741.33
3586.66,732.054
3588.11,744.166
3589.56,747.307
3591.01,741.216
3592.46,769.526
3593.91,720.896
3595.36,723.44
3596.81,735.81
3598.26,751.143
3599.71,746.888
3601.16,743.432
3602.61,743.983
3604.06,751.655
3605.51,746.191
3606.96,760.168
3608.41,748.804
3609.86,766.847
3611.31,758.319
3612.76,749.23
3614.21,755.313
3615.66,756.306
3617.11,765.861
3618.56,744.268
3620.01,761.103
3621.46,778.524
3622.92,775.995
3624.37,761.183
3625.82,745.27
3627.27,759.948
3628.72,763.445
3630.17,754.059
3631.62,758.58
3633.07,748.381
3634.52,770.82
3635.97,747.105
3637.42,764.912
3638.87,767.44
3640.32,791.502
3641.77,763.03
3643.22,750.304
3644.67,778.275
3646.12,758.504
3647.57,776.392
3649.02,771.854
3650.47,765.944
3651.92,784.15
3653.37,774.965
3654.82,768.501
3656.27,766.912
3657.72,764.913
3659.17,764.167
3660.62,776.704
3662.07,776.153
3663.52,776.499
3664.97,766.371
3666.43,774.331
3667.88,797.687
3669.33,781.298
3670.78,779.938
3672.23,779.397
3673.68,786.724
3675.13,780.147
3676.58,774.919
3678.03,768.875
3679.48,770.839
3680.93,788.116
3682.38,782.435
3683.83,783.111
3685.28,768.487
3686.73,796.826
3688.18,783.493
3689.63,787.648
3691.08,777.989
3692.53,781.471
3693.98,785.267
3695.43,764.549
3696.88,791.884
3698.33,815.896
3699.78,793.062
3701.23,788.958
3702.68,786.882
3704.13,777.314
3705.58,776.37
3707.03,788.018
3708.48,778.322
3709.93,786.213
3711.39,791.431
3712.84,788.002
3714.29,807.928
3715.74,798.401
3717.19,796.101
3718.64,786.834
3720.09,794.779
3721.54,794.631
3722.99,799.913
3724.44,811.671
3725.89,804.989
3727.34,822.298
3728.79,817.894
3730.24,800.211
3731.69,791.673
3733.14,794.548
3734.59,790.555
3736.04,802.692
3737.49,791.402
3738.94,795.605
3740.39,796.408
3741.84,820.171
3743.29,822.33
3744.74,801.105
3746.19,808.132
3747.64,813.068
3749.09,807.164
3750.54,819.794
3751.99,816.921
3753.44,802.588
3754.89,812.576
3756.35,807.893
3757.8,806.258
3759.25,809.975
3760.7,802.83
3762.15,839.826
3763.6,822.952
3765.05,826.142
3766.5,824.603
3767.95,806.408
3769.4,821.33
3770.85,803.924
3772.3,818.519
3773.75,818.415
3775.2,824.031
3776.65,829.514
3778.1,833.769
3779.55,813.881
3781,814.174
3782.45,843.812
3783.9,829.871
3785.35,829.146
3786.8,833.197
3788.25,832.076
3789.7,858.256
3791.15,843.046
3792.6,822.801
3794.05,821.586
3795.5,840.158
3796.95,844.496
3798.4,817.459
3799.85,839.379
3801.31,842.862
3802.76,831.343
3804.21,831.39
3805.66,840.481
3807.11,840.443
3808.56,827.531
3810.01,823.843
3811.46,847.636
3812.91,830.124
3814.36,835.088
3815.81,861.877
3817.26,845.596
3818.71,851.562
3820.16,860.527
3821.61,851.321
3823.06,850.884
3824.51,846.336
3825.96,845.651
3827.41,844.3
3828.86,858.634
3830.31,856.302
3831.76,857.844
3833.21,872.584
3834.66,841.81
3836.11,839.833
3837.56,835.152
3839.01,849.846
3840.46,852.083
3841.91,858.962
3843.36,867.056
3844.82,857.611
3846.27,871.978
3847.72,869.693
3849.17,869.696
3850.62,872.246
3852.07,865.555
3853.52,862.176
3854.97,870.413
3856.42,849.423
3857.87,888.946
3859.32,876.652
3860.77,887.581
3862.22,869.38
3863.67,871.698
3865.12,856.164
3866.57,884.188
3868.02,878.282
3869.47,877.734
3870.92,892.211
3872.37,863.553
3873.82,890.793
3875.27,886.074
3876.72,894.567
3878.17,892.393
3879.62,873.861
3881.07,879.777
3882.52,901.478
3883.97,887.395
3885.42,898.904
3886.87,892.597
3888.32,891.52
3889.78,900.549
3891.23,900.894
3892.68,882.872
3894.13,882.872
3895.58,883.776
3897.03,905.999
3898.48,909.9
3899.93,914.285
3901.38,902.896
3902.83,915.789
3904.28,923.478
3905.73,906.934
3907.18,918.852
3908.63,912.429
3910.08,896.362
3911.53,907.173
3912.98,931.768
3914.43,915.38
3915.88,927.702
3917.33,922.731
3918.78,927.911
3920.23,913.601
3921.68,939.306
3923.13,916.406
3924.58,922.733
3926.03,941.488
3927.48,943.959
3928.93,918.992
3930.38,933.982
3931.83,963.237
3933.28,929.945
3934.74,952.9
3936.19,963.059
3937.64,954.96
3939.09,943.145
3940.54,926.126
3941.99,949.708
3943.44,959.37
3944.89,939.11
3946.34,940.102
3947.79,947.657
3949.24,935.677
3950.69,977.589
3952.14,960.231
3953.59,940.598
3955.04,968.152
3956.49,980.782
3957.94,966.083
3959.39,974.743
3960.84,1003.61
3962.29,957.151
3963.74,988.749
3965.19,951.665
3966.64,994.91
3968.09,997.166
3969.54,984.433
3970.99,979.742
3972.44,975.923
3973.89,983.178
3975.34,998.093
3976.79,954.707
3978.25,998.879
3979.7,1008.52
3981.15,987.204
3982.6,1009.48
3984.05,1014.02
3985.5,979.115
3986.95,1012.05
3988.4,1037.27
3989.85,1006.19
3991.3,1006.12
3992.75,1010.06
3994.2,996.295
3995.65,1013.76
3997.1,995.462
3998.55,1023.14
4000,1006.03
