0.3,49.0157
1.45033,49.0157
2.90065,49.0157
4.35098,49.0157
5.80131,49.0157
7.25163,40.4379
8.70196,91.2439
10.1523,62.836
11.6026,49.1891
13.0529,42.685
14.5033,37.6498
15.9536,32.9514
17.4039,29.9866
18.8542,27.8199
20.3046,28.7548
21.7549,28.6764
23.2052,25.241
24.6555,21.9442
26.1059,22.4647
27.5562,21.7996
29.0065,19.6202
30.4569,16.9857
31.9072,14.5112
33.3575,15.1336
34.8078,15.9228
36.2582,15.6269
37.7085,14.8016
39.1588,15.1946
40.6091,12.9108
42.0595,10.3424
43.5098,10.2017
44.9601,13.3405
46.4104,15.2556
47.8608,19.3574
49.3111,25.3816
50.7614,31.1831
52.2117,50.0304
53.6621,91.8233
55.1124,155.944
56.5627,244.167
58.0131,366.581
59.4634,478.357
60.9137,583.283
62.364,675.835
63.8144,751.902
65.2647,822.263
66.715,860.765
68.1653,883.882
69.6157,901.121
71.066,920.903
72.5163,922.056
73.9666,922.124
75.417,919.564
76.8673,914.452
78.3176,909.483
79.7679,929.787
81.2183,956.198
82.6686,985.42
84.1189,1014.19
85.5693,1030.78
87.0196,1041.89
88.4699,1035.5
89.9202,1022.85
91.3706,1021.38
92.8209,983.357
94.2712,965.141
95.7215,947.633
97.1719,922.099
98.6222,886.711
100.073,869.734
101.523,861.253
102.973,845.968
104.423,816.356
105.874,780.275
107.324,783.818
108.774,771.647
110.225,752.781
111.675,742.201
113.125,738.873
114.576,730.34
116.026,717.858
117.476,704.678
118.927,693.634
120.377,662.956
121.827,655.802
123.278,657.502
124.728,653.298
126.178,625.803
127.629,606.445
129.079,593.714
130.529,582.272
131.98,571.754
133.43,569.419
134.88,561.24
136.331,557.53
137.781,552.073
139.231,543.764
140.682,548.604
142.132,527.88
143.582,510.641
145.033,503.716
146.483,506.122
147.933,495.432
149.384,485.601
150.834,466.911
152.284,450.495
153.735,451.333
155.185,463.703
156.635,436.972
158.086,436.346
159.536,444.551
160.986,412.535
162.437,414.542
163.887,416.947
165.337,423.536
166.788,426.108
168.238,408.52
169.688,414.051
171.139,413.108
172.589,408.251
174.039,403.303
175.489,403.806
176.94,393.054
178.39,387.187
179.84,390.255
181.291,395.361
182.741,379.937
184.191,367.409
185.642,362.261
187.092,355.96
188.542,348.478
189.993,356.037
191.443,357.553
192.893,356.171
194.344,354.093
195.794,353.328
197.244,355.847
198.695,359.464
200.145,353.355
201.595,348.25
203.046,349.519
204.496,344.814
205.946,359.315
207.397,359.587
208.847,355.81
210.297,355.085
211.748,343.145
213.198,344.589
214.648,340.687
216.099,334.284
217.549,328.733
218.999,321.495
220.45,315.326
221.9,307.254
223.35,307.128
224.801,319.412
226.251,329.855
227.701,326.132
229.152,324.215
230.602,321.485
232.052,314.565
233.503,303.427
234.953,321.17
236.403,318.165
237.854,312.563
239.304,315.704
240.754,304.388
242.204,300.611
243.655,306.173
245.105,301.94
246.555,288.451
248.006,311.749
249.456,304.299
250.906,304.559
252.357,304.134
253.807,298.581
255.257,295.705
256.708,305.36
258.158,305.439
259.608,305.063
261.059,307.46
262.509,305.936
263.959,289.431
265.41,288.325
266.86,297.856
268.31,306.845
269.761,298.979
271.211,300.675
272.661,291.843
274.112,289.767
275.562,297.194
277.012,304.923
278.463,290.508
279.913,291.791
281.363,287.511
282.814,279.652
284.264,280.263
285.714,277.886
287.165,276.217
288.615,276.902
290.065,275.58
291.516,268.249
292.966,264.683
294.416,272.667
295.867,271.605
297.317,267.441
298.767,266.362
300.218,255.665
301.668,263.614
303.118,265.947
304.569,269.004
306.019,272.399
307.469,255.388
308.919,262.285
310.37,260.122
311.82,257.398
313.27,254.467
314.721,240.774
316.171,234.473
317.621,230.156
319.072,237.823
320.522,244.773
321.972,229.51
323.423,235.986
324.873,238.344
326.323,237.839
327.774,235.285
329.224,233.484
330.674,245.081
332.125,240.546
333.575,236.758
335.025,236.901
336.476,239.122
337.926,235.538
339.376,237.505
340.827,235.649
342.277,230.726
343.727,231.36
345.178,251.447
346.628,228.554
348.078,224.208
349.529,225.774
350.979,226.314
352.429,224.341
353.88,234.257
355.33,226.417
356.78,225.468
358.231,229.534
359.681,230.6
361.131,221.189
362.582,223.546
364.032,227.845
365.482,231.319
366.933,230.265
368.383,220.266
369.833,222.152
371.284,213.008
372.734,214.587
374.184,221.037
375.635,217.436
377.085,220.865
378.535,223.388
379.986,225.23
381.436,226.264
382.886,226.607
384.336,226.949
385.787,224.13
387.237,224.657
388.687,222.383
390.138,217.57
391.588,215.922
393.038,217.81
394.489,219.412
395.939,220.223
397.389,223.693
398.84,228.805
400.29,216.777
401.74,216.978
403.191,216.297
404.641,224.723
406.091,233.146
407.542,213.797
408.992,221.709
410.442,220.926
411.893,217.153
413.343,217.124
414.793,223.918
416.244,226.156
417.694,215.843
419.144,213.76
420.595,209.307
422.045,205.755
423.495,224.406
424.946,229.747
426.396,213.934
427.846,205.996
429.297,209.029
430.747,215.651
432.197,221.693
433.648,210.734
435.098,205.947
436.548,213.333
437.999,222.208
439.449,210.377
440.899,219.869
442.35,212.882
443.8,213.077
445.25,214.025
446.701,208.726
448.151,217.718
449.601,214.65
451.051,208.851
452.502,210.28
453.952,216.955
455.402,218.466
456.853,217.601
458.303,206.533
459.753,212.25
461.204,218.736
462.654,213.522
464.104,208.87
465.555,217.004
467.005,214.122
468.455,212.184
469.906,210.644
471.356,206.237
472.806,213.173
474.257,210.654
475.707,211.049
477.157,210.896
478.608,214.289
480.058,230.039
481.508,216.343
482.959,216.549
484.409,211.048
485.859,210.085
487.31,217.771
488.76,212.229
490.21,216.395
491.661,207
493.111,207.593
494.561,215.151
496.012,216.348
497.462,211.659
498.912,210.235
500.363,202.417
501.813,202.81
503.263,211.673
504.714,216.192
506.164,209.412
507.614,202.47
509.065,200.222
510.515,201.686
511.965,204.729
513.416,207.194
514.866,203.362
516.316,202.456
517.766,210.892
519.217,211.917
520.667,199.54
522.117,201.302
523.568,206.707
525.018,210.027
526.468,211.17
527.919,208.837
529.369,202.884
530.819,197.649
532.27,201.2
533.72,201.187
535.17,205.294
536.621,212.334
538.071,213.844
539.521,197.269
540.972,206.205
542.422,212.388
543.872,211.501
545.323,206.972
546.773,205.539
548.223,207.812
549.674,206.417
551.124,209.498
552.574,212.629
554.025,214.117
555.475,215.306
556.925,207.955
558.376,211.391
559.826,209.833
561.276,206.396
562.727,205.691
564.177,209.193
565.627,210.77
567.078,208.493
568.528,200.699
569.978,205.405
571.429,215.332
572.879,197.733
574.329,201.064
575.78,201.638
577.23,201.814
578.68,204.222
580.131,207.087
581.581,205.02
583.031,210.286
584.482,203.306
585.932,206.101
587.382,209.042
588.832,207.375
590.283,209.646
591.733,211.753
593.183,219.566
594.634,213.615
596.084,208.312
597.534,209.381
598.985,206.433
600.435,207.664
601.885,214.677
603.336,214.025
604.786,207.713
606.236,203.846
607.687,208.714
609.137,199.034
610.587,205.128
612.038,202.01
613.488,204.658
614.938,211.888
616.389,208.427
617.839,206.665
619.289,194.931
620.74,207.091
622.19,215.525
623.64,210.692
625.091,204.097
626.541,213.102
627.991,209.433
629.442,207.22
630.892,209.355
632.342,213.498
633.793,214.794
635.243,209.323
636.693,214.35
638.144,209.598
639.594,216.827
641.044,217.948
642.495,203.963
643.945,213.087
645.395,220.333
646.846,215.839
648.296,218.2
649.746,220.898
651.197,219.532
652.647,221.597
654.097,223.013
655.547,221.913
656.998,216.289
658.448,212.463
659.898,209.954
661.349,205.867
662.799,221.624
664.249,223.207
665.7,220.709
667.15,223.48
668.6,225.95
670.051,219.925
671.501,213.935
672.951,225.989
674.402,227.357
675.852,221.951
677.302,225.309
678.753,234.08
680.203,218.34
681.653,227.932
683.104,233.134
684.554,231.207
686.004,226.321
687.455,224.574
688.905,229.077
690.355,230.675
691.806,233.462
693.256,227.558
694.706,226.923
696.157,228.626
697.607,226.579
699.057,228.752
700.508,232.134
701.958,241.854
703.408,239.923
704.859,233.961
706.309,232.444
707.759,233.835
709.21,224.225
710.66,221.43
712.11,228.353
713.561,226.554
715.011,225.197
716.461,234.292
717.912,227.091
719.362,223.88
720.812,227.294
722.263,228.145
723.713,234.311
725.163,241.641
726.613,234.247
728.064,230.145
729.514,234.45
730.964,233.278
732.415,231.596
733.865,231.316
735.315,230.826
736.766,228.275
738.216,242.931
739.666,238.496
741.117,230.551
742.567,231.388
744.017,232.327
745.468,220.794
746.918,233.855
748.368,232.367
749.819,226.129
751.269,230.66
752.719,232.726
754.17,226.087
755.62,228.506
757.07,240.148
758.521,237.276
759.971,226.218
761.421,227.375
762.872,234.044
764.322,231.821
765.772,228.543
767.223,235.715
768.673,242.414
770.123,232.713
771.574,228.106
773.024,234.43
774.474,237.21
775.925,225.911
777.375,232.732
778.825,236.583
780.276,235.465
781.726,234.476
783.176,233.425
784.627,228.542
786.077,236.987
787.527,236.756
788.978,232.509
790.428,241.046
791.878,245.225
793.328,239.633
794.779,246.702
796.229,236.628
797.68,241.751
799.13,240.271
800.58,238.75
802.03,240.214
803.481,245.589
804.931,254.469
806.381,241.863
807.832,247.817
809.282,241.983
810.732,238.222
812.183,239.718
813.633,241.885
815.083,243.535
816.534,245.518
817.984,245.862
819.434,249.388
820.885,246.719
822.335,245.732
823.785,251.163
825.236,244.352
826.686,240.38
828.136,250.337
829.587,245.11
831.037,247.607
832.487,259.477
833.938,263.259
835.388,246.875
836.838,256.453
838.289,263.224
839.739,253.482
841.189,253.406
842.64,261.037
844.09,264.057
845.54,265.001
846.991,257.403
848.441,257.36
849.891,259.287
851.342,259.79
852.792,264.222
854.242,268.936
855.693,256.434
857.143,239.59
858.593,259.429
860.044,266.303
861.494,266.247
862.944,262.241
864.394,259.903
865.845,266.094
867.295,265.913
868.745,264.308
870.196,267.736
871.646,260.289
873.096,255.124
874.547,254.806
875.997,250.002
877.447,256.142
878.898,252.148
880.348,265.211
881.798,267.995
883.249,265.171
884.699,264.222
886.149,265.417
887.6,262.462
889.05,248.814
890.5,260.009
891.951,262.7
893.401,261.249
894.851,262.692
896.302,265.781
897.752,262.572
899.202,261.116
900.653,271.812
902.103,268.152
903.553,271.659
905.004,272.229
906.454,273.156
907.904,288.558
909.355,292.356
910.805,289.803
912.255,284.371
913.706,269.716
915.156,268.744
916.606,274.673
918.057,275.91
919.507,284.876
920.957,262.961
922.408,271.636
923.858,286.53
925.308,287.042
926.759,281.256
928.209,284.66
929.659,297.171
931.109,291.174
932.56,291.174
934.01,293.432
935.46,297.328
936.911,286.151
938.361,281.169
939.811,292.727
941.262,288.59
942.712,301.573
944.162,294.957
945.613,295.359
947.063,282.208
948.513,278.666
949.964,288.789
951.414,291.826
952.864,282.001
954.315,288.775
955.765,296.237
957.215,295.349
958.666,293.201
960.116,291.03
961.566,289.069
963.017,287.489
964.467,279.518
965.917,289.43
967.368,289.402
968.818,290.699
970.268,285.171
971.719,280.158
973.169,283.299
974.619,288.593
976.07,293.658
977.52,287.784
978.97,300.882
980.421,297.865
981.871,297.467
983.321,296.246
984.772,290.608
986.222,300.055
987.672,286.256
989.123,297.225
990.573,292.899
992.023,293.98
993.474,294.684
994.924,292.824
996.374,293.555
997.825,297.751
999.275,291.487
1000.73,300.981
1002.18,298.984
1003.63,305.672
1005.08,311.471
1006.53,313.827
1007.98,315.154
1009.43,309.692
1010.88,304.71
1012.33,307.929
1013.78,325.778
1015.23,321.388
1016.68,317.258
1018.13,320.613
1019.58,322.021
1021.03,320.437
1022.48,316.075
1023.93,333.995
1025.38,332.291
1026.83,342.744
1028.28,339.015
1029.73,332.361
1031.18,335.739
1032.63,331.214
1034.08,332.747
1035.53,336.077
1036.98,357.544
1038.43,361.855
1039.88,357.086
1041.33,358.837
1042.78,361.372
1044.23,353.85
1045.69,367.699
1047.14,362.883
1048.59,359.79
1050.04,365.356
1051.49,363.999
1052.94,367.358
1054.39,377.548
1055.84,381.995
1057.29,379.55
1058.74,388.267
1060.19,392.078
1061.64,387.638
1063.09,397.908
1064.54,405.396
1065.99,407.263
1067.44,411.761
1068.89,419.7
1070.34,432.842
1071.79,426.898
1073.24,421.458
1074.69,413.333
1076.14,415.967
1077.59,424.886
1079.04,430.968
1080.49,432.19
1081.94,430.351
1083.39,415.287
1084.84,442.835
1086.29,440.397
1087.74,428.524
1089.2,432.563
1090.65,437.438
1092.1,429.586
1093.55,424.861
1095,423.47
1096.45,418.068
1097.9,416.317
1099.35,418.867
1100.8,417.515
1102.25,422.71
1103.7,413.792
1105.15,397.388
1106.6,431.346
1108.05,427.926
1109.5,409.437
1110.95,408.274
1112.4,406.426
1113.85,409.348
1115.3,412.813
1116.75,410.297
1118.2,404.136
1119.65,402.391
1121.1,392.172
1122.55,409.359
1124,395.722
1125.45,391.391
1126.9,398.335
1128.35,397.783
1129.8,394.726
1131.25,398.716
1132.7,384.234
1134.16,397.511
1135.61,403.311
1137.06,387.423
1138.51,387.13
1139.96,383.159
1141.41,381.932
1142.86,382.274
1144.31,377.51
1145.76,387.657
1147.21,383.311
1148.66,375.245
1150.11,387.143
1151.56,381.372
1153.01,370.574
1154.46,371.746
1155.91,376.969
1157.36,377.268
1158.81,387.973
1160.26,385.649
1161.71,363.858
1163.16,383.798
1164.61,379.669
1166.06,378.576
1167.51,383.534
1168.96,383.463
1170.41,377.895
1171.86,376.686
1173.31,373.438
1174.76,369.491
1176.21,377.487
1177.66,374.757
1179.12,374.352
1180.57,376.525
1182.02,379.606
1183.47,380.118
1184.92,379.376
1186.37,389.986
1187.82,379.811
1189.27,386.399
1190.72,384.189
1192.17,380.939
1193.62,379.811
1195.07,373.215
1196.52,373.56
1197.97,388.341
1199.42,392.504
1200.87,388.649
1202.32,391.858
1203.77,371.604
1205.22,384.053
1206.67,385.569
1208.12,376.34
1209.57,377.426
1211.02,384.296
1212.47,383.068
1213.92,392.186
1215.37,380.785
1216.82,392.506
1218.27,389.342
1219.72,398.454
1221.17,397.264
1222.63,389.564
1224.08,390.262
1225.53,393.655
1226.98,383.559
1228.43,378.537
1229.88,401.718
1231.33,385.054
1232.78,404.674
1234.23,397.778
1235.68,404.131
1237.13,409.36
1238.58,410.399
1240.03,411.903
1241.48,409.675
1242.93,423.815
1244.38,409.99
1245.83,397.661
1247.28,405.847
1248.73,426.342
1250.18,424.264
1251.63,413.668
1253.08,415.969
1254.53,423.539
1255.98,422.935
1257.43,434.932
1258.88,441.807
1260.33,430.408
1261.78,439.639
1263.23,444.179
1264.68,438.651
1266.13,442.46
1267.59,455.009
1269.04,466.106
1270.49,469.202
1271.94,463.176
1273.39,483.872
1274.84,477.966
1276.29,477.893
1277.74,491.038
1279.19,490.863
1280.64,502.375
1282.09,511.529
1283.54,520.223
1284.99,535.188
1286.44,537.433
1287.89,544.661
1289.34,528.582
1290.79,563.279
1292.24,576.4
1293.69,579.782
1295.14,595.559
1296.59,615.806
1298.04,625.228
1299.49,635.395
1300.94,660.546
1302.39,677.301
1303.84,679.323
1305.29,691.353
1306.74,714.966
1308.19,727.314
1309.64,752.819
1311.09,785.971
1312.55,814.986
1314,836.509
1315.45,862.609
1316.9,894.661
1318.35,910.19
1319.8,948.728
1321.25,961.739
1322.7,971.423
1324.15,1018.9
1325.6,1018.13
1327.05,1013.51
1328.5,1013.07
1329.95,1019.63
1331.4,1035.51
1332.85,1044.13
1334.3,1036.79
1335.75,1038
1337.2,1003.12
1338.65,995.046
1340.1,964.248
1341.55,960.955
1343,939.674
1344.45,906.064
1345.9,891.065
1347.35,883.419
1348.8,851.804
1350.25,809.835
1351.7,780.825
1353.15,774.425
1354.6,780.571
1356.06,756.829
1357.51,707.953
1358.96,681.954
1360.41,679.397
1361.86,673.496
1363.31,662.848
1364.76,657.1
1366.21,641.821
1367.66,609.138
1369.11,602.548
1370.56,612.371
1372.01,596.969
1373.46,595.825
1374.91,583.808
1376.36,588.833
1377.81,582.345
1379.26,566.886
1380.71,558.83
1382.16,559.353
1383.61,564.863
1385.06,550.794
1386.51,531.454
1387.96,550.733
1389.41,552.531
1390.86,563.17
1392.31,561.004
1393.76,543.573
1395.21,549.435
1396.66,547.302
1398.11,541.461
1399.56,562.254
1401.02,565.886
1402.47,562.791
1403.92,559.198
1405.37,567.127
1406.82,571.877
1408.27,571.606
1409.72,559.364
1411.17,575.612
1412.62,580.8
1414.07,563.06
1415.52,560.329
1416.97,576.538
1418.42,580.012
1419.87,593.297
1421.32,593.702
1422.77,598.342
1424.22,581.673
1425.67,590.344
1427.12,618.574
1428.57,603.773
1430.02,602.87
1431.47,612.723
1432.92,614.885
1434.37,618.599
1435.82,628.386
1437.27,638.997
1438.72,663.329
1440.17,647.403
1441.62,640.411
1443.07,652.954
1444.53,641.524
1445.98,659.986
1447.43,678.328
1448.88,685.824
1450.33,677.965
1451.78,676.146
1453.23,696.266
1454.68,715.828
1456.13,715.975
1457.58,721.768
1459.03,731.082
1460.48,745.484
1461.93,728.694
1463.38,764.199
1464.83,777.212
1466.28,776.976
1467.73,786.426
1469.18,799.282
1470.63,820.157
1472.08,846.81
1473.53,862.163
1474.98,867.965
1476.43,877.288
1477.88,897.398
1479.33,886.231
1480.78,925.492
1482.23,944.171
1483.68,959.187
1485.13,996.419
1486.58,1009.04
1488.03,1017.33
1489.49,1052.43
1490.94,1082.04
1492.39,1092.04
1493.84,1111.51
1495.29,1138.54
1496.74,1189.73
1498.19,1211.56
1499.64,1257.92
1501.09,1252.64
1502.54,1334.79
1503.99,1390.5
1505.44,1431.9
1506.89,1492.19
1508.34,1552.41
1509.79,1611.58
1511.24,1679.83
1512.69,1760.26
1514.14,1852.77
1515.59,1951.27
1517.04,2050.04
1518.49,2156.85
1519.94,2275.64
1521.39,2444.79
1522.84,2629.17
1524.29,2784.07
1525.74,2954.95
1527.19,3219.99
1528.64,3466.18
1530.09,3702.17
1531.54,3987.38
1532.99,4313.52
1534.45,4676.58
1535.9,5069.9
1537.35,5440.3
1538.8,5876.09
1540.25,6263.78
1541.7,6768.2
1543.15,7278.5
1544.6,7877.9
1546.05,8305.4
1547.5,8769.84
1548.95,9266.88
1550.4,9817.31
1551.85,10268.9
1553.3,10285.2
1554.75,10302.1
1556.2,10331.5
1557.65,10356.8
1559.1,10375.3
1560.55,10441
1562,10409
1563.45,10400.8
1564.9,10396.1
1566.35,10376.7
1567.8,10296.3
1569.25,9786.74
1570.7,9217.87
1572.15,8641.25
1573.6,8075.41
1575.05,7523.21
1576.5,6956.58
1577.96,6400.24
1579.41,5908.33
1580.86,5468.23
1582.31,5031.34
1583.76,4604.87
1585.21,4298.54
1586.66,3970.36
1588.11,3717.95
1589.56,3454.12
1591.01,3230.16
1592.46,3005.53
1593.91,2842.44
1595.36,2657.78
1596.81,2517.1
1598.26,2391.77
1599.71,2255.83
1601.16,2142.66
1602.61,2037.82
1604.06,1930.33
1605.51,1836.8
1606.96,1753.81
1608.41,1664.77
1609.86,1616.54
1611.31,1543.25
1612.76,1466.13
1614.21,1432.81
1615.66,1374.38
1617.11,1317.74
1618.56,1271.16
1620.01,1235.62
1621.46,1206.46
1622.92,1164.42
1624.37,1121.34
1625.82,1081.95
1627.27,1064.31
1628.72,1046.56
1630.17,1003.75
1631.62,980.814
1633.07,982.489
1634.52,951.734
1635.97,951.961
1637.42,935.775
1638.87,896.876
1640.32,886.939
1641.77,881.338
1643.22,867.771
1644.67,849.741
1646.12,833.57
1647.57,827.746
1649.02,813.608
1650.47,798.659
1651.92,791.23
1653.37,791.424
1654.82,783.908
1656.27,789.245
1657.72,767.926
1659.17,763.854
1660.62,741.241
1662.07,731.294
1663.52,718.139
1664.97,725.409
1666.42,705.105
1667.88,705.969
1669.33,688.124
1670.78,676.863
1672.23,691.354
1673.68,691.935
1675.13,685.814
1676.58,675.895
1678.03,675.428
1679.48,680.794
1680.93,668.654
1682.38,651.611
1683.83,661.679
1685.28,643.472
1686.73,633.212
1688.18,621.653
1689.63,627.136
1691.08,642.608
1692.53,639.333
1693.98,621.803
1695.43,624.585
1696.88,633.313
1698.33,629.875
1699.78,625.468
1701.23,622.77
1702.68,627.214
1704.13,616.8
1705.58,624.696
1707.03,615.23
1708.48,626.745
1709.93,595.608
1711.39,601.705
1712.84,624.947
1714.29,608.269
1715.74,599.377
1717.19,606.891
1718.64,616.122
1720.09,608.261
1721.54,614.067
1722.99,614.581
1724.44,601.702
1725.89,607.422
1727.34,610.442
1728.79,596.641
1730.24,602.94
1731.69,601.714
1733.14,598.938
1734.59,587.137
1736.04,611.208
1737.49,593.138
1738.94,577.555
1740.39,572.346
1741.84,566.349
1743.29,565.522
1744.74,576.535
1746.19,576.912
1747.64,579.539
1749.09,564.686
1750.54,574.204
1751.99,565.902
1753.44,545.848
1754.89,551.966
1756.35,558.829
1757.8,547.904
1759.25,551.715
1760.7,556.959
1762.15,537.331
1763.6,545.161
1765.05,542.235
1766.5,546.06
1767.95,534.795
1769.4,531.482
1770.85,527.223
1772.3,541.535
1773.75,520.488
1775.2,535.419
1776.65,518.942
1778.1,517.095
1779.55,522.27
1781,516.08
1782.45,522.426
1783.9,525.078
1785.35,523.622
1786.8,523.017
1788.25,530.943
1789.7,523.778
1791.15,515.486
1792.6,520.11
1794.05,507.651
1795.5,509.217
1796.95,515.4
1798.4,527.925
1799.85,530.94
1801.31,516.044
1802.76,502.242
1804.21,506.086
1805.66,515.983
1807.11,515.377
1808.56,497.365
1810.01,503.026
1811.46,490.902
1812.91,488.316
1814.36,507.512
1815.81,508.758
1817.26,507.958
1818.71,495.525
1820.16,493.64
1821.61,500.322
1823.06,499.176
1824.51,504.066
1825.96,508.134
1827.41,507.96
1828.86,510.277
1830.31,508.32
1831.76,515.145
1833.21,516.914
1834.66,503.803
1836.11,517.071
1837.56,506.783
1839.01,507.771
1840.46,516.556
1841.91,514.355
1843.36,531.116
1844.82,521.61
1846.27,515.517
1847.72,512.389
1849.17,527.093
1850.62,518.337
1852.07,535.368
1853.52,517.79
1854.97,520.898
1856.42,526.464
1857.87,531.128
1859.32,533.192
1860.77,528.374
1862.22,515.553
1863.67,518.415
1865.12,523.317
1866.57,528.279
1868.02,527.672
1869.47,516.882
1870.92,519.841
1872.37,527.062
1873.82,528.733
1875.27,533.469
1876.72,519.911
1878.17,511.365
1879.62,513.063
1881.07,518.161
1882.52,521.727
1883.97,511.922
1885.42,516.908
1886.87,503.035
1888.32,513.211
1889.78,522.004
1891.23,489.296
1892.68,496.034
1894.13,496.026
1895.58,500.129
1897.03,497.717
1898.48,502.706
1899.93,491.891
1901.38,486.097
1902.83,487.309
1904.28,489.515
1905.73,484.397
1907.18,494.383
1908.63,491.601
1910.08,500.954
1911.53,493.597
1912.98,480.477
1914.43,487.752
1915.88,489.627
1917.33,485.514
1918.78,486.083
1920.23,486.752
1921.68,485.759
1923.13,479.809
1924.58,482.22
1926.03,485.52
1927.48,482.322
1928.93,490.209
1930.38,480.816
1931.83,494.125
1933.29,474.388
1934.74,482.457
1936.19,481.746
1937.64,474.534
1939.09,478.589
1940.54,476.766
1941.99,489.827
1943.44,478.457
1944.89,482.75
1946.34,484.602
1947.79,486.86
1949.24,472.444
1950.69,489.411
1952.14,493.209
1953.59,501.212
1955.04,506.446
1956.49,487.692
1957.94,491.64
1959.39,488.144
1960.84,476.366
1962.29,497.676
1963.74,489.803
1965.19,498.671
1966.64,501.366
1968.09,487.432
1969.54,486.021
1970.99,484.27
1972.44,487.302
1973.89,493.416
1975.34,501.254
1976.79,511.092
1978.25,512.238
1979.7,506.131
1981.15,504.394
1982.6,508.884
1984.05,510.382
1985.5,500.37
1986.95,497.91
1988.4,505.623
1989.85,500.173
1991.3,505.206
1992.75,506.133
1994.2,495.897
1995.65,508.51
1997.1,491.71
1998.55,495.959
2000,492.573
2001.45,503.361
2002.9,505.516
2004.35,517.26
2005.8,508.921
2007.25,497.941
2008.7,502.039
2010.15,497.47
2011.6,489.86
2013.05,484.732
2014.5,486.753
2015.95,496.291
2017.4,490.86
2018.85,486.422
2020.3,499.384
2021.75,506.814
2023.21,508.434
2024.66,501.895
2026.11,477.8
2027.56,512.95
2029.01,483.186
2030.46,489.837
2031.91,477.261
2033.36,495.452
2034.81,472.175
2036.26,508.916
2037.71,481.707
2039.16,490.003
2040.61,487.274
2042.06,470.941
2043.51,489.104
2044.96,488.658
2046.41,468.37
2047.86,468.638
2049.31,491.348
2050.76,465.381
2052.21,468.187
2053.66,460.423
2055.11,467.69
2056.56,477.652
2058.01,477.538
2059.46,474.459
2060.91,462.245
2062.36,459.855
2063.81,463.167
2065.26,463.446
2066.72,469.734
2068.17,467.68
2069.62,461.87
2071.07,470.335
2072.52,459.183
2073.97,460.141
2075.42,463.081
2076.87,464.184
2078.32,475.214
2079.77,470.966
2081.22,464.059
2082.67,455.01
2084.12,458.24
2085.57,459.796
2087.02,452.564
2088.47,459.3
2089.92,460.059
2091.37,460.591
2092.82,457.709
2094.27,462.358
2095.72,464.862
2097.17,460.43
2098.62,462.719
2100.07,453.237
2101.52,464.648
2102.97,466.236
2104.42,459.941
2105.87,465.513
2107.32,468.419
2108.77,469.723
2110.22,473.826
2111.68,476.835
2113.13,475.332
2114.58,467.08
2116.03,463.089
2117.48,463.252
2118.93,468.599
2120.38,474.552
2121.83,471.537
2123.28,474.288
2124.73,479.151
2126.18,480.281
2127.63,477.646
2129.08,475.76
2130.53,480.672
2131.98,482.638
2133.43,469.158
2134.88,471.507
2136.33,482.39
2137.78,475.749
2139.23,473.944
2140.68,476.361
2142.13,478.296
2143.58,490.947
2145.03,486.01
2146.48,483.391
2147.93,483.44
2149.38,483.045
2150.83,492.009
2152.28,488.765
2153.73,489.496
2155.18,494.309
2156.64,494.19
2158.09,488.695
2159.54,499.974
2160.99,498.587
2162.44,495.75
2163.89,506.825
2165.34,502.552
2166.79,500.041
2168.24,497.605
2169.69,499.265
2171.14,503.29
2172.59,497.957
2174.04,502.015
2175.49,515.43
2176.94,509.186
2178.39,513.666
2179.84,516.199
2181.29,511.226
2182.74,505.808
2184.19,511.464
2185.64,504.781
2187.09,504.848
2188.54,503.761
2189.99,506.327
2191.44,506.435
2192.89,508.064
2194.34,513.871
2195.79,523.254
2197.24,512.225
2198.69,516.977
2200.15,513.151
2201.6,514.408
2203.05,505.061
2204.5,507.126
2205.95,516.409
2207.4,520.031
2208.85,514.301
2210.3,517.479
2211.75,526.701
2213.2,538.648
2214.65,518.301
2216.1,531.128
2217.55,529.313
2219,517.863
2220.45,529.949
2221.9,528.149
2223.35,531.451
2224.8,539.015
2226.25,549.074
2227.7,529.041
2229.15,537.951
2230.6,547.161
2232.05,531.923
2233.5,526.284
2234.95,519.354
2236.4,544.032
2237.85,551.083
2239.3,536.04
2240.75,540.677
2242.2,545.162
2243.65,530.071
2245.11,546.023
2246.56,554.501
2248.01,548.395
2249.46,541.1
2250.91,554.863
2252.36,555.016
2253.81,571.06
2255.26,556.139
2256.71,546.245
2258.16,555.716
2259.61,569.114
2261.06,559.716
2262.51,545.187
2263.96,557.028
2265.41,571.466
2266.86,562.674
2268.31,573.227
2269.76,567.579
2271.21,559.654
2272.66,574.246
2274.11,571.616
2275.56,562.472
2277.01,568.297
2278.46,569.671
2279.91,569.671
2281.36,566.781
2282.81,579.965
2284.26,584.78
2285.71,578.693
2287.16,570.863
2288.61,583.797
2290.07,590.419
2291.52,600.377
2292.97,595.709
2294.42,598.212
2295.87,597.556
2297.32,587.407
2298.77,590.094
2300.22,592.599
2301.67,579.915
2303.12,604.345
2304.57,606.844
2306.02,605.771
2307.47,590.396
2308.92,597.383
2310.37,618.425
2311.82,614.369
2313.27,606.814
2314.72,596.845
2316.17,608.284
2317.62,609.398
2319.07,644.066
2320.52,630.663
2321.97,623.627
2323.42,644.302
2324.87,630.691
2326.32,637.369
2327.77,643.839
2329.22,639.383
2330.67,639.005
2332.12,653.451
2333.57,654.155
2335.03,664.119
2336.48,638.288
2337.93,650.451
2339.38,662.853
2340.83,661.909
2342.28,672.344
2343.73,674.319
2345.18,670.644
2346.63,683.475
2348.08,673.168
2349.53,673.578
2350.98,698.507
2352.43,699.83
2353.88,709.873
2355.33,707.802
2356.78,710.98
2358.23,726.963
2359.68,725.722
2361.13,717.54
2362.58,720.135
2364.03,743.895
2365.48,746.509
2366.93,782.632
2368.38,743.794
2369.83,761.626
2371.28,758.842
2372.73,786.637
2374.18,791.257
2375.63,801.113
2377.08,814.541
2378.54,818.479
2379.99,828.908
2381.44,841.972
2382.89,848.52
2384.34,853.85
2385.79,854.609
2387.24,871.46
2388.69,878.964
2390.14,896.522
2391.59,918.587
2393.04,916.364
2394.49,902.982
2395.94,914.258
2397.39,946.816
2398.84,979.668
2400.29,961.621
2401.74,984.157
2403.19,985.774
2404.64,1015.19
2406.09,1028.42
2407.54,1008.77
2408.99,1017.11
2410.44,1026.74
2411.89,1015.96
2413.34,1045.82
2414.79,1061.9
2416.24,1046.4
2417.69,1036.31
2419.14,1048.78
2420.59,1045.83
2422.04,1017.77
2423.5,1037.2
2424.95,1047.66
2426.4,1030.82
2427.85,1019.62
2429.3,1025.67
2430.75,1035.31
2432.2,1034.42
2433.65,1021.94
2435.1,999.577
2436.55,1021.82
2438,1004.66
2439.45,1004.74
2440.9,1013.68
2442.35,999.669
2443.8,1001.67
2445.25,986.186
2446.7,1001.93
2448.15,988.654
2449.6,980.78
2451.05,967.322
2452.5,973.487
2453.95,954.109
2455.4,976.923
2456.85,956.896
2458.3,957.402
2459.75,966.514
2461.2,970.632
2462.65,960.593
2464.1,960.349
2465.55,952.77
2467.01,951.684
2468.46,956.77
2469.91,956.922
2471.36,951.995
2472.81,956.282
2474.26,961.014
2475.71,950.942
2477.16,967.979
2478.61,972.906
2480.06,985.555
2481.51,980.755
2482.96,981.597
2484.41,961.84
2485.86,985.454
2487.31,996.865
2488.76,992.587
2490.21,987.837
2491.66,984.982
2493.11,983.677
2494.56,993.69
2496.01,977.057
2497.46,975.222
2498.91,985.454
2500.36,988.064
2501.81,982.102
2503.26,1010.44
2504.71,1013.62
2506.16,1024.97
2507.61,1045.46
2509.06,1007.48
2510.51,1056.52
2511.97,1038.36
2513.42,1049.31
2514.87,1064.1
2516.32,1078.17
2517.77,1076.93
2519.22,1084.1
2520.67,1103.83
2522.12,1113.26
2523.57,1130.28
2525.02,1127.5
2526.47,1139.99
2527.92,1145.88
2529.37,1127.73
2530.82,1155.49
2532.27,1179.57
2533.72,1172.93
2535.17,1181.76
2536.62,1201.68
2538.07,1232.82
2539.52,1215.49
2540.97,1251.22
2542.42,1255.37
2543.87,1311.27
2545.32,1320.82
2546.77,1315.19
2548.22,1344.92
2549.67,1362.36
2551.12,1375.56
2552.57,1377.89
2554.02,1409.21
2555.48,1439
2556.93,1476
2558.38,1493.88
2559.83,1510.49
2561.28,1534.82
2562.73,1591.32
2564.18,1608.58
2565.63,1638.82
2567.08,1679.08
2568.53,1700.81
2569.98,1749.24
2571.43,1813.83
2572.88,1848.16
2574.33,1846.93
2575.78,1904.96
2577.23,1955.17
2578.68,1995.04
2580.13,2051.51
2581.58,2097.45
2583.03,2135.2
2584.48,2196.91
2585.93,2250.05
2587.38,2295.12
2588.83,2385.89
2590.28,2476.1
2591.73,2569.37
2593.18,2600.79
2594.63,2669.56
2596.08,2765.33
2597.53,2839.03
2598.98,2963.88
2600.44,3048.2
2601.89,3159.71
2603.34,3272.87
2604.79,3368.15
2606.24,3496.11
2607.69,3584.03
2609.14,3731.63
2610.59,3807.1
2612.04,3964.56
2613.49,4069.98
2614.94,4232.42
2616.39,4361.04
2617.84,4459.1
2619.29,4598.27
2620.74,4729.17
2622.19,4861.42
2623.64,5029.4
2625.09,5111.37
2626.54,5240.64
2627.99,5371.5
2629.44,5526.49
2630.89,5670.62
2632.34,5804.4
2633.79,5903.59
2635.24,6079.12
2636.69,6118.17
2638.14,6213.67
2639.59,6339.69
2641.04,6377.49
2642.49,6457.97
2643.94,6504.65
2645.4,6523.44
2646.85,6550.98
2648.3,6565.13
2649.75,6520.19
2651.2,6529.39
2652.65,6448.53
2654.1,6479.87
2655.55,6387.05
2657,6330.91
2658.45,6223.05
2659.9,6114.32
2661.35,6001.42
2662.8,5902.85
2664.25,5765.72
2665.7,5683.31
2667.15,5583.01
2668.6,5408.96
2670.05,5298
2671.5,5174.68
2672.95,4955.56
2674.4,4868.09
2675.85,4718.23
2677.3,4547.08
2678.75,4422.67
2680.2,4325.68
2681.65,4124.18
2683.1,4010.17
2684.55,3875.16
2686,3774.06
2687.45,3635.3
2688.91,3487.02
2690.36,3362.89
2691.81,3261.08
2693.26,3153.73
2694.71,2993.32
2696.16,2901.74
2697.61,2863.62
2699.06,2717.8
2700.51,2648.42
2701.96,2603.56
2703.41,2507.89
2704.86,2392.47
2706.31,2326.68
2707.76,2229.44
2709.21,2198.05
2710.66,2128.06
2712.11,2050.42
2713.56,1998.6
2715.01,1964.63
2716.46,1902.11
2717.91,1857
2719.36,1798.75
2720.81,1771.09
2722.26,1736.49
2723.71,1677.91
2725.16,1625.42
2726.61,1594.09
2728.06,1572.61
2729.51,1549.93
2730.96,1509.92
2732.41,1457.98
2733.87,1458.69
2735.32,1409.01
2736.77,1394.34
2738.22,1368.87
2739.67,1351.41
2741.12,1333.02
2742.57,1290.52
2744.02,1278.87
2745.47,1277.23
2746.92,1238.26
2748.37,1238.88
2749.82,1206.57
2751.27,1209.92
2752.72,1176.59
2754.17,1180.66
2755.62,1150.98
2757.07,1121.28
2758.52,1113.44
2759.97,1108.74
2761.42,1081.49
2762.87,1073.52
2764.32,1078.12
2765.77,1060.73
2767.22,1022.69
2768.67,1061.82
2770.12,1035.6
2771.57,1028.62
2773.02,1014.02
2774.47,1016.02
2775.92,1010.62
2777.38,993.892
2778.83,992.982
2780.28,979.592
2781.73,971.525
2783.18,957.157
2784.63,958.437
2786.08,950.016
2787.53,919.783
2788.98,935.101
2790.43,945.14
2791.88,931.522
2793.33,918.772
2794.78,904.413
2796.23,901.929
2797.68,910.948
2799.13,898.729
2800.58,899.714
2802.03,888.076
2803.48,881.347
2804.93,890.248
2806.38,875.982
2807.83,858.659
2809.28,865.211
2810.73,855.105
2812.18,862.752
2813.63,863.342
2815.08,870.348
2816.53,847.273
2817.98,854.027
2819.43,863.333
2820.88,847.678
2822.33,834.71
2823.79,842.125
2825.24,831.892
2826.69,824.451
2828.14,818.922
2829.59,820.692
2831.04,832.809
2832.49,838.869
2833.94,800.913
2835.39,798.785
2836.84,801.251
2838.29,794.238
2839.74,794.242
2841.19,799.159
2842.64,813.239
2844.09,810.248
2845.54,801.056
2846.99,796.427
2848.44,794.232
2849.89,782.369
2851.34,795.298
2852.79,786.671
2854.24,777.934
2855.69,789.029
2857.14,808.24
2858.59,787.038
2860.04,776.409
2861.49,787.525
2862.94,771.937
2864.39,773.849
2865.84,790.766
2867.3,786.754
2868.75,785.202
2870.2,785.026
2871.65,770.938
2873.1,776.308
2874.55,792.335
2876,784.453
2877.45,786.873
2878.9,788.704
2880.35,784.131
2881.8,766.55
2883.25,773.008
2884.7,774.346
2886.15,774.202
2887.6,772.077
2889.05,764.857
2890.5,777.422
2891.95,784.755
2893.4,777.575
2894.85,782.275
2896.3,781.916
2897.75,770.794
2899.2,769.073
2900.65,767.958
2902.1,763.069
2903.55,759.84
2905,760.702
2906.45,762.986
2907.9,765.135
2909.35,758.526
2910.8,744.98
2912.26,744.379
2913.71,751.87
2915.16,725.986
2916.61,756.137
2918.06,745.333
2919.51,728.511
2920.96,744.843
2922.41,741.387
2923.86,739.531
2925.31,733.026
2926.76,721.635
2928.21,716.511
2929.66,714.744
2931.11,710.685
2932.56,702.849
2934.01,718.679
2935.46,703.961
2936.91,703.956
2938.36,701.064
2939.81,692.84
2941.26,685.224
2942.71,691.685
2944.16,694.802
2945.61,692.365
2947.06,691.259
2948.51,693.777
2949.96,678.557
2951.41,676.614
2952.86,687.626
2954.31,675.88
2955.77,671.363
2957.22,679.996
2958.67,672.255
2960.12,661.305
2961.57,692.287
2963.02,670.625
2964.47,667.53
2965.92,664.938
2967.37,668.945
2968.82,667.118
2970.27,673.214
2971.72,656.772
2973.17,658.637
2974.62,657.876
2976.07,650.417
2977.52,651.037
2978.97,656.462
2980.42,649.934
2981.87,660.439
2983.32,666.093
2984.77,658.462
2986.22,647.638
2987.67,654.996
2989.12,660.388
2990.57,663.766
2992.02,657.128
2993.47,646.323
2994.92,652.118
2996.37,663.358
2997.82,660.383
2999.27,666.626
3000.73,643.29
3002.18,657.752
3003.63,645.164
3005.08,653.652
3006.53,650.393
3007.98,634.693
3009.43,631.548
3010.88,640.092
3012.33,651.177
3013.78,665.037
3015.23,635.824
3016.68,647.221
3018.13,637.796
3019.58,646.782
3021.03,648.181
3022.48,636.952
3023.93,650.59
3025.38,663.109
3026.83,643.744
3028.28,652.419
3029.73,669.413
3031.18,671.144
3032.63,659.883
3034.08,671.796
3035.53,675.342
3036.98,635.61
3038.43,663.94
3039.88,667.536
3041.33,662.502
3042.78,661.262
3044.23,651.763
3045.69,651.602
3047.14,647.483
3048.59,661.318
3050.04,670.323
3051.49,651.542
3052.94,649.692
3054.39,663.12
3055.84,674.384
3057.29,670.808
3058.74,660.349
3060.19,676.831
3061.64,685.039
3063.09,690.172
3064.54,694.223
3065.99,691.125
3067.44,673.666
3068.89,688.231
3070.34,701.135
3071.79,721.457
3073.24,690.743
3074.69,706.503
3076.14,705.271
3077.59,709.955
3079.04,731.101
3080.49,729.989
3081.94,745.209
3083.39,739.293
3084.84,757.38
3086.29,746.171
3087.74,753.337
3089.2,757.092
3090.65,769.837
3092.1,774.478
3093.55,777.885
3095,775.204
3096.45,780.491
3097.9,792.774
3099.35,811.357
3100.8,819.136
3102.25,810.955
3103.7,835.794
3105.15,840.884
3106.6,831.656
3108.05,852.671
3109.5,836.155
3110.95,852.436
3112.4,856.857
3113.85,882.231
3115.3,878.307
3116.75,888.235
3118.2,881.566
3119.65,895.739
3121.1,902.123
3122.55,904.228
3124,909.02
3125.45,905.373
3126.9,914.747
3128.35,929.029
3129.8,916.279
3131.25,917.871
3132.7,932.044
3134.16,925.071
3135.61,924.768
3137.06,941.148
3138.51,917.82
3139.96,932.743
3141.41,938.352
3142.86,927.48
3144.31,944.845
3145.76,945.14
3147.21,948.214
3148.66,934.428
3150.11,933.24
3151.56,919.21
3153.01,928.305
3154.46,944.87
3155.91,950.841
3157.36,960.745
3158.81,971.482
3160.26,942.563
3161.71,960.526
3163.16,970.623
3164.61,968.198
3166.06,958.488
3167.51,986.877
3168.96,979.264
3170.41,978.489
3171.86,993.412
3173.31,1001.4
3174.76,1006.81
3176.21,989.631
3177.67,1005.75
3179.12,999.172
3180.57,1013.52
3182.02,1037.3
3183.47,1023.72
3184.92,1002.26
3186.37,1017.47
3187.82,1012.98
3189.27,996.393
3190.72,1018.82
3192.17,1000.13
3193.62,993.547
3195.07,988.587
3196.52,986.768
3197.97,963.347
3199.42,924.179
3200.87,943.279
3202.32,935.565
3203.77,921.206
3205.22,920.086
3206.67,906.35
3208.12,896.118
3209.57,877.237
3211.02,855.695
3212.47,874.988
3213.92,845.328
3215.37,821.719
3216.82,822.885
3218.27,806.187
3219.72,790.579
3221.17,792.356
3222.63,786.352
3224.08,784.617
3225.53,771.08
3226.98,765.283
3228.43,728.755
3229.88,751.831
3231.33,733.316
3232.78,714.24
3234.23,699.041
3235.68,705.372
3237.13,701.911
3238.58,699.515
3240.03,678.565
3241.48,669.234
3242.93,674.22
3244.38,682.752
3245.83,678.55
3247.28,680.247
3248.73,663.705
3250.18,670.104
3251.63,667.33
3253.08,666.589
3254.53,657.704
3255.98,633.651
3257.43,647.305
3258.88,646.996
3260.33,640.508
3261.78,639.919
3263.23,637.045
3264.68,651.886
3266.13,642.683
3267.59,627.73
3269.04,636.595
3270.49,647.89
3271.94,642.746
3273.39,625.161
3274.84,636.641
3276.29,630.389
3277.74,626.008
3279.19,641.856
3280.64,623.896
3282.09,632.341
3283.54,625.613
3284.99,634.201
3286.44,629.974
3287.89,624.17
3289.34,638.597
3290.79,638.686
3292.24,616.93
3293.69,643.422
3295.14,642.513
3296.59,631.75
3298.04,626.478
3299.49,624.904
3300.94,619.67
3302.39,628.742
3303.84,614.287
3305.29,623.606
3306.74,639.562
3308.19,627.643
3309.64,616.293
3311.09,621.72
3312.55,633.926
3314,629.781
3315.45,608.686
3316.9,618.654
3318.35,634.145
3319.8,611.314
3321.25,632.298
3322.7,620.055
3324.15,624.309
3325.6,632.229
3327.05,634.218
3328.5,617.552
3329.95,631.017
3331.4,638.113
3332.85,617.659
3334.3,612.277
3335.75,619.092
3337.2,623.673
3338.65,621.058
3340.1,623.163
3341.55,629.588
3343,628.738
3344.45,620.108
3345.9,627.15
3347.35,617.327
3348.8,607.456
3350.25,628.921
3351.7,621.976
3353.15,619.897
3354.6,628.583
3356.06,619.351
3357.51,624.841
3358.96,624.676
3360.41,619.656
3361.86,621.301
3363.31,616.503
3364.76,617.292
3366.21,623.028
3367.66,626.244
3369.11,626.98
3370.56,640.85
3372.01,635.933
3373.46,656.406
3374.91,629.187
3376.36,627.269
3377.81,622.076
3379.26,629.076
3380.71,614.433
3382.16,630.844
3383.61,625.621
3385.06,640.782
3386.51,630.324
3387.96,620.45
3389.41,605.941
3390.86,624.744
3392.31,629.836
3393.76,619.808
3395.21,629.044
3396.66,628.808
3398.11,644.866
3399.56,637.186
3401.02,638.336
3402.47,633.458
3403.92,621.063
3405.37,609.929
3406.82,636.26
3408.27,616.55
3409.72,621.159
3411.17,629.796
3412.62,632.277
3414.07,630.124
3415.52,634.363
3416.97,620.412
3418.42,635.398
3419.87,621.663
3421.32,625.346
3422.77,631.018
3424.22,639.507
3425.67,644.048
3427.12,647.266
3428.57,643.192
3430.02,629.849
3431.47,637.873
3432.92,644.029
3434.37,623.509
3435.82,634.64
3437.27,636.648
3438.72,634.894
3440.17,637.943
3441.62,626.44
3443.07,628.229
3444.52,635.346
3445.98,605.356
3447.43,640.978
3448.88,639.402
3450.33,634.557
3451.78,632.338
3453.23,638.11
3454.68,638.364
3456.13,635.451
3457.58,635.7
3459.03,629.557
3460.48,625.204
3461.93,651.044
3463.38,639.9
3464.83,646.147
3466.28,653.004
3467.73,653.485
3469.18,644.831
3470.63,634.966
3472.08,644.388
3473.53,655.304
3474.98,649.067
3476.43,624.532
3477.88,654.372
3479.33,650.822
3480.78,651.173
3482.23,642.245
3483.68,659.352
3485.13,618.811
3486.58,645.38
3488.03,657.332
3489.49,651.571
3490.94,633.125
3492.39,635.254
3493.84,643.647
3495.29,656.119
3496.74,655.87
3498.19,638.232
3499.64,649.35
3501.09,648.195
3502.54,658.198
3503.99,645.134
3505.44,648.355
3506.89,655.198
3508.34,660.4
3509.79,649.226
3511.24,653.248
3512.69,653.096
3514.14,649.005
3515.59,676.885
3517.04,657.477
3518.49,661.665
3519.94,660.361
3521.39,653.151
3522.84,663.414
3524.29,661.051
3525.74,658.836
3527.19,669.826
3528.64,648.072
3530.09,658.417
3531.54,664.215
3532.99,673.618
3534.45,669.075
3535.9,640.979
3537.35,662.784
3538.8,661.058
3540.25,657.347
3541.7,658.167
3543.15,653.448
3544.6,671.753
3546.05,655.138
3547.5,655.604
3548.95,662.728
3550.4,670.555
3551.85,665.047
3553.3,658.61
3554.75,649.473
3556.2,647.665
3557.65,664.898
3559.1,651.461
3560.55,659.951
3562,660.708
3563.45,661.483
3564.9,652.482
3566.35,664.508
3567.8,677.37
3569.25,668.565
3570.7,674.349
3572.15,670.009
3573.6,660.114
3575.05,656.49
3576.5,661.017
3577.96,666.26
3579.41,679.018
3580.86,662.677
3582.31,672.834
3583.76,675.146
3585.21,666.827
3586.66,658.484
3588.11,669.378
3589.56,672.203
3591.01,666.725
3592.46,692.189
3593.91,648.447
3595.36,650.735
3596.81,661.862
3598.26,675.653
3599.71,671.827
3601.16,668.718
3602.61,669.213
3604.06,676.114
3605.51,671.199
3606.96,683.772
3608.41,673.55
3609.86,689.78
3611.31,682.109
3612.76,673.933
3614.21,679.404
3615.66,680.298
3617.11,688.893
3618.56,669.469
3620.01,684.613
3621.46,700.283
3622.92,698.008
3624.37,684.685
3625.82,670.371
3627.27,683.574
3628.72,686.719
3630.17,678.277
3631.62,682.343
3633.07,673.17
3634.52,693.353
3635.97,672.022
3637.42,688.039
3638.87,690.313
3640.32,711.957
3641.77,686.346
3643.22,674.899
3644.67,700.059
3646.12,682.275
3647.57,698.365
3649.02,694.284
3650.47,688.968
3651.92,705.344
3653.37,697.082
3654.82,691.268
3656.27,689.838
3657.72,688.04
3659.17,687.369
3660.62,698.646
3662.07,698.151
3663.52,698.461
3664.97,689.352
3666.43,696.511
3667.88,717.52
3669.33,702.778
3670.78,701.555
3672.23,701.069
3673.68,707.659
3675.13,701.743
3676.58,697.041
3678.03,691.604
3679.48,693.371
3680.93,708.911
3682.38,703.801
3683.83,704.409
3685.28,691.255
3686.73,716.745
3688.18,704.753
3689.63,708.491
3691.08,699.802
3692.53,702.934
3693.98,706.348
3695.43,687.712
3696.88,712.3
3698.33,733.899
3699.78,713.36
3701.23,709.669
3702.68,707.801
3704.13,699.195
3705.58,698.345
3707.03,708.823
3708.48,700.101
3709.93,707.2
3711.39,711.893
3712.84,708.808
3714.29,726.732
3715.74,718.163
3717.19,716.094
3718.64,707.758
3720.09,714.905
3721.54,714.771
3722.99,719.523
3724.44,730.099
3725.89,724.088
3727.34,739.658
3728.79,735.697
3730.24,719.791
3731.69,712.111
3733.14,714.696
3734.59,711.105
3736.04,722.022
3737.49,711.867
3738.94,715.647
3740.39,716.37
3741.84,737.744
3743.29,739.687
3744.74,720.595
3746.19,726.915
3747.64,731.356
3749.09,726.044
3750.54,737.406
3751.99,734.821
3753.44,721.929
3754.89,730.913
3756.35,726.701
3757.8,725.23
3759.25,728.573
3760.7,722.146
3762.15,755.425
3763.6,740.246
3765.05,743.116
3766.5,741.731
3767.95,725.365
3769.4,738.787
3770.85,723.131
3772.3,736.259
3773.75,736.165
3775.2,741.217
3776.65,746.148
3778.1,749.976
3779.55,732.087
3781,732.351
3782.45,759.01
3783.9,746.47
3785.35,745.817
3786.8,749.461
3788.25,748.453
3789.7,772.002
3791.15,758.321
3792.6,740.11
3794.05,739.017
3795.5,755.723
3796.95,759.625
3798.4,735.305
3799.85,755.022
3801.31,758.155
3802.76,747.794
3804.21,747.836
3805.66,756.013
3807.11,755.98
3808.56,744.365
3810.01,741.047
3811.46,762.449
3812.91,746.697
3814.36,751.163
3815.81,775.259
3817.26,760.615
3818.71,765.981
3820.16,774.044
3821.61,765.764
3823.06,765.371
3824.51,761.28
3825.96,760.664
3827.41,759.448
3828.86,772.343
3830.31,770.245
3831.76,771.632
3833.21,784.89
3834.66,757.209
3836.11,755.431
3837.56,751.22
3839.01,764.438
3840.46,766.449
3841.91,772.637
3843.36,779.918
3844.82,771.422
3846.27,784.345
3847.72,782.29
3849.17,782.293
3850.62,784.586
3852.07,778.568
3853.52,775.529
3854.97,782.937
3856.42,764.057
3857.87,799.607
3859.32,788.549
3860.77,798.38
3862.22,782.008
3863.67,784.093
3865.12,770.12
3866.57,795.328
3868.02,790.015
3869.47,789.523
3870.92,802.545
3872.37,776.767
3873.82,801.269
3875.27,797.025
3876.72,804.664
3878.17,802.708
3879.62,786.039
3881.07,791.36
3882.52,810.881
3883.97,798.213
3885.42,808.565
3886.87,802.892
3888.32,801.923
3889.78,810.045
3891.23,810.355
3892.68,794.144
3894.13,794.144
3895.58,794.958
3897.03,814.947
3898.48,818.456
3899.93,822.4
3901.38,812.156
3902.83,823.753
3904.28,830.669
3905.73,815.788
3907.18,826.508
3908.63,820.731
3910.08,806.278
3911.53,816.003
3912.98,838.127
3914.43,823.386
3915.88,834.469
3917.33,829.997
3918.78,834.657
3920.23,821.785
3921.68,844.907
3923.13,824.309
3924.58,829.999
3926.03,846.869
3927.48,849.092
3928.93,826.634
3930.38,840.117
3931.83,866.432
3933.28,836.486
3934.74,857.135
3936.19,866.272
3937.64,858.988
3939.09,848.36
3940.54,833.051
3941.99,854.263
3943.44,862.954
3944.89,844.73
3946.34,845.623
3947.79,852.419
3949.24,841.643
3950.69,879.342
3952.14,863.729
3953.59,846.069
3955.04,870.854
3956.49,882.214
3957.94,868.992
3959.39,876.782
3960.84,902.746
3962.29,860.958
3963.74,889.381
3965.19,856.023
3966.64,894.922
3968.09,896.952
3969.54,885.499
3970.99,881.279
3972.44,877.844
3973.89,884.37
3975.34,897.786
3976.79,858.76
3978.25,898.493
3979.7,907.167
3981.15,887.991
3982.6,908.026
3984.05,912.111
3985.5,880.715
3986.95,910.342
3988.4,933.03
3989.85,905.07
3991.3,905.003
3992.75,908.548
3994.2,896.169
3995.65,911.875
3997.1,895.419
3998.55,920.313
4000,904.927
