0,52.443
1.45033,52.443
2.90065,52.443
4.35098,52.443
5.80131,52.443
7.25163,43.2654
8.70196,97.6238
10.1523,67.2296
11.6026,52.6285
13.0529,45.6696
14.5033,40.2823
15.9536,35.2555
17.4039,32.0833
18.8542,29.7652
20.3046,30.7654
21.7549,30.6815
23.2052,27.0059
24.6555,23.4786
26.1059,24.0355
27.5562,23.3239
29.0065,20.9921
30.4569,18.1734
31.9072,15.5259
33.3575,16.1917
34.8078,17.0361
36.2582,16.7196
37.7085,15.8366
39.1588,16.2571
40.6091,13.8135
42.0595,11.0656
43.5098,10.915
44.9601,14.2733
46.4104,16.3223
47.8608,20.7109
49.3111,27.1563
50.7614,33.3635
52.2117,53.5286
53.6621,98.2438
55.1124,166.848
56.5627,261.24
58.0131,392.213
59.4634,511.805
60.9137,624.067
62.364,723.091
63.8144,804.476
65.2647,879.757
66.715,920.951
68.1653,945.684
69.6157,964.129
71.066,985.294
72.5163,986.528
73.9666,986.6
75.417,983.861
76.8673,978.392
78.3176,973.076
79.7679,994.8
81.2183,1023.06
82.6686,1054.32
84.1189,1085.1
85.5693,1102.85
87.0196,1114.75
88.4699,1107.91
89.9202,1094.36
91.3706,1092.8
92.8209,1052.11
94.2712,1032.63
95.7215,1013.89
97.1719,986.573
98.6222,948.712
100.073,930.547
101.523,921.473
102.973,905.12
104.423,873.437
105.874,834.833
107.324,838.624
108.774,825.602
110.225,805.417
111.675,794.097
113.125,790.536
114.576,781.406
116.026,768.052
117.476,753.951
118.927,742.134
120.377,709.311
121.827,701.657
123.278,703.475
124.728,698.977
126.178,669.56
127.629,648.849
129.079,635.227
130.529,622.986
131.98,611.732
133.43,609.234
134.88,600.483
136.331,596.513
137.781,590.675
139.231,581.785
140.682,586.963
142.132,564.79
143.582,546.346
145.033,538.937
146.483,541.511
147.933,530.073
149.384,519.556
150.834,499.558
152.284,481.995
153.735,482.891
155.185,496.126
156.635,467.526
158.086,466.857
159.536,475.634
160.986,441.38
162.437,443.528
163.887,446.1
165.337,453.15
166.788,455.903
168.238,437.084
169.688,443.002
171.139,441.993
172.589,436.796
174.039,431.502
175.489,432.041
176.94,420.537
178.39,414.259
179.84,417.543
181.291,423.006
182.741,406.503
184.191,393.099
185.642,387.591
187.092,380.849
188.542,372.844
189.993,380.932
191.443,382.554
192.893,381.075
194.344,378.852
195.794,378.033
197.244,380.728
198.695,384.598
200.145,378.062
201.595,372.601
203.046,373.958
204.496,368.924
205.946,384.439
207.397,384.73
208.847,380.688
210.297,379.914
211.748,367.139
213.198,368.683
214.648,364.509
216.099,357.658
217.549,351.718
218.999,343.975
220.45,337.374
221.9,328.737
223.35,328.603
224.801,341.746
226.251,352.919
227.701,348.936
229.152,346.884
230.602,343.964
232.052,336.56
233.503,324.643
234.953,343.627
236.403,340.412
237.854,334.418
239.304,337.778
240.754,325.671
242.204,321.63
243.655,327.581
245.105,323.053
246.555,308.62
248.006,333.547
249.456,325.577
250.906,325.854
252.357,325.4
253.807,319.458
255.257,316.381
256.708,326.711
258.158,326.796
259.608,326.394
261.059,328.958
262.509,327.327
263.959,309.669
265.41,308.485
266.86,318.683
268.31,328.3
269.761,319.885
271.211,321.698
272.661,312.249
274.112,310.028
275.562,317.974
277.012,326.244
278.463,310.821
279.913,312.193
281.363,307.614
282.814,299.206
284.264,299.859
285.714,297.316
287.165,295.53
288.615,296.264
290.065,294.849
291.516,287.006
292.966,283.19
294.416,291.733
295.867,290.596
297.317,286.141
298.767,284.987
300.218,273.542
301.668,282.046
303.118,284.542
304.569,287.813
306.019,291.446
307.469,273.245
308.919,280.625
310.37,278.31
311.82,275.396
313.27,272.259
314.721,257.609
316.171,250.868
317.621,246.249
319.072,254.452
320.522,261.888
321.972,245.558
323.423,252.487
324.873,255.01
326.323,254.469
327.774,251.736
329.224,249.81
330.674,262.217
332.125,257.365
333.575,253.312
335.025,253.465
336.476,255.842
337.926,252.007
339.376,254.112
340.827,252.126
342.277,246.859
343.727,247.537
345.178,269.028
346.628,244.534
348.078,239.885
349.529,241.561
350.979,242.139
352.429,240.027
353.88,250.637
355.33,242.249
356.78,241.233
358.231,245.583
359.681,246.724
361.131,236.655
362.582,239.177
364.032,243.777
365.482,247.493
366.933,246.365
368.383,235.667
369.833,237.685
371.284,227.902
372.734,229.592
374.184,236.493
375.635,232.64
377.085,236.308
378.535,239.007
379.986,240.978
381.436,242.085
382.886,242.451
384.336,242.818
385.787,239.801
387.237,240.365
388.687,237.933
390.138,232.783
391.588,231.02
393.038,233.04
394.489,234.754
395.939,235.621
397.389,239.334
398.84,244.804
400.29,231.934
401.74,232.15
403.191,231.421
404.641,240.436
406.091,249.448
407.542,228.746
408.992,237.211
410.442,236.374
411.893,232.337
413.343,232.306
414.793,239.575
416.244,241.969
417.694,230.935
419.144,228.707
420.595,223.942
422.045,220.142
423.495,240.097
424.946,245.811
426.396,228.892
427.846,220.399
429.297,223.645
430.747,230.73
432.197,237.195
433.648,225.468
435.098,220.347
436.548,228.249
437.999,237.745
439.449,225.086
440.899,235.243
442.35,227.767
443.8,227.976
445.25,228.99
446.701,223.32
448.151,232.942
449.601,229.659
451.051,223.455
452.502,224.983
453.952,232.125
455.402,233.742
456.853,232.816
458.303,220.974
459.753,227.09
461.204,234.03
462.654,228.452
464.104,223.474
465.555,232.178
467.005,229.093
468.455,227.02
469.906,225.373
471.356,220.657
472.806,228.078
474.257,225.383
475.707,225.806
477.157,225.642
478.608,229.273
480.058,246.124
481.508,231.47
482.959,231.69
484.409,225.805
485.859,224.775
487.31,232.998
488.76,227.069
490.21,231.525
491.661,221.474
493.111,222.109
494.561,230.194
496.012,231.476
497.462,226.459
498.912,224.935
500.363,216.57
501.813,216.991
503.263,226.474
504.714,231.308
506.164,224.055
507.614,216.627
509.065,214.222
510.515,215.789
511.965,219.044
513.416,221.681
514.866,217.582
516.316,216.612
517.766,225.638
519.217,226.734
520.667,213.492
522.117,215.377
523.568,221.161
525.018,224.713
526.468,225.935
527.919,223.439
529.369,217.07
530.819,211.469
532.27,215.269
533.72,215.254
535.17,219.649
536.621,227.18
538.071,228.796
539.521,211.063
540.972,220.623
542.422,227.239
543.872,226.289
545.323,221.444
546.773,219.911
548.223,222.343
549.674,220.85
551.124,224.147
552.574,227.497
554.025,229.088
555.475,230.36
556.925,222.496
558.376,226.171
559.826,224.505
561.276,220.827
562.727,220.073
564.177,223.82
565.627,225.507
567.078,223.071
568.528,214.732
569.978,219.768
571.429,230.388
572.879,211.559
574.329,215.123
575.78,215.737
577.23,215.925
578.68,218.502
580.131,221.567
581.581,219.356
583.031,224.989
584.482,217.521
585.932,220.512
587.382,223.658
588.832,221.875
590.283,224.304
591.733,226.56
593.183,234.919
594.634,228.552
596.084,222.878
597.534,224.021
598.985,220.867
600.435,222.184
601.885,229.687
603.336,228.99
604.786,222.236
606.236,218.099
607.687,223.308
609.137,212.95
610.587,219.471
612.038,216.135
613.488,218.968
614.938,226.704
616.389,223.001
617.839,221.116
619.289,208.561
620.74,221.571
622.19,230.595
623.64,225.424
625.091,218.368
626.541,228.002
627.991,224.077
629.442,221.709
630.892,223.993
632.342,228.426
633.793,229.813
635.243,223.959
636.693,229.338
638.144,224.254
639.594,231.988
641.044,233.188
642.495,218.224
643.945,227.987
645.395,235.739
646.846,230.931
648.296,233.457
649.746,236.343
651.197,234.882
652.647,237.092
654.097,238.606
655.547,237.43
656.998,231.413
658.448,227.319
659.898,224.634
661.349,220.261
662.799,237.121
664.249,238.814
665.7,236.141
667.15,239.106
668.6,241.749
670.051,235.302
671.501,228.894
672.951,241.791
674.402,243.254
675.852,237.47
677.302,241.063
678.753,250.447
680.203,233.607
681.653,243.869
683.104,249.435
684.554,247.374
686.004,242.146
687.455,240.276
688.905,245.094
690.355,246.804
691.806,249.787
693.256,243.469
694.706,242.79
696.157,244.612
697.607,242.422
699.057,244.747
700.508,248.365
701.958,258.765
703.408,256.698
704.859,250.32
706.309,248.697
707.759,250.185
709.21,239.903
710.66,236.913
712.11,244.32
713.561,242.395
715.011,240.943
716.461,250.674
717.912,242.969
719.362,239.535
720.812,243.186
722.263,244.097
723.713,250.694
725.163,258.537
726.613,250.625
728.064,246.237
729.514,250.843
730.964,249.589
732.415,247.79
733.865,247.49
735.315,246.965
736.766,244.236
738.216,259.917
739.666,255.172
741.117,246.672
742.567,247.567
744.017,248.572
745.468,236.232
746.918,250.206
748.368,248.614
749.819,241.94
751.269,246.788
752.719,248.998
754.17,241.895
755.62,244.483
757.07,256.939
758.521,253.866
759.971,242.036
761.421,243.273
762.872,250.408
764.322,248.031
765.772,244.523
767.223,252.197
768.673,259.364
770.123,248.985
771.574,244.056
773.024,250.822
774.474,253.796
775.925,241.707
777.375,249.005
778.825,253.125
780.276,251.929
781.726,250.871
783.176,249.747
784.627,244.522
786.077,253.557
787.527,253.311
788.978,248.767
790.428,257.9
791.878,262.371
793.328,256.389
794.779,263.952
796.229,253.174
797.68,258.655
799.13,257.071
800.58,255.444
802.03,257.01
803.481,262.761
804.931,272.262
806.381,258.774
807.832,265.145
809.282,258.902
810.732,254.879
812.183,256.479
813.633,258.798
815.083,260.563
816.534,262.685
817.984,263.053
819.434,266.825
820.885,263.97
822.335,262.914
823.785,268.725
825.236,261.437
826.686,257.188
828.136,267.841
829.587,262.249
831.037,264.92
832.487,277.621
833.938,281.666
835.388,264.137
836.838,274.385
838.289,281.629
839.739,271.206
841.189,271.125
842.64,279.289
844.09,282.52
845.54,283.53
846.991,275.401
848.441,275.355
849.891,277.417
851.342,277.955
852.792,282.697
854.242,287.74
855.693,274.364
857.143,256.343
858.593,277.569
860.044,284.923
861.494,284.863
862.944,280.577
864.394,278.076
865.845,284.7
867.295,284.506
868.745,282.789
870.196,286.456
871.646,278.489
873.096,272.962
874.547,272.623
875.997,267.483
877.447,274.052
878.898,269.779
880.348,283.755
881.798,286.734
883.249,283.712
884.699,282.697
886.149,283.976
887.6,280.814
889.05,266.212
890.5,278.189
891.951,281.068
893.401,279.516
894.851,281.06
896.302,284.365
897.752,280.931
899.202,279.374
900.653,290.817
902.103,286.901
903.553,290.654
905.004,291.264
906.454,292.255
907.904,308.734
909.355,312.798
910.805,310.066
912.255,304.255
913.706,288.575
915.156,287.536
916.606,293.879
918.057,295.202
919.507,304.795
920.957,281.348
922.408,290.63
923.858,306.565
925.308,307.112
926.759,300.922
928.209,304.564
929.659,317.95
931.109,311.534
932.56,311.534
934.01,313.95
935.46,318.118
936.911,306.159
938.361,300.829
939.811,313.195
941.262,308.769
942.712,322.66
944.162,315.581
945.613,316.011
947.063,301.94
948.513,298.151
949.964,308.981
951.414,312.231
952.864,301.719
954.315,308.967
955.765,316.951
957.215,316
958.666,313.702
960.116,311.38
961.566,309.281
963.017,307.591
964.467,299.063
965.917,309.668
967.368,309.637
968.818,311.026
970.268,305.11
971.719,299.747
973.169,303.107
974.619,308.772
976.07,314.191
977.52,307.906
978.97,321.92
980.421,318.693
981.871,318.266
983.321,316.96
984.772,310.927
986.222,321.035
987.672,306.272
989.123,318.008
990.573,313.379
992.023,314.535
993.474,315.288
994.924,313.299
996.374,314.081
997.825,318.57
999.275,311.868
1000.73,322.026
1002.18,319.889
1003.63,327.045
1005.08,333.25
1006.53,335.771
1007.98,337.19
1009.43,331.346
1010.88,326.016
1012.33,329.46
1013.78,348.557
1015.23,343.86
1016.68,339.441
1018.13,343.03
1019.58,344.537
1021.03,342.842
1022.48,338.176
1023.93,357.349
1025.38,355.525
1026.83,366.71
1028.28,362.72
1029.73,355.6
1031.18,359.214
1032.63,354.373
1034.08,356.014
1035.53,359.576
1036.98,382.544
1038.43,387.157
1039.88,382.054
1041.33,383.928
1042.78,386.64
1044.23,378.592
1045.69,393.409
1047.14,388.256
1048.59,384.947
1050.04,390.903
1051.49,389.45
1052.94,393.044
1054.39,403.947
1055.84,408.704
1057.29,406.089
1058.74,415.415
1060.19,419.493
1061.64,414.742
1063.09,425.73
1064.54,433.742
1065.99,435.74
1067.44,440.552
1068.89,449.047
1070.34,463.107
1071.79,456.748
1073.24,450.927
1074.69,442.234
1076.14,445.052
1077.59,454.594
1079.04,461.102
1080.49,462.409
1081.94,460.442
1083.39,444.324
1084.84,473.799
1086.29,471.191
1087.74,458.487
1089.2,462.809
1090.65,468.024
1092.1,459.623
1093.55,454.568
1095,453.08
1096.45,447.3
1097.9,445.426
1099.35,448.155
1100.8,446.708
1102.25,452.267
1103.7,442.725
1105.15,425.174
1106.6,461.506
1108.05,457.847
1109.5,438.066
1110.95,436.821
1112.4,434.844
1113.85,437.97
1115.3,441.678
1116.75,438.986
1118.2,432.394
1119.65,430.527
1121.1,419.594
1122.55,437.982
1124,423.391
1125.45,418.757
1126.9,426.187
1128.35,425.597
1129.8,422.325
1131.25,426.595
1132.7,411.1
1134.16,425.306
1135.61,431.512
1137.06,414.512
1138.51,414.199
1139.96,409.951
1141.41,408.637
1142.86,409.004
1144.31,403.906
1145.76,414.762
1147.21,410.113
1148.66,401.483
1150.11,414.212
1151.56,408.039
1153.01,396.485
1154.46,397.739
1155.91,403.327
1157.36,403.647
1158.81,415.101
1160.26,412.614
1161.71,389.3
1163.16,410.634
1164.61,406.217
1166.06,405.047
1167.51,410.352
1168.96,410.275
1170.41,404.318
1171.86,403.024
1173.31,399.549
1174.76,395.327
1176.21,403.881
1177.66,400.961
1179.12,400.528
1180.57,402.852
1182.02,406.148
1183.47,406.696
1184.92,405.902
1186.37,417.254
1187.82,406.368
1189.27,413.417
1190.72,411.053
1192.17,407.575
1193.62,406.368
1195.07,399.311
1196.52,399.68
1197.97,415.495
1199.42,419.948
1200.87,415.824
1202.32,419.257
1203.77,397.587
1205.22,410.907
1206.67,412.528
1208.12,402.654
1209.57,403.816
1211.02,411.167
1212.47,409.852
1213.92,419.608
1215.37,407.41
1216.82,419.95
1218.27,416.565
1219.72,426.314
1221.17,425.041
1222.63,416.803
1224.08,417.55
1225.53,421.18
1226.98,410.378
1228.43,405.005
1229.88,429.807
1231.33,411.978
1232.78,432.969
1234.23,425.592
1235.68,432.388
1237.13,437.983
1238.58,439.095
1240.03,440.704
1241.48,438.32
1242.93,453.449
1244.38,438.657
1245.83,425.466
1247.28,434.225
1248.73,456.153
1250.18,453.929
1251.63,442.592
1253.08,445.054
1254.53,453.154
1255.98,452.507
1257.43,465.344
1258.88,472.699
1260.33,460.503
1261.78,470.38
1263.23,475.237
1264.68,469.323
1266.13,473.398
1267.59,486.824
1269.04,498.697
1270.49,502.01
1271.94,495.562
1273.39,517.706
1274.84,511.387
1276.29,511.308
1277.74,525.373
1279.19,525.185
1280.64,537.502
1282.09,547.296
1283.54,556.598
1284.99,572.61
1286.44,575.011
1287.89,582.744
1289.34,565.541
1290.79,602.664
1292.24,616.703
1293.69,620.321
1295.14,637.201
1296.59,658.864
1298.04,668.945
1299.49,679.823
1300.94,706.733
1302.39,724.659
1303.84,726.822
1305.29,739.693
1306.74,764.958
1308.19,778.169
1309.64,805.458
1311.09,840.928
1312.55,871.971
1314,894.999
1315.45,922.924
1316.9,957.217
1318.35,973.833
1319.8,1015.06
1321.25,1028.98
1322.7,1039.35
1324.15,1090.14
1325.6,1089.32
1327.05,1084.37
1328.5,1083.9
1329.95,1090.92
1331.4,1107.92
1332.85,1117.13
1334.3,1109.29
1335.75,1110.58
1337.2,1073.26
1338.65,1064.62
1340.1,1031.67
1341.55,1028.15
1343,1005.38
1344.45,969.418
1345.9,953.37
1347.35,945.189
1348.8,911.364
1350.25,866.46
1351.7,835.422
1353.15,828.575
1354.6,835.15
1356.06,809.747
1357.51,757.454
1358.96,729.638
1360.41,726.901
1361.86,720.588
1363.31,709.196
1364.76,703.046
1366.21,686.698
1367.66,651.731
1369.11,644.679
1370.56,655.189
1372.01,638.711
1373.46,637.486
1374.91,624.629
1376.36,630.005
1377.81,623.063
1379.26,606.524
1380.71,597.904
1382.16,598.464
1383.61,604.359
1385.06,589.307
1386.51,568.614
1387.96,589.241
1389.41,591.165
1390.86,602.547
1392.31,600.231
1393.76,581.58
1395.21,587.852
1396.66,585.57
1398.11,579.32
1399.56,601.568
1401.02,605.453
1402.47,602.143
1403.92,598.298
1405.37,606.781
1406.82,611.864
1408.27,611.574
1409.72,598.476
1411.17,615.859
1412.62,621.411
1414.07,602.43
1415.52,599.508
1416.97,616.85
1418.42,620.567
1419.87,634.781
1421.32,635.215
1422.77,640.179
1424.22,622.345
1425.67,631.622
1427.12,661.826
1428.57,645.99
1430.02,645.024
1431.47,655.565
1432.92,657.878
1434.37,661.853
1435.82,672.324
1437.27,683.677
1438.72,709.711
1440.17,692.67
1441.62,685.19
1443.07,698.61
1444.53,686.38
1445.98,706.133
1447.43,725.758
1448.88,733.778
1450.33,725.37
1451.78,723.423
1453.23,744.95
1454.68,765.88
1456.13,766.037
1457.58,772.235
1459.03,782.201
1460.48,797.609
1461.93,779.646
1463.38,817.633
1464.83,831.556
1466.28,831.304
1467.73,841.414
1469.18,855.169
1470.63,877.504
1472.08,906.02
1473.53,922.446
1474.98,928.655
1476.43,938.629
1477.88,960.146
1479.33,948.198
1480.78,990.204
1482.23,1010.19
1483.68,1026.26
1485.13,1066.09
1486.58,1079.6
1488.03,1088.46
1489.49,1126.02
1490.94,1157.7
1492.39,1168.39
1493.84,1189.23
1495.29,1218.15
1496.74,1272.92
1498.19,1296.28
1499.64,1345.88
1501.09,1340.23
1502.54,1428.12
1503.99,1487.73
1505.44,1532.03
1506.89,1596.52
1508.34,1660.96
1509.79,1724.26
1511.24,1797.28
1512.69,1883.34
1514.14,1982.32
1515.59,2087.7
1517.04,2193.38
1518.49,2307.67
1519.94,2434.76
1521.39,2615.73
1522.84,2813
1524.29,2978.74
1525.74,3161.56
1527.19,3445.14
1528.64,3708.55
1530.09,3961.03
1531.54,4266.19
1532.99,4615.13
1534.45,5003.58
1535.9,5424.39
1537.35,5820.7
1538.8,6286.96
1540.25,6701.76
1541.7,7241.44
1543.15,7787.43
1544.6,8428.74
1546.05,8886.13
1547.5,9383.05
1548.95,9914.84
1550.4,10503.8
1551.85,10986.9
1553.3,11004.4
1554.75,11022.4
1556.2,11053.9
1557.65,11081
1559.1,11100.8
1560.55,11171.1
1562,11136.8
1563.45,11128.1
1564.9,11123
1566.35,11102.2
1567.8,11016.3
1569.25,10471
1570.7,9862.4
1572.15,9245.46
1573.6,8640.05
1575.05,8049.25
1576.5,7443
1577.96,6847.75
1579.41,6321.45
1580.86,5850.57
1582.31,5383.14
1583.76,4926.85
1585.21,4599.1
1586.66,4247.98
1588.11,3977.91
1589.56,3695.63
1591.01,3456.02
1592.46,3215.69
1593.91,3041.19
1595.36,2843.61
1596.81,2693.1
1598.26,2559.01
1599.71,2413.56
1601.16,2292.47
1602.61,2180.3
1604.06,2065.3
1605.51,1965.24
1606.96,1876.44
1608.41,1781.17
1609.86,1729.57
1611.31,1651.16
1612.76,1568.64
1614.21,1533
1615.66,1470.48
1617.11,1409.88
1618.56,1360.04
1620.01,1322.02
1621.46,1290.82
1622.92,1245.84
1624.37,1199.74
1625.82,1157.6
1627.27,1138.73
1628.72,1119.74
1630.17,1073.93
1631.62,1049.39
1633.07,1051.19
1634.52,1018.28
1635.97,1018.52
1637.42,1001.21
1638.87,959.587
1640.32,948.955
1641.77,942.963
1643.22,928.447
1644.67,909.156
1646.12,891.854
1647.57,885.624
1649.02,870.497
1650.47,854.503
1651.92,846.554
1653.37,846.762
1654.82,838.72
1656.27,844.43
1657.72,821.62
1659.17,817.264
1660.62,793.07
1662.07,782.427
1663.52,768.353
1664.97,776.131
1666.42,754.407
1667.88,755.332
1669.33,736.239
1670.78,724.19
1672.23,739.694
1673.68,740.316
1675.13,733.767
1676.58,723.155
1678.03,722.655
1679.48,728.396
1680.93,715.408
1682.38,697.173
1683.83,707.944
1685.28,688.465
1686.73,677.488
1688.18,665.12
1689.63,670.987
1691.08,687.541
1692.53,684.036
1693.98,665.28
1695.43,668.257
1696.88,677.596
1698.33,673.917
1699.78,669.202
1701.23,666.315
1702.68,671.07
1704.13,659.927
1705.58,668.376
1707.03,658.248
1708.48,670.568
1709.93,637.254
1711.39,643.777
1712.84,668.644
1714.29,650.801
1715.74,641.287
1717.19,649.326
1718.64,659.203
1720.09,650.792
1721.54,657.003
1722.99,657.553
1724.44,643.774
1725.89,649.894
1727.34,653.125
1728.79,638.359
1730.24,645.099
1731.69,643.787
1733.14,640.817
1734.59,628.191
1736.04,653.944
1737.49,634.612
1738.94,617.939
1740.39,612.366
1741.84,605.949
1743.29,605.064
1744.74,616.847
1746.19,617.251
1747.64,620.062
1749.09,604.17
1750.54,614.354
1751.99,605.47
1753.44,584.015
1754.89,590.561
1756.35,597.903
1757.8,586.214
1759.25,590.292
1760.7,595.902
1762.15,574.902
1763.6,583.28
1765.05,580.149
1766.5,584.242
1767.95,572.189
1769.4,568.644
1770.85,564.087
1772.3,579.4
1773.75,556.881
1775.2,572.856
1776.65,555.228
1778.1,553.252
1779.55,558.789
1781,552.165
1782.45,558.955
1783.9,561.793
1785.35,560.235
1786.8,559.588
1788.25,568.067
1789.7,560.401
1791.15,551.53
1792.6,556.477
1794.05,543.146
1795.5,544.822
1796.95,551.438
1798.4,564.838
1799.85,568.064
1801.31,552.126
1802.76,537.36
1804.21,541.472
1805.66,552.061
1807.11,551.413
1808.56,532.142
1810.01,538.198
1811.46,525.227
1812.91,522.46
1814.36,542.998
1815.81,544.331
1817.26,543.475
1818.71,530.173
1820.16,528.156
1821.61,535.306
1823.06,534.079
1824.51,539.312
1825.96,543.664
1827.41,543.477
1828.86,545.957
1830.31,543.863
1831.76,551.165
1833.21,553.057
1834.66,539.03
1836.11,553.225
1837.56,542.218
1839.01,543.275
1840.46,552.674
1841.91,550.32
1843.36,568.252
1844.82,558.082
1846.27,551.563
1847.72,548.217
1849.17,563.949
1850.62,554.58
1852.07,572.802
1853.52,553.995
1854.97,557.32
1856.42,563.276
1857.87,568.266
1859.32,570.473
1860.77,565.319
1862.22,551.602
1863.67,554.664
1865.12,559.908
1866.57,565.217
1868.02,564.568
1869.47,553.023
1870.92,556.189
1872.37,563.916
1873.82,565.703
1875.27,570.77
1876.72,556.264
1878.17,547.12
1879.62,548.937
1881.07,554.391
1882.52,558.207
1883.97,547.717
1885.42,553.052
1886.87,538.208
1888.32,549.095
1889.78,558.504
1891.23,523.508
1892.68,530.718
1894.13,530.709
1895.58,535.098
1897.03,532.519
1898.48,537.857
1899.93,526.285
1901.38,520.086
1902.83,521.383
1904.28,523.743
1905.73,518.267
1907.18,528.951
1908.63,525.975
1910.08,535.981
1911.53,528.11
1912.98,514.073
1914.43,521.857
1915.88,523.862
1917.33,519.462
1918.78,520.071
1920.23,520.786
1921.68,519.724
1923.13,513.358
1924.58,515.938
1926.03,519.468
1927.48,516.047
1928.93,524.485
1930.38,514.436
1931.83,528.675
1933.29,507.558
1934.74,516.191
1936.19,515.431
1937.64,507.714
1939.09,512.053
1940.54,510.102
1941.99,524.077
1943.44,511.912
1944.89,516.505
1946.34,518.486
1947.79,520.903
1949.24,505.478
1950.69,523.631
1952.14,527.695
1953.59,536.258
1955.04,541.858
1956.49,521.792
1957.94,526.016
1959.39,522.276
1960.84,509.674
1962.29,532.474
1963.74,524.051
1965.19,533.539
1966.64,536.422
1968.09,521.514
1969.54,520.004
1970.99,518.131
1972.44,521.375
1973.89,527.916
1975.34,536.302
1976.79,546.828
1978.25,548.055
1979.7,541.52
1981.15,539.662
1982.6,544.467
1984.05,546.069
1985.5,535.357
1986.95,532.725
1988.4,540.977
1989.85,535.146
1991.3,540.531
1992.75,541.523
1994.2,530.571
1995.65,544.066
1997.1,526.092
1998.55,530.637
2000,527.014
2001.45,538.557
2002.9,540.862
2004.35,553.427
2005.8,544.505
2007.25,532.758
2008.7,537.143
2010.15,532.254
2011.6,524.112
2013.05,518.626
2014.5,520.787
2015.95,530.992
2017.4,525.182
2018.85,520.433
2020.3,534.302
2021.75,542.252
2023.21,543.984
2024.66,536.989
2026.11,511.208
2027.56,548.817
2029.01,516.971
2030.46,524.087
2031.91,510.632
2033.36,530.095
2034.81,505.19
2036.26,544.501
2037.71,515.389
2039.16,524.265
2040.61,521.345
2042.06,503.87
2043.51,523.303
2044.96,522.825
2046.41,501.119
2047.86,501.406
2049.31,525.704
2050.76,497.922
2052.21,500.924
2053.66,492.616
2055.11,500.392
2056.56,511.05
2058.01,510.928
2059.46,507.634
2060.91,494.566
2062.36,492.009
2063.81,495.553
2065.26,495.851
2066.72,502.578
2068.17,500.381
2069.62,494.165
2071.07,503.222
2072.52,491.29
2073.97,492.314
2075.42,495.46
2076.87,496.64
2078.32,508.442
2079.77,503.896
2081.22,496.507
2082.67,486.825
2084.12,490.281
2085.57,491.946
2087.02,484.208
2088.47,491.415
2089.92,492.227
2091.37,492.796
2092.82,489.713
2094.27,494.687
2095.72,497.366
2097.17,492.624
2098.62,495.073
2100.07,484.929
2101.52,497.137
2102.97,498.836
2104.42,492.101
2105.87,498.062
2107.32,501.172
2108.77,502.567
2110.22,506.956
2111.68,510.176
2113.13,508.568
2114.58,499.739
2116.03,495.469
2117.48,495.643
2118.93,501.364
2120.38,507.734
2121.83,504.507
2123.28,507.451
2124.73,512.654
2126.18,513.863
2127.63,511.043
2129.08,509.026
2130.53,514.282
2131.98,516.385
2133.43,501.962
2134.88,504.476
2136.33,516.12
2137.78,509.014
2139.23,507.083
2140.68,509.669
2142.13,511.739
2143.58,525.274
2145.03,519.993
2146.48,517.19
2147.93,517.243
2149.38,516.821
2150.83,526.411
2152.28,522.941
2153.73,523.723
2155.18,528.872
2156.64,528.744
2158.09,522.865
2159.54,534.933
2160.99,533.45
2162.44,530.414
2163.89,542.263
2165.34,537.692
2166.79,535.005
2168.24,532.399
2169.69,534.174
2171.14,538.481
2172.59,532.776
2174.04,537.117
2175.49,551.47
2176.94,544.789
2178.39,549.583
2179.84,552.293
2181.29,546.971
2182.74,541.175
2184.19,547.226
2185.64,540.077
2187.09,540.148
2188.54,538.985
2189.99,541.73
2191.44,541.846
2192.89,543.589
2194.34,549.802
2195.79,559.841
2197.24,548.041
2198.69,553.125
2200.15,549.031
2201.6,550.377
2203.05,540.376
2204.5,542.585
2205.95,552.517
2207.4,556.393
2208.85,550.262
2210.3,553.663
2211.75,563.529
2213.2,576.311
2214.65,554.542
2216.1,568.266
2217.55,566.324
2219,554.072
2220.45,567.004
2221.9,565.078
2223.35,568.611
2224.8,576.704
2226.25,587.467
2227.7,566.033
2229.15,575.566
2230.6,585.42
2232.05,569.116
2233.5,563.083
2234.95,555.668
2236.4,582.071
2237.85,589.616
2239.3,573.52
2240.75,578.482
2242.2,583.28
2243.65,567.135
2245.11,584.202
2246.56,593.273
2248.01,586.74
2249.46,578.935
2250.91,593.661
2252.36,593.824
2253.81,610.989
2255.26,595.025
2256.71,584.439
2258.16,594.573
2259.61,608.908
2261.06,598.852
2262.51,583.307
2263.96,595.976
2265.41,611.424
2266.86,602.018
2268.31,613.307
2269.76,607.265
2271.21,598.786
2272.66,614.398
2274.11,611.584
2275.56,601.801
2277.01,608.034
2278.46,609.503
2279.91,609.503
2281.36,606.411
2282.81,620.517
2284.26,625.669
2285.71,619.156
2287.16,610.778
2288.61,624.617
2290.07,631.702
2291.52,642.356
2292.97,637.362
2294.42,640.04
2295.87,639.339
2297.32,628.479
2298.77,631.355
2300.22,634.035
2301.67,620.464
2303.12,646.602
2304.57,649.275
2306.02,648.127
2307.47,631.678
2308.92,639.153
2310.37,661.666
2311.82,657.327
2313.27,649.244
2314.72,638.577
2316.17,650.816
2317.62,652.008
2319.07,689.1
2320.52,674.76
2321.97,667.232
2323.42,689.352
2324.87,674.79
2326.32,681.935
2327.77,688.858
2329.22,684.09
2330.67,683.686
2332.12,699.141
2333.57,699.895
2335.03,710.555
2336.48,682.918
2337.93,695.932
2339.38,709.201
2340.83,708.19
2342.28,719.355
2343.73,721.469
2345.18,717.537
2346.63,731.265
2348.08,720.237
2349.53,720.675
2350.98,747.348
2352.43,748.763
2353.88,759.508
2355.33,757.292
2356.78,760.693
2358.23,777.794
2359.68,776.466
2361.13,767.711
2362.58,770.488
2364.03,795.909
2365.48,798.706
2366.93,837.355
2368.38,795.801
2369.83,814.88
2371.28,811.902
2372.73,841.641
2374.18,846.583
2375.63,857.128
2377.08,871.495
2378.54,875.709
2379.99,886.867
2381.44,900.844
2382.89,907.85
2384.34,913.553
2385.79,914.364
2387.24,932.394
2388.69,940.422
2390.14,959.209
2391.59,982.816
2393.04,980.437
2394.49,966.12
2395.94,978.185
2397.39,1013.02
2398.84,1048.17
2400.29,1028.86
2401.74,1052.97
2403.19,1054.7
2404.64,1086.17
2406.09,1100.33
2407.54,1079.31
2408.99,1088.23
2410.44,1098.53
2411.89,1086.99
2413.34,1118.94
2414.79,1136.15
2416.24,1119.57
2417.69,1108.77
2419.14,1122.12
2420.59,1118.95
2422.04,1088.93
2423.5,1109.72
2424.95,1120.92
2426.4,1102.9
2427.85,1090.91
2429.3,1097.39
2430.75,1107.7
2432.2,1106.75
2433.65,1093.4
2435.1,1069.47
2436.55,1093.27
2438,1074.91
2439.45,1074.99
2440.9,1084.56
2442.35,1069.57
2443.8,1071.71
2445.25,1055.14
2446.7,1071.99
2448.15,1057.78
2449.6,1049.36
2451.05,1034.96
2452.5,1041.55
2453.95,1020.82
2455.4,1045.23
2456.85,1023.8
2458.3,1024.34
2459.75,1034.09
2461.2,1038.5
2462.65,1027.76
2464.1,1027.5
2465.55,1019.39
2467.01,1018.23
2468.46,1023.67
2469.91,1023.83
2471.36,1018.56
2472.81,1023.15
2474.26,1028.21
2475.71,1017.43
2477.16,1035.66
2478.61,1040.93
2480.06,1054.47
2481.51,1049.33
2482.96,1050.23
2484.41,1029.09
2485.86,1054.36
2487.31,1066.57
2488.76,1061.99
2490.21,1056.91
2491.66,1053.85
2493.11,1052.46
2494.56,1063.17
2496.01,1045.38
2497.46,1043.41
2498.91,1054.36
2500.36,1057.15
2501.81,1050.77
2503.26,1081.09
2504.71,1084.5
2506.16,1096.64
2507.61,1118.56
2509.06,1077.92
2510.51,1130.4
2511.97,1110.96
2513.42,1122.68
2514.87,1138.51
2516.32,1153.56
2517.77,1152.23
2519.22,1159.91
2520.67,1181.01
2522.12,1191.1
2523.57,1209.31
2525.02,1206.34
2526.47,1219.7
2527.92,1226
2529.37,1206.58
2530.82,1236.29
2532.27,1262.05
2533.72,1254.95
2535.17,1264.39
2536.62,1285.71
2538.07,1319.02
2539.52,1300.48
2540.97,1338.71
2542.42,1343.15
2543.87,1402.96
2545.32,1413.18
2546.77,1407.15
2548.22,1438.96
2549.67,1457.62
2551.12,1471.74
2552.57,1474.23
2554.02,1507.74
2555.48,1539.62
2556.93,1579.2
2558.38,1598.33
2559.83,1616.1
2561.28,1642.13
2562.73,1702.58
2564.18,1721.05
2565.63,1753.41
2567.08,1796.48
2568.53,1819.74
2569.98,1871.55
2571.43,1940.66
2572.88,1977.38
2574.33,1976.08
2575.78,2038.16
2577.23,2091.88
2578.68,2134.53
2580.13,2194.96
2581.58,2244.11
2583.03,2284.5
2584.48,2350.52
2585.93,2407.38
2587.38,2455.6
2588.83,2552.71
2590.28,2649.23
2591.73,2749.03
2593.18,2782.64
2594.63,2856.22
2596.08,2958.68
2597.53,3037.54
2598.98,3171.12
2600.44,3261.33
2601.89,3380.64
2603.34,3501.71
2604.79,3603.66
2606.24,3740.56
2607.69,3834.64
2609.14,3992.55
2610.59,4073.3
2612.04,4241.77
2613.49,4354.56
2614.94,4528.35
2616.39,4665.97
2617.84,4770.89
2619.29,4919.79
2620.74,5059.84
2622.19,5201.34
2623.64,5381.07
2625.09,5468.77
2626.54,5607.08
2627.99,5747.08
2629.44,5912.92
2630.89,6067.12
2632.34,6210.25
2633.79,6316.38
2635.24,6504.19
2636.69,6545.96
2638.14,6648.15
2639.59,6782.98
2641.04,6823.42
2642.49,6909.52
2643.94,6959.46
2645.4,6979.57
2646.85,7009.04
2648.3,7024.18
2649.75,6976.1
2651.2,6985.94
2652.65,6899.42
2654.1,6932.95
2655.55,6833.64
2657,6773.58
2658.45,6658.17
2659.9,6541.84
2661.35,6421.05
2662.8,6315.59
2664.25,6168.86
2665.7,6080.7
2667.15,5973.38
2668.6,5787.16
2670.05,5668.45
2671.5,5536.5
2672.95,5302.06
2674.4,5208.48
2675.85,5048.14
2677.3,4865.02
2678.75,4731.91
2680.2,4628.14
2681.65,4412.55
2683.1,4290.57
2684.55,4146.12
2686,4037.95
2687.45,3889.48
2688.91,3730.84
2690.36,3598.02
2691.81,3489.1
2693.26,3374.24
2694.71,3202.61
2696.16,3104.63
2697.61,3063.84
2699.06,2907.84
2700.51,2833.6
2701.96,2785.6
2703.41,2683.25
2704.86,2559.76
2706.31,2489.37
2707.76,2385.33
2709.21,2351.74
2710.66,2276.86
2712.11,2193.79
2713.56,2138.34
2715.01,2102
2716.46,2035.11
2717.91,1986.84
2719.36,1924.52
2720.81,1894.93
2722.26,1857.91
2723.71,1795.24
2725.16,1739.08
2726.61,1705.55
2728.06,1682.57
2729.51,1658.31
2730.96,1615.5
2732.41,1559.92
2733.87,1560.69
2735.32,1507.53
2736.77,1491.83
2738.22,1464.58
2739.67,1445.9
2741.12,1426.23
2742.57,1380.76
2744.02,1368.29
2745.47,1366.54
2746.92,1324.84
2748.37,1325.51
2749.82,1290.93
2751.27,1294.52
2752.72,1258.86
2754.17,1263.21
2755.62,1231.46
2757.07,1199.68
2758.52,1191.29
2759.97,1186.27
2761.42,1157.11
2762.87,1148.58
2764.32,1153.5
2765.77,1134.89
2767.22,1094.2
2768.67,1136.06
2770.12,1108.02
2771.57,1100.55
2773.02,1084.92
2774.47,1087.07
2775.92,1081.28
2777.38,1063.39
2778.83,1062.41
2780.28,1048.09
2781.73,1039.46
2783.18,1024.08
2784.63,1025.45
2786.08,1016.44
2787.53,984.095
2788.98,1000.49
2790.43,1011.23
2791.88,996.656
2793.33,983.014
2794.78,967.652
2796.23,964.993
2797.68,974.643
2799.13,961.569
2800.58,962.624
2802.03,950.171
2803.48,942.972
2804.93,952.496
2806.38,937.233
2807.83,918.698
2809.28,925.708
2810.73,914.896
2812.18,923.077
2813.63,923.708
2815.08,931.204
2816.53,906.516
2817.98,913.742
2819.43,923.699
2820.88,906.949
2822.33,893.074
2823.79,901.008
2825.24,890.06
2826.69,882.098
2828.14,876.183
2829.59,878.077
2831.04,891.041
2832.49,897.524
2833.94,856.914
2835.39,854.637
2836.84,857.276
2838.29,849.772
2839.74,849.777
2841.19,855.038
2842.64,870.102
2844.09,866.902
2845.54,857.067
2846.99,852.115
2848.44,849.766
2849.89,837.074
2851.34,850.907
2852.79,841.677
2854.24,832.328
2855.69,844.199
2857.14,864.754
2858.59,842.069
2860.04,830.697
2861.49,842.59
2862.94,825.912
2864.39,827.957
2865.84,846.057
2867.3,841.765
2868.75,840.105
2870.2,839.917
2871.65,824.843
2873.1,830.589
2874.55,847.737
2876,839.303
2877.45,841.893
2878.9,843.852
2880.35,838.959
2881.8,820.148
2883.25,827.058
2884.7,828.49
2886.15,828.336
2887.6,826.062
2889.05,818.337
2890.5,831.78
2891.95,839.627
2893.4,831.944
2894.85,836.973
2896.3,836.588
2897.75,824.689
2899.2,822.848
2900.65,821.655
2902.1,816.424
2903.55,812.969
2905,813.892
2906.45,816.336
2907.9,818.635
2909.35,811.564
2910.8,797.071
2912.26,796.427
2913.71,804.442
2915.16,776.748
2916.61,809.008
2918.06,797.448
2919.51,779.45
2920.96,796.924
2922.41,793.226
2923.86,791.24
2925.31,784.28
2926.76,772.093
2928.21,766.61
2929.66,764.721
2931.11,760.378
2932.56,751.993
2934.01,768.93
2935.46,753.183
2936.91,753.178
2938.36,750.083
2939.81,741.285
2941.26,733.137
2942.71,740.049
2944.16,743.383
2945.61,740.777
2947.06,739.593
2948.51,742.287
2949.96,726.003
2951.41,723.924
2952.86,735.706
2954.31,723.139
2955.77,718.306
2957.22,727.542
2958.67,719.26
2960.12,707.544
2961.57,740.693
2963.02,717.516
2964.47,714.205
2965.92,711.431
2967.37,715.719
2968.82,713.764
2970.27,720.286
2971.72,702.694
2973.17,704.69
2974.62,703.876
2976.07,695.895
2977.52,696.559
2978.97,702.363
2980.42,695.379
2981.87,706.618
2983.32,712.668
2984.77,704.503
2986.22,692.922
2987.67,700.795
2989.12,706.563
2990.57,710.178
2992.02,703.075
2993.47,691.515
2994.92,697.715
2996.37,709.741
2997.82,706.558
2999.27,713.238
3000.73,688.27
3002.18,703.743
3003.63,690.275
3005.08,699.357
3006.53,695.87
3007.98,679.072
3009.43,675.707
3010.88,684.848
3012.33,696.709
3013.78,711.538
3015.23,680.282
3016.68,692.476
3018.13,682.392
3019.58,692.006
3021.03,693.503
3022.48,681.489
3023.93,696.081
3025.38,709.474
3026.83,688.756
3028.28,698.038
3029.73,716.22
3031.18,718.071
3032.63,706.023
3034.08,718.77
3035.53,722.563
3036.98,680.053
3038.43,710.364
3039.88,714.211
3041.33,708.825
3042.78,707.498
3044.23,697.336
3045.69,697.164
3047.14,692.757
3048.59,707.558
3050.04,717.194
3051.49,697.099
3052.94,695.12
3054.39,709.487
3055.84,721.539
3057.29,717.713
3058.74,706.522
3060.19,724.156
3061.64,732.938
3063.09,738.43
3064.54,742.764
3065.99,739.449
3067.44,720.77
3068.89,736.353
3070.34,750.16
3071.79,771.903
3073.24,739.041
3074.69,755.903
3076.14,754.585
3077.59,759.596
3079.04,782.221
3080.49,781.031
3081.94,797.316
3083.39,790.986
3084.84,810.338
3086.29,798.345
3087.74,806.012
3089.2,810.029
3090.65,823.666
3092.1,828.631
3093.55,832.276
3095,829.408
3096.45,835.064
3097.9,848.206
3099.35,868.089
3100.8,876.411
3102.25,867.659
3103.7,894.234
3105.15,899.68
3106.6,889.806
3108.05,912.292
3109.5,894.621
3110.95,912.039
3112.4,916.77
3113.85,943.918
3115.3,939.719
3116.75,950.342
3118.2,943.206
3119.65,958.371
3121.1,965.201
3122.55,967.453
3124,972.58
3125.45,968.679
3126.9,978.707
3128.35,993.989
3129.8,980.347
3131.25,982.05
3132.7,997.215
3134.16,989.754
3135.61,989.43
3137.06,1006.95
3138.51,981.996
3139.96,997.962
3141.41,1003.96
3142.86,992.331
3144.31,1010.91
3145.76,1011.23
3147.21,1014.51
3148.66,999.764
3150.11,998.494
3151.56,983.483
3153.01,993.214
3154.46,1010.94
3155.91,1017.33
3157.36,1027.92
3158.81,1039.41
3160.26,1008.47
3161.71,1027.69
3163.16,1038.49
3164.61,1035.9
3166.06,1025.51
3167.51,1055.88
3168.96,1047.74
3170.41,1046.91
3171.86,1062.87
3173.31,1071.41
3174.76,1077.21
3176.21,1058.83
3177.67,1076.07
3179.12,1069.04
3180.57,1084.39
3182.02,1109.83
3183.47,1095.3
3184.92,1072.34
3186.37,1088.62
3187.82,1083.81
3189.27,1066.06
3190.72,1090.06
3192.17,1070.06
3193.62,1063.02
3195.07,1057.71
3196.52,1055.76
3197.97,1030.71
3199.42,988.799
3200.87,1009.23
3202.32,1000.98
3203.77,985.618
3205.22,984.42
3206.67,969.724
3208.12,958.776
3209.57,938.575
3211.02,915.526
3212.47,936.169
3213.92,904.435
3215.37,879.175
3216.82,880.423
3218.27,862.557
3219.72,845.858
3221.17,847.759
3222.63,841.335
3224.08,839.479
3225.53,824.995
3226.98,818.793
3228.43,779.711
3229.88,804.401
3231.33,784.59
3232.78,764.181
3234.23,747.919
3235.68,754.693
3237.13,750.99
3238.58,748.426
3240.03,726.011
3241.48,716.028
3242.93,721.363
3244.38,730.491
3245.83,725.995
3247.28,727.811
3248.73,710.112
3250.18,716.958
3251.63,713.991
3253.08,713.198
3254.53,703.692
3255.98,677.957
3257.43,692.566
3258.88,692.235
3260.33,685.293
3261.78,684.663
3263.23,681.588
3264.68,697.467
3266.13,687.621
3267.59,671.622
3269.04,681.107
3270.49,693.192
3271.94,687.688
3273.39,668.874
3274.84,681.157
3276.29,674.467
3277.74,669.779
3279.19,686.736
3280.64,667.52
3282.09,676.555
3283.54,669.357
3284.99,678.545
3286.44,674.022
3287.89,667.813
3289.34,683.249
3290.79,683.344
3292.24,660.067
3293.69,688.411
3295.14,687.439
3296.59,675.924
3298.04,670.283
3299.49,668.599
3300.94,662.998
3302.39,672.705
3303.84,657.239
3305.29,667.209
3306.74,684.281
3308.19,671.529
3309.64,659.386
3311.09,665.192
3312.55,678.251
3314,673.816
3315.45,651.247
3316.9,661.911
3318.35,678.486
3319.8,654.058
3321.25,676.509
3322.7,663.41
3324.15,667.962
3325.6,676.436
3327.05,678.563
3328.5,660.733
3329.95,675.139
3331.4,682.731
3332.85,660.846
3334.3,655.089
3335.75,662.38
3337.2,667.282
3338.65,664.484
3340.1,666.736
3341.55,673.61
3343,672.7
3344.45,663.467
3345.9,671.001
3347.35,660.491
3348.8,649.93
3350.25,672.896
3351.7,665.466
3353.15,663.241
3354.6,672.535
3356.06,662.657
3357.51,668.531
3358.96,668.355
3360.41,662.984
3361.86,664.743
3363.31,659.61
3364.76,660.454
3366.21,666.591
3367.66,670.032
3369.11,670.82
3370.56,685.659
3372.01,680.399
3373.46,702.303
3374.91,673.181
3376.36,671.129
3377.81,665.572
3379.26,673.062
3380.71,657.395
3382.16,674.954
3383.61,669.366
3385.06,685.587
3386.51,674.398
3387.96,663.833
3389.41,648.309
3390.86,668.427
3392.31,673.875
3393.76,663.146
3395.21,673.028
3396.66,672.775
3398.11,689.956
3399.56,681.739
3401.02,682.97
3402.47,677.751
3403.92,664.488
3405.37,652.577
3406.82,680.748
3408.27,659.661
3409.72,664.592
3411.17,673.832
3412.62,676.487
3414.07,674.184
3415.52,678.719
3416.97,663.792
3418.42,679.826
3419.87,665.131
3421.32,669.071
3422.77,675.14
3424.22,684.223
3425.67,689.081
3427.12,692.524
3428.57,688.165
3430.02,673.889
3431.47,682.474
3432.92,689.06
3434.37,667.106
3435.82,679.015
3437.27,681.164
3438.72,679.287
3440.17,682.55
3441.62,670.241
3443.07,672.156
3444.52,679.771
3445.98,647.683
3447.43,685.796
3448.88,684.11
3450.33,678.927
3451.78,676.552
3453.23,682.728
3454.68,682.999
3456.13,679.883
3457.58,680.149
3459.03,673.577
3460.48,668.92
3461.93,696.566
3463.38,684.643
3464.83,691.327
3466.28,698.663
3467.73,699.178
3469.18,689.918
3470.63,679.364
3472.08,689.444
3473.53,701.124
3474.98,694.451
3476.43,668.201
3477.88,700.127
3479.33,696.328
3480.78,696.704
3482.23,687.152
3483.68,705.455
3485.13,662.079
3486.58,690.506
3488.03,703.293
3489.49,697.13
3490.94,677.394
3492.39,679.672
3493.84,688.651
3495.29,701.996
3496.74,701.73
3498.19,682.859
3499.64,694.753
3501.09,693.518
3502.54,704.22
3503.99,690.243
3505.44,693.689
3506.89,701.01
3508.34,706.577
3509.79,694.621
3511.24,698.924
3512.69,698.761
3514.14,694.385
3515.59,724.214
3517.04,703.449
3518.49,707.93
3519.94,706.534
3521.39,698.821
3522.84,709.802
3524.29,707.273
3525.74,704.902
3527.19,716.661
3528.64,693.386
3530.09,704.455
3531.54,710.658
3532.99,720.718
3534.45,715.858
3535.9,685.797
3537.35,709.127
3538.8,707.28
3540.25,703.31
3541.7,704.187
3543.15,699.138
3544.6,718.723
3546.05,700.946
3547.5,701.445
3548.95,709.067
3550.4,717.441
3551.85,711.549
3553.3,704.661
3554.75,694.885
3556.2,692.951
3557.65,711.389
3559.1,697.012
3560.55,706.096
3562,706.906
3563.45,707.735
3564.9,698.105
3566.35,710.972
3567.8,724.733
3569.25,715.312
3570.7,721.501
3572.15,716.858
3573.6,706.27
3575.05,702.393
3576.5,707.236
3577.96,712.846
3579.41,726.496
3580.86,709.012
3582.31,719.88
3583.76,722.354
3585.21,713.453
3586.66,704.526
3588.11,716.182
3589.56,719.205
3591.01,713.344
3592.46,740.588
3593.91,693.787
3595.36,696.235
3596.81,708.14
3598.26,722.896
3599.71,718.802
3601.16,715.476
3602.61,716.006
3604.06,723.389
3605.51,718.131
3606.96,731.582
3608.41,720.646
3609.86,738.01
3611.31,729.803
3612.76,721.055
3614.21,726.909
3615.66,727.865
3617.11,737.062
3618.56,716.28
3620.01,732.482
3621.46,749.248
3622.92,746.814
3624.37,732.559
3625.82,717.245
3627.27,731.371
3628.72,734.736
3630.17,725.703
3631.62,730.054
3633.07,720.239
3634.52,741.833
3635.97,719.011
3637.42,736.148
3638.87,738.581
3640.32,761.738
3641.77,734.337
3643.22,722.089
3644.67,749.008
3646.12,729.981
3647.57,747.196
3649.02,742.829
3650.47,737.142
3651.92,754.662
3653.37,745.823
3654.82,739.602
3656.27,738.072
3657.72,736.149
3659.17,735.431
3660.62,747.496
3662.07,746.967
3663.52,747.299
3664.97,737.553
3666.43,745.212
3667.88,767.69
3669.33,751.918
3670.78,750.609
3672.23,750.089
3673.68,757.14
3675.13,750.811
3676.58,745.779
3678.03,739.962
3679.48,741.852
3680.93,758.479
3682.38,753.012
3683.83,753.662
3685.28,739.589
3686.73,766.862
3688.18,754.031
3689.63,758.029
3691.08,748.734
3692.53,752.085
3693.98,755.737
3695.43,735.798
3696.88,762.106
3698.33,785.215
3699.78,763.239
3701.23,759.29
3702.68,757.292
3704.13,748.084
3705.58,747.175
3707.03,758.385
3708.48,749.053
3709.93,756.648
3711.39,761.67
3712.84,758.369
3714.29,777.546
3715.74,768.378
3717.19,766.164
3718.64,757.246
3720.09,764.892
3721.54,764.749
3722.99,769.833
3724.44,781.148
3725.89,774.718
3727.34,791.376
3728.79,787.138
3730.24,770.12
3731.69,761.903
3733.14,764.669
3734.59,760.826
3736.04,772.508
3737.49,761.642
3738.94,765.687
3740.39,766.46
3741.84,789.329
3743.29,791.407
3744.74,770.98
3746.19,777.743
3747.64,782.494
3749.09,776.811
3750.54,788.967
3751.99,786.201
3753.44,772.407
3754.89,782.02
3756.35,777.513
3757.8,775.939
3759.25,779.517
3760.7,772.64
3762.15,808.245
3763.6,792.005
3765.05,795.076
3766.5,793.594
3767.95,776.084
3769.4,790.444
3770.85,773.693
3772.3,787.74
3773.75,787.639
3775.2,793.044
3776.65,798.32
3778.1,802.416
3779.55,783.276
3781,783.558
3782.45,812.081
3783.9,798.665
3785.35,797.966
3786.8,801.865
3788.25,800.786
3789.7,825.982
3791.15,811.344
3792.6,791.86
3794.05,790.69
3795.5,808.564
3796.95,812.74
3798.4,786.719
3799.85,807.815
3801.31,811.166
3802.76,800.081
3804.21,800.126
3805.66,808.875
3807.11,808.839
3808.56,796.412
3810.01,792.863
3811.46,815.761
3812.91,798.908
3814.36,803.685
3815.81,829.466
3817.26,813.798
3818.71,819.54
3820.16,828.167
3821.61,819.307
3823.06,818.888
3824.51,814.51
3825.96,813.851
3827.41,812.55
3828.86,826.346
3830.31,824.102
3831.76,825.586
3833.21,839.771
3834.66,810.155
3836.11,808.252
3837.56,803.746
3839.01,817.888
3840.46,820.041
3841.91,826.661
3843.36,834.451
3844.82,825.361
3846.27,839.188
3847.72,836.989
3849.17,836.992
3850.62,839.445
3852.07,833.007
3853.52,829.755
3854.97,837.681
3856.42,817.481
3857.87,855.517
3859.32,843.686
3860.77,854.205
3862.22,836.688
3863.67,838.919
3865.12,823.968
3866.57,850.939
3868.02,845.255
3869.47,844.727
3870.92,858.66
3872.37,831.079
3873.82,857.295
3875.27,852.754
3876.72,860.927
3878.17,858.835
3879.62,841
3881.07,846.693
3882.52,867.579
3883.97,854.025
3885.42,865.102
3886.87,859.031
3888.32,857.995
3889.78,866.685
3891.23,867.016
3892.68,849.672
3894.13,849.672
3895.58,850.543
3897.03,871.93
3898.48,875.683
3899.93,879.904
3901.38,868.944
3902.83,881.351
3904.28,888.751
3905.73,872.829
3907.18,884.299
3908.63,878.118
3910.08,862.654
3911.53,873.06
3912.98,896.73
3914.43,880.958
3915.88,892.817
3917.33,888.032
3918.78,893.018
3920.23,879.245
3921.68,903.984
3923.13,881.946
3924.58,888.034
3926.03,906.084
3927.48,908.462
3928.93,884.433
3930.38,898.86
3931.83,927.015
3933.28,894.975
3934.74,917.067
3936.19,926.844
3937.64,919.05
3939.09,907.678
3940.54,891.299
3941.99,913.995
3943.44,923.293
3944.89,903.795
3946.34,904.75
3947.79,912.021
3949.24,900.492
3950.69,940.828
3952.14,924.122
3953.59,905.228
3955.04,931.745
3956.49,943.9
3957.94,929.754
3959.39,938.088
3960.84,965.867
3962.29,921.158
3963.74,951.568
3965.19,915.878
3966.64,957.497
3968.09,959.668
3969.54,947.414
3970.99,942.9
3972.44,939.224
3973.89,946.207
3975.34,960.56
3976.79,918.806
3978.25,961.317
3979.7,970.598
3981.15,950.081
3982.6,971.517
3984.05,975.887
3985.5,942.296
3986.95,973.995
3988.4,998.269
3989.85,968.354
3991.3,968.282
3992.75,972.076
3994.2,958.83
3995.65,975.635
3997.1,958.029
3998.55,984.663
4000,968.201
