0.2,50.7913
1.45033,50.7913
2.90065,50.7913
4.35098,50.7913
5.80131,50.7913
7.25163,41.9028
8.70196,94.5492
10.1523,65.1122
11.6026,50.971
13.0529,44.2313
14.5033,39.0136
15.9536,34.1451
17.4039,31.0729
18.8542,28.8277
20.3046,29.7964
21.7549,29.7152
23.2052,26.1554
24.6555,22.7392
26.1059,23.2785
27.5562,22.5893
29.0065,20.331
30.4569,17.601
31.9072,15.0369
33.3575,15.6818
34.8078,16.4996
36.2582,16.193
37.7085,15.3378
39.1588,15.745
40.6091,13.3785
42.0595,10.717
43.5098,10.5712
44.9601,13.8237
46.4104,15.8082
47.8608,20.0586
49.3111,26.301
50.7614,32.3127
52.2117,51.8427
53.6621,95.1496
55.1124,161.593
56.5627,253.012
58.0131,379.86
59.4634,495.686
60.9137,604.412
62.364,700.317
63.8144,779.14
65.2647,852.049
66.715,891.945
68.1653,915.9
69.6157,933.763
71.066,954.262
72.5163,955.458
73.9666,955.527
75.417,952.875
76.8673,947.578
78.3176,942.429
79.7679,963.469
81.2183,990.836
82.6686,1021.12
84.1189,1050.93
85.5693,1068.12
87.0196,1079.64
88.4699,1073.01
89.9202,1059.9
91.3706,1058.38
92.8209,1018.98
94.2712,1000.1
95.7215,981.96
97.1719,955.501
98.6222,918.832
100.073,901.239
101.523,892.452
102.973,876.613
104.423,845.928
105.874,808.54
107.324,812.211
108.774,799.6
110.225,780.05
111.675,769.087
113.125,765.638
114.576,756.796
116.026,743.862
117.476,730.205
118.927,718.761
120.377,686.972
121.827,679.558
123.278,681.319
124.728,676.963
126.178,648.473
127.629,628.414
129.079,615.221
130.529,603.365
131.98,592.465
133.43,590.046
134.88,581.571
136.331,577.726
137.781,572.072
139.231,563.461
140.682,568.477
142.132,547.002
143.582,529.139
145.033,521.963
146.483,524.456
147.933,513.379
149.384,503.192
150.834,483.824
152.284,466.814
153.735,467.683
155.185,480.5
156.635,452.801
158.086,452.153
159.536,460.654
160.986,427.478
162.437,429.559
163.887,432.05
165.337,438.878
166.788,441.544
168.238,423.319
169.688,429.05
171.139,428.073
172.589,423.039
174.039,417.912
175.489,418.434
176.94,407.292
178.39,401.212
179.84,404.392
181.291,409.683
182.741,393.7
184.191,380.718
185.642,375.384
187.092,368.854
188.542,361.101
189.993,368.934
191.443,370.505
192.893,369.073
194.344,366.92
195.794,366.127
197.244,368.737
198.695,372.485
200.145,366.155
201.595,360.866
203.046,362.18
204.496,357.304
205.946,372.331
207.397,372.613
208.847,368.699
210.297,367.948
211.748,355.576
213.198,357.071
214.648,353.028
216.099,346.394
217.549,340.641
218.999,333.141
220.45,326.748
221.9,318.384
223.35,318.254
224.801,330.982
226.251,341.804
227.701,337.946
229.152,335.959
230.602,333.131
232.052,325.96
233.503,314.418
234.953,332.805
236.403,329.691
237.854,323.886
239.304,327.14
240.754,315.414
242.204,311.5
243.655,317.264
245.105,312.878
246.555,298.9
248.006,323.042
249.456,315.323
250.906,315.591
252.357,315.151
253.807,309.397
255.257,306.417
256.708,316.421
258.158,316.503
259.608,316.114
261.059,318.598
262.509,317.018
263.959,299.916
265.41,298.769
266.86,308.646
268.31,317.961
269.761,309.81
271.211,311.567
272.661,302.415
274.112,300.264
275.562,307.96
277.012,315.969
278.463,301.032
279.913,302.361
281.363,297.926
282.814,289.782
284.264,290.415
285.714,287.952
287.165,286.223
288.615,286.933
290.065,285.563
291.516,277.967
292.966,274.271
294.416,282.545
295.867,281.444
297.317,277.129
298.767,276.011
300.218,264.926
301.668,273.163
303.118,275.581
304.569,278.749
306.019,282.267
307.469,264.639
308.919,271.786
310.37,269.545
311.82,266.722
313.27,263.685
314.721,249.496
316.171,242.967
317.621,238.494
319.072,246.438
320.522,253.64
321.972,237.824
323.423,244.535
324.873,246.978
326.323,246.455
327.774,243.808
329.224,241.942
330.674,253.959
332.125,249.26
333.575,245.334
335.025,245.483
336.476,247.784
337.926,244.07
339.376,246.108
340.827,244.185
342.277,239.084
343.727,239.741
345.178,260.555
346.628,236.833
348.078,232.33
349.529,233.953
350.979,234.512
352.429,232.468
353.88,242.743
355.33,234.619
356.78,233.635
358.231,237.849
359.681,238.953
361.131,229.201
362.582,231.644
364.032,236.099
365.482,239.699
366.933,238.606
368.383,228.245
369.833,230.199
371.284,220.724
372.734,222.361
374.184,229.044
375.635,225.313
377.085,228.865
378.535,231.48
379.986,233.388
381.436,234.46
382.886,234.815
384.336,235.17
385.787,232.249
387.237,232.795
388.687,230.439
390.138,225.452
391.588,223.744
393.038,225.7
394.489,227.36
395.939,228.201
397.389,231.796
398.84,237.094
400.29,224.63
401.74,224.838
403.191,224.132
404.641,232.863
406.091,241.591
407.542,221.541
408.992,229.74
410.442,228.929
411.893,225.02
413.343,224.989
414.793,232.03
416.244,234.348
417.694,223.662
419.144,221.504
420.595,216.889
422.045,213.208
423.495,232.535
424.946,238.069
426.396,221.683
427.846,213.458
429.297,216.601
430.747,223.463
432.197,229.724
433.648,218.367
435.098,213.407
436.548,221.06
437.999,230.257
439.449,217.997
440.899,227.834
442.35,220.594
443.8,220.796
445.25,221.778
446.701,216.287
448.151,225.605
449.601,222.426
451.051,216.417
452.502,217.897
453.952,224.815
455.402,226.38
456.853,225.483
458.303,214.015
459.753,219.938
461.204,226.659
462.654,221.257
464.104,216.436
465.555,224.865
467.005,221.878
468.455,219.87
469.906,218.275
471.356,213.707
472.806,220.895
474.257,218.284
475.707,218.695
477.157,218.536
478.608,222.052
480.058,238.372
481.508,224.18
482.959,224.393
484.409,218.693
485.859,217.695
487.31,225.66
488.76,219.917
490.21,224.233
491.661,214.499
493.111,215.113
494.561,222.945
496.012,224.185
497.462,219.326
498.912,217.851
500.363,209.749
501.813,210.157
503.263,219.341
504.714,224.023
506.164,216.998
507.614,209.805
509.065,207.475
510.515,208.992
511.965,212.145
513.416,214.7
514.866,210.729
516.316,209.79
517.766,218.531
519.217,219.593
520.667,206.768
522.117,208.594
523.568,214.195
525.018,217.635
526.468,218.819
527.919,216.402
529.369,210.233
530.819,204.809
532.27,208.489
533.72,208.475
535.17,212.731
536.621,220.025
538.071,221.59
539.521,204.415
540.972,213.674
542.422,220.082
543.872,219.162
545.323,214.469
546.773,212.985
548.223,215.34
549.674,213.894
551.124,217.087
552.574,220.332
554.025,221.873
555.475,223.105
556.925,215.488
558.376,219.048
559.826,217.435
561.276,213.872
562.727,213.142
564.177,216.771
565.627,218.405
567.078,216.045
568.528,207.969
569.978,212.846
571.429,223.132
572.879,204.896
574.329,208.348
575.78,208.943
577.23,209.124
578.68,211.62
580.131,214.589
581.581,212.447
583.031,217.903
584.482,210.671
585.932,213.567
587.382,216.614
588.832,214.887
590.283,217.24
591.733,219.424
593.183,227.52
594.634,221.354
596.084,215.858
597.534,216.966
598.985,213.911
600.435,215.187
601.885,222.453
603.336,221.778
604.786,215.237
606.236,211.23
607.687,216.275
609.137,206.244
610.587,212.559
612.038,209.327
613.488,212.072
614.938,219.564
616.389,215.977
617.839,214.152
619.289,201.992
620.74,214.593
622.19,223.333
623.64,218.325
625.091,211.491
626.541,220.821
627.991,217.02
629.442,214.727
630.892,216.939
632.342,221.231
633.793,222.575
635.243,216.906
636.693,222.115
638.144,217.191
639.594,224.682
641.044,225.843
642.495,211.351
643.945,220.806
645.395,228.314
646.846,223.657
648.296,226.104
649.746,228.9
651.197,227.484
652.647,229.625
654.097,231.092
655.547,229.952
656.998,224.124
658.448,220.16
659.898,217.559
661.349,213.324
662.799,229.653
664.249,231.292
665.7,228.704
667.15,231.575
668.6,234.135
670.051,227.892
671.501,221.685
672.951,234.176
674.402,235.593
675.852,229.991
677.302,233.471
678.753,242.559
680.203,226.249
681.653,236.189
683.104,241.579
684.554,239.583
686.004,234.519
687.455,232.709
688.905,237.375
690.355,239.031
691.806,241.92
693.256,235.801
694.706,235.143
696.157,236.908
697.607,234.786
699.057,237.039
700.508,240.543
701.958,250.615
703.408,248.614
704.859,242.436
706.309,240.865
707.759,242.305
709.21,232.347
710.66,229.451
712.11,236.625
713.561,234.761
715.011,233.354
716.461,242.779
717.912,235.317
719.362,231.99
720.812,235.527
722.263,236.41
723.713,242.798
725.163,250.394
726.613,242.732
728.064,238.482
729.514,242.943
730.964,241.729
732.415,239.986
733.865,239.695
735.315,239.187
736.766,236.544
738.216,251.731
739.666,247.135
741.117,238.903
742.567,239.77
744.017,240.743
745.468,228.792
746.918,242.326
748.368,240.784
749.819,234.32
751.269,239.015
752.719,241.156
754.17,234.277
755.62,236.783
757.07,248.847
758.521,245.871
759.971,234.413
761.421,235.611
762.872,242.522
764.322,240.219
765.772,236.822
767.223,244.254
768.673,251.195
770.123,241.143
771.574,236.369
773.024,242.922
774.474,245.803
775.925,234.094
777.375,241.163
778.825,245.153
780.276,243.995
781.726,242.969
783.176,241.881
784.627,236.821
786.077,245.572
787.527,245.333
788.978,240.932
790.428,249.778
791.878,254.108
793.328,248.314
794.779,255.639
796.229,245.2
797.68,250.508
799.13,248.975
800.58,247.399
802.03,248.916
803.481,254.485
804.931,263.687
806.381,250.624
807.832,256.794
809.282,250.748
810.732,246.852
812.183,248.402
813.633,250.647
815.083,252.357
816.534,254.412
817.984,254.769
819.434,258.422
820.885,255.656
822.335,254.633
823.785,260.261
825.236,253.203
826.686,249.088
828.136,259.405
829.587,253.989
831.037,256.577
832.487,268.877
833.938,272.795
835.388,255.818
836.838,265.743
838.289,272.759
839.739,262.665
841.189,262.586
842.64,270.493
844.09,273.622
845.54,274.601
846.991,266.728
848.441,266.683
849.891,268.68
851.342,269.201
852.792,273.794
854.242,278.678
855.693,265.723
857.143,248.269
858.593,268.827
860.044,275.95
861.494,275.891
862.944,271.74
864.394,269.318
865.845,275.733
867.295,275.546
868.745,273.883
870.196,277.434
871.646,269.718
873.096,264.365
874.547,264.036
875.997,259.059
877.447,265.421
878.898,261.282
880.348,274.818
881.798,277.703
883.249,274.777
884.699,273.794
886.149,275.032
887.6,271.97
889.05,257.827
890.5,269.428
891.951,272.216
893.401,270.713
894.851,272.208
896.302,275.409
897.752,272.083
899.202,270.575
900.653,281.658
902.103,277.865
903.553,281.5
905.004,282.091
906.454,283.051
907.904,299.011
909.355,302.946
910.805,300.301
912.255,294.673
913.706,279.487
915.156,278.48
916.606,284.623
918.057,285.904
919.507,295.195
920.957,272.487
922.408,281.476
923.858,296.909
925.308,297.44
926.759,291.445
928.209,294.972
929.659,307.936
931.109,301.722
932.56,301.722
934.01,304.062
935.46,308.099
936.911,296.517
938.361,291.354
939.811,303.331
941.262,299.044
942.712,312.498
944.162,305.642
945.613,306.058
947.063,292.431
948.513,288.76
949.964,299.25
951.414,302.398
952.864,292.216
954.315,299.236
955.765,306.969
957.215,306.048
958.666,303.822
960.116,301.573
961.566,299.54
963.017,297.903
964.467,289.644
965.917,299.915
967.368,299.885
968.818,301.23
970.268,295.501
971.719,290.307
973.169,293.561
974.619,299.047
976.07,304.296
977.52,298.209
978.97,311.781
980.421,308.655
981.871,308.243
983.321,306.977
984.772,301.135
986.222,310.924
987.672,296.626
989.123,307.992
990.573,303.509
992.023,304.629
993.474,305.359
994.924,303.432
996.374,304.189
997.825,308.537
999.275,302.046
1000.73,311.884
1002.18,309.814
1003.63,316.745
1005.08,322.754
1006.53,325.196
1007.98,326.57
1009.43,320.91
1010.88,315.748
1012.33,319.084
1013.78,337.58
1015.23,333.031
1016.68,328.75
1018.13,332.227
1019.58,333.686
1021.03,332.044
1022.48,327.525
1023.93,346.094
1025.38,344.328
1026.83,355.16
1028.28,351.296
1029.73,344.4
1031.18,347.901
1032.63,343.212
1034.08,344.801
1035.53,348.251
1036.98,370.496
1038.43,374.964
1039.88,370.021
1041.33,371.836
1042.78,374.463
1044.23,366.668
1045.69,381.019
1047.14,376.028
1048.59,372.823
1050.04,378.591
1051.49,377.184
1052.94,380.666
1054.39,391.225
1055.84,395.832
1057.29,393.299
1058.74,402.332
1060.19,406.281
1061.64,401.68
1063.09,412.322
1064.54,420.082
1065.99,422.016
1067.44,426.677
1068.89,434.904
1070.34,448.522
1071.79,442.363
1073.24,436.725
1074.69,428.306
1076.14,431.035
1077.59,440.277
1079.04,446.58
1080.49,447.845
1081.94,445.94
1083.39,430.33
1084.84,458.877
1086.29,456.35
1087.74,444.047
1089.2,448.233
1090.65,453.284
1092.1,445.147
1093.55,440.252
1095,438.81
1096.45,433.213
1097.9,431.398
1099.35,434.04
1100.8,432.639
1102.25,438.023
1103.7,428.781
1105.15,411.783
1106.6,446.971
1108.05,443.427
1109.5,424.269
1110.95,423.064
1112.4,421.149
1113.85,424.176
1115.3,427.767
1116.75,425.16
1118.2,418.775
1119.65,416.967
1121.1,406.378
1122.55,424.188
1124,410.057
1125.45,405.569
1126.9,412.765
1128.35,412.193
1129.8,409.024
1131.25,413.159
1132.7,398.153
1134.16,411.911
1135.61,417.921
1137.06,401.457
1138.51,401.154
1139.96,397.039
1141.41,395.767
1142.86,396.122
1144.31,391.185
1145.76,401.699
1147.21,397.196
1148.66,388.838
1150.11,401.167
1151.56,395.187
1153.01,383.998
1154.46,385.212
1155.91,390.624
1157.36,390.934
1158.81,402.027
1160.26,399.619
1161.71,377.039
1163.16,397.701
1164.61,393.423
1166.06,392.29
1167.51,397.428
1168.96,397.353
1170.41,391.584
1171.86,390.331
1173.31,386.965
1174.76,382.876
1176.21,391.161
1177.66,388.333
1179.12,387.913
1180.57,390.164
1182.02,393.357
1183.47,393.887
1184.92,393.118
1186.37,404.113
1187.82,393.57
1189.27,400.396
1190.72,398.106
1192.17,394.739
1193.62,393.57
1195.07,386.735
1196.52,387.092
1197.97,402.409
1199.42,406.722
1200.87,402.728
1202.32,406.053
1203.77,385.065
1205.22,397.965
1206.67,399.536
1208.12,389.972
1209.57,391.098
1211.02,398.217
1212.47,396.944
1213.92,406.392
1215.37,394.578
1216.82,406.724
1218.27,403.445
1219.72,412.888
1221.17,411.655
1222.63,403.676
1224.08,404.399
1225.53,407.915
1226.98,397.453
1228.43,392.249
1229.88,416.27
1231.33,399.003
1232.78,419.333
1234.23,412.188
1235.68,418.77
1237.13,424.189
1238.58,425.265
1240.03,426.824
1241.48,424.515
1242.93,439.168
1244.38,424.841
1245.83,412.066
1247.28,420.549
1248.73,441.787
1250.18,439.633
1251.63,428.653
1253.08,431.037
1254.53,438.882
1255.98,438.256
1257.43,450.688
1258.88,457.811
1260.33,446
1261.78,455.565
1263.23,460.27
1264.68,454.541
1266.13,458.488
1267.59,471.492
1269.04,482.991
1270.49,486.199
1271.94,479.954
1273.39,501.401
1274.84,495.281
1276.29,495.205
1277.74,508.826
1279.19,508.645
1280.64,520.573
1282.09,530.059
1283.54,539.068
1284.99,554.575
1286.44,556.901
1287.89,564.391
1289.34,547.729
1290.79,583.684
1292.24,597.28
1293.69,600.784
1295.14,617.133
1296.59,638.113
1298.04,647.877
1299.49,658.412
1300.94,684.474
1302.39,701.836
1303.84,703.931
1305.29,716.397
1306.74,740.865
1308.19,753.66
1309.64,780.09
1311.09,814.443
1312.55,844.509
1314,866.811
1315.45,893.857
1316.9,927.07
1318.35,943.162
1319.8,983.095
1321.25,996.577
1322.7,1006.61
1324.15,1055.8
1325.6,1055.01
1327.05,1050.22
1328.5,1049.77
1329.95,1056.56
1331.4,1073.02
1332.85,1081.95
1334.3,1074.35
1335.75,1075.61
1337.2,1039.46
1338.65,1031.09
1340.1,999.178
1341.55,995.766
1343,973.714
1344.45,938.886
1345.9,923.344
1347.35,915.42
1348.8,882.66
1350.25,839.171
1351.7,809.11
1353.15,802.479
1354.6,808.847
1356.06,784.244
1357.51,733.598
1358.96,706.658
1360.41,704.008
1361.86,697.893
1363.31,686.86
1364.76,680.903
1366.21,665.071
1367.66,631.204
1369.11,624.375
1370.56,634.554
1372.01,618.594
1373.46,617.409
1374.91,604.956
1376.36,610.163
1377.81,603.44
1379.26,587.421
1380.71,579.073
1382.16,579.615
1383.61,585.325
1385.06,570.747
1386.51,550.706
1387.96,570.683
1389.41,572.547
1390.86,583.57
1392.31,581.327
1393.76,563.263
1395.21,569.338
1396.66,567.128
1398.11,561.075
1399.56,582.622
1401.02,586.385
1402.47,583.178
1403.92,579.455
1405.37,587.671
1406.82,592.594
1408.27,592.313
1409.72,579.627
1411.17,596.463
1412.62,601.839
1414.07,583.457
1415.52,580.627
1416.97,597.423
1418.42,601.023
1419.87,614.789
1421.32,615.209
1422.77,620.017
1424.22,602.744
1425.67,611.729
1427.12,640.982
1428.57,625.645
1430.02,624.709
1431.47,634.918
1432.92,637.159
1434.37,641.008
1435.82,651.149
1437.27,662.145
1438.72,687.358
1440.17,670.855
1441.62,663.61
1443.07,676.607
1444.53,664.763
1445.98,683.894
1447.43,702.9
1448.88,710.668
1450.33,702.524
1451.78,700.639
1453.23,721.488
1454.68,741.759
1456.13,741.911
1457.58,747.914
1459.03,757.565
1460.48,772.489
1461.93,755.091
1463.38,791.882
1464.83,805.366
1466.28,805.122
1467.73,814.914
1469.18,828.236
1470.63,849.867
1472.08,877.485
1473.53,893.394
1474.98,899.407
1476.43,909.067
1477.88,929.906
1479.33,918.335
1480.78,959.018
1482.23,978.374
1483.68,993.933
1485.13,1032.51
1486.58,1045.59
1488.03,1054.18
1489.49,1090.55
1490.94,1121.24
1492.39,1131.6
1493.84,1151.77
1495.29,1179.78
1496.74,1232.83
1498.19,1255.45
1499.64,1303.49
1501.09,1298.02
1502.54,1383.14
1503.99,1440.87
1505.44,1483.77
1506.89,1546.24
1508.34,1608.64
1509.79,1669.96
1511.24,1740.68
1512.69,1824.02
1514.14,1919.89
1515.59,2021.95
1517.04,2124.3
1518.49,2234.99
1519.94,2358.07
1521.39,2533.35
1522.84,2724.41
1524.29,2884.93
1525.74,3061.99
1527.19,3336.63
1528.64,3591.75
1530.09,3836.28
1531.54,4131.83
1532.99,4469.78
1534.45,4845.99
1535.9,5253.55
1537.35,5637.37
1538.8,6088.95
1540.25,6490.69
1541.7,7013.37
1543.15,7542.16
1544.6,8163.28
1546.05,8606.26
1547.5,9087.53
1548.95,9602.57
1550.4,10172.9
1551.85,10640.9
1553.3,10657.8
1554.75,10675.2
1556.2,10705.8
1557.65,10732
1559.1,10751.2
1560.55,10819.2
1562,10786.1
1563.45,10777.6
1564.9,10772.7
1566.35,10752.6
1567.8,10669.3
1569.25,10141.3
1570.7,9551.78
1572.15,8954.27
1573.6,8367.94
1575.05,7795.74
1576.5,7208.58
1577.96,6632.08
1579.41,6122.35
1580.86,5666.31
1582.31,5213.6
1583.76,4771.68
1585.21,4454.26
1586.66,4114.19
1588.11,3852.63
1589.56,3579.24
1591.01,3347.17
1592.46,3114.41
1593.91,2945.41
1595.36,2754.05
1596.81,2608.28
1598.26,2478.41
1599.71,2337.55
1601.16,2220.27
1602.61,2111.64
1604.06,2000.26
1605.51,1903.34
1606.96,1817.34
1608.41,1725.07
1609.86,1675.1
1611.31,1599.16
1612.76,1519.24
1614.21,1484.72
1615.66,1424.16
1617.11,1365.48
1618.56,1317.21
1620.01,1280.38
1621.46,1250.16
1622.92,1206.6
1624.37,1161.96
1625.82,1121.14
1627.27,1102.87
1628.72,1084.47
1630.17,1040.11
1631.62,1016.34
1633.07,1018.08
1634.52,986.21
1635.97,986.446
1637.42,969.673
1638.87,929.365
1640.32,919.068
1641.77,913.265
1643.22,899.206
1644.67,880.523
1646.12,863.766
1647.57,857.731
1649.02,843.081
1650.47,827.59
1651.92,819.892
1653.37,820.093
1654.82,812.305
1656.27,817.835
1657.72,795.743
1659.17,791.524
1660.62,768.092
1662.07,757.785
1663.52,744.154
1664.97,751.687
1666.42,730.647
1667.88,731.543
1669.33,713.051
1670.78,701.382
1672.23,716.398
1673.68,717
1675.13,710.657
1676.58,700.379
1678.03,699.895
1679.48,705.456
1680.93,692.876
1682.38,675.215
1683.83,685.648
1685.28,666.782
1686.73,656.15
1688.18,644.172
1689.63,649.854
1691.08,665.887
1692.53,662.493
1693.98,644.327
1695.43,647.211
1696.88,656.255
1698.33,652.692
1699.78,648.125
1701.23,645.329
1702.68,649.934
1704.13,639.143
1705.58,647.326
1707.03,637.516
1708.48,649.448
1709.93,617.183
1711.39,623.501
1712.84,647.585
1714.29,630.304
1715.74,621.089
1717.19,628.875
1718.64,638.441
1720.09,630.295
1721.54,636.311
1722.99,636.844
1724.44,623.499
1725.89,629.426
1727.34,632.555
1728.79,618.254
1730.24,624.782
1731.69,623.511
1733.14,620.635
1734.59,608.406
1736.04,633.349
1737.49,614.625
1738.94,598.477
1740.39,593.08
1741.84,586.865
1743.29,586.008
1744.74,597.419
1746.19,597.81
1747.64,600.533
1749.09,585.142
1750.54,595.005
1751.99,586.401
1753.44,565.621
1754.89,571.961
1756.35,579.073
1757.8,567.752
1759.25,571.7
1760.7,577.134
1762.15,556.795
1763.6,564.909
1765.05,561.878
1766.5,565.841
1767.95,554.168
1769.4,550.735
1770.85,546.322
1772.3,561.152
1773.75,539.342
1775.2,554.814
1776.65,537.741
1778.1,535.827
1779.55,541.19
1781,534.775
1782.45,541.351
1783.9,544.099
1785.35,542.59
1786.8,541.964
1788.25,550.176
1789.7,542.752
1791.15,534.159
1792.6,538.951
1794.05,526.04
1795.5,527.663
1796.95,534.07
1798.4,547.049
1799.85,550.173
1801.31,534.737
1802.76,520.436
1804.21,524.419
1805.66,534.674
1807.11,534.046
1808.56,515.382
1810.01,521.248
1811.46,508.685
1812.91,506.005
1814.36,525.896
1815.81,527.188
1817.26,526.359
1818.71,513.476
1820.16,511.522
1821.61,518.446
1823.06,517.259
1824.51,522.326
1825.96,526.541
1827.41,526.36
1828.86,528.762
1830.31,526.734
1831.76,533.806
1833.21,535.639
1834.66,522.053
1836.11,535.802
1837.56,525.141
1839.01,526.165
1840.46,535.268
1841.91,532.987
1843.36,550.355
1844.82,540.505
1846.27,534.192
1847.72,530.951
1849.17,546.187
1850.62,537.113
1852.07,554.762
1853.52,536.547
1854.97,539.767
1856.42,545.535
1857.87,550.368
1859.32,552.506
1860.77,547.515
1862.22,534.229
1863.67,537.195
1865.12,542.274
1866.57,547.416
1868.02,546.787
1869.47,535.605
1870.92,538.672
1872.37,546.155
1873.82,547.886
1875.27,552.793
1876.72,538.744
1878.17,529.889
1879.62,531.649
1881.07,536.931
1882.52,540.627
1883.97,530.466
1885.42,535.633
1886.87,521.257
1888.32,531.801
1889.78,540.914
1891.23,507.021
1892.68,514.003
1894.13,513.995
1895.58,518.246
1897.03,515.747
1898.48,520.917
1899.93,509.71
1901.38,503.706
1902.83,504.962
1904.28,507.247
1905.73,501.944
1907.18,512.291
1908.63,509.409
1910.08,519.101
1911.53,511.477
1912.98,497.882
1914.43,505.421
1915.88,507.363
1917.33,503.101
1918.78,503.691
1920.23,504.384
1921.68,503.355
1923.13,497.19
1924.58,499.688
1926.03,503.108
1927.48,499.794
1928.93,507.966
1930.38,498.234
1931.83,512.024
1933.29,491.573
1934.74,499.934
1936.19,499.197
1937.64,491.724
1939.09,495.926
1940.54,494.036
1941.99,507.571
1943.44,495.789
1944.89,500.237
1946.34,502.156
1947.79,504.497
1949.24,489.559
1950.69,507.139
1952.14,511.076
1953.59,519.369
1955.04,524.792
1956.49,505.358
1957.94,509.449
1959.39,505.827
1960.84,493.622
1962.29,515.704
1963.74,507.546
1965.19,516.735
1966.64,519.528
1968.09,505.089
1969.54,503.627
1970.99,501.813
1972.44,504.954
1973.89,511.29
1975.34,519.411
1976.79,529.606
1978.25,530.794
1979.7,524.465
1981.15,522.666
1982.6,527.319
1984.05,528.87
1985.5,518.496
1986.95,515.947
1988.4,523.939
1989.85,518.292
1991.3,523.507
1992.75,524.468
1994.2,513.86
1995.65,526.931
1997.1,509.522
1998.55,513.925
2000,510.416
2001.45,521.595
2002.9,523.828
2004.35,535.997
2005.8,527.356
2007.25,515.978
2008.7,520.226
2010.15,515.491
2011.6,507.605
2013.05,502.292
2014.5,504.385
2015.95,514.269
2017.4,508.641
2018.85,504.042
2020.3,517.474
2021.75,525.174
2023.21,526.852
2024.66,520.076
2026.11,495.108
2027.56,531.532
2029.01,500.689
2030.46,507.581
2031.91,494.549
2033.36,513.4
2034.81,489.279
2036.26,527.352
2037.71,499.157
2039.16,507.754
2040.61,504.925
2042.06,488.001
2043.51,506.822
2044.96,506.359
2046.41,485.337
2047.86,485.614
2049.31,509.147
2050.76,482.24
2052.21,485.147
2053.66,477.101
2055.11,484.632
2056.56,494.954
2058.01,494.836
2059.46,491.646
2060.91,478.99
2062.36,476.513
2063.81,479.945
2065.26,480.234
2066.72,486.75
2068.17,484.621
2069.62,478.602
2071.07,487.373
2072.52,475.817
2073.97,476.809
2075.42,479.856
2076.87,480.999
2078.32,492.429
2079.77,488.026
2081.22,480.869
2082.67,471.493
2084.12,474.839
2085.57,476.452
2087.02,468.958
2088.47,475.938
2089.92,476.724
2091.37,477.276
2092.82,474.29
2094.27,479.107
2095.72,481.701
2097.17,477.109
2098.62,479.481
2100.07,469.656
2101.52,481.48
2102.97,483.125
2104.42,476.602
2105.87,482.376
2107.32,485.387
2108.77,486.739
2110.22,490.99
2111.68,494.108
2113.13,492.551
2114.58,484
2116.03,479.864
2117.48,480.033
2118.93,485.574
2120.38,491.743
2121.83,488.618
2123.28,491.469
2124.73,496.508
2126.18,497.679
2127.63,494.948
2129.08,492.994
2130.53,498.085
2131.98,500.121
2133.43,486.153
2134.88,488.587
2136.33,499.865
2137.78,492.983
2139.23,491.113
2140.68,493.617
2142.13,495.622
2143.58,508.731
2145.03,503.615
2146.48,500.901
2147.93,500.953
2149.38,500.544
2150.83,509.832
2152.28,506.471
2153.73,507.228
2155.18,512.215
2156.64,512.092
2158.09,506.397
2159.54,518.085
2160.99,516.649
2162.44,513.708
2163.89,525.185
2165.34,520.757
2166.79,518.155
2168.24,515.631
2169.69,517.35
2171.14,521.522
2172.59,515.996
2174.04,520.2
2175.49,534.102
2176.94,527.631
2178.39,532.274
2179.84,534.899
2181.29,529.745
2182.74,524.131
2184.19,529.992
2185.64,523.067
2187.09,523.136
2188.54,522.009
2189.99,524.668
2191.44,524.781
2192.89,526.469
2194.34,532.486
2195.79,542.209
2197.24,530.78
2198.69,535.704
2200.15,531.74
2201.6,533.042
2203.05,523.357
2204.5,525.497
2205.95,535.116
2207.4,538.869
2208.85,532.932
2210.3,536.225
2211.75,545.781
2213.2,558.16
2214.65,537.077
2216.1,550.368
2217.55,548.487
2219,536.622
2220.45,549.146
2221.9,547.281
2223.35,550.702
2224.8,558.541
2226.25,568.965
2227.7,548.206
2229.15,557.438
2230.6,566.982
2232.05,551.192
2233.5,545.349
2234.95,538.168
2236.4,563.739
2237.85,571.046
2239.3,555.458
2240.75,560.262
2242.2,564.91
2243.65,549.273
2245.11,565.803
2246.56,574.588
2248.01,568.26
2249.46,560.701
2250.91,574.963
2252.36,575.121
2253.81,591.746
2255.26,576.285
2256.71,566.032
2258.16,575.847
2259.61,589.73
2261.06,579.991
2262.51,564.936
2263.96,577.206
2265.41,592.168
2266.86,583.057
2268.31,593.991
2269.76,588.14
2271.21,579.927
2272.66,595.047
2274.11,592.322
2275.56,582.848
2277.01,588.884
2278.46,590.307
2279.91,590.307
2281.36,587.312
2282.81,600.974
2284.26,605.964
2285.71,599.656
2287.16,591.542
2288.61,604.945
2290.07,611.807
2291.52,622.125
2292.97,617.288
2294.42,619.883
2295.87,619.203
2297.32,608.685
2298.77,611.47
2300.22,614.066
2301.67,600.922
2303.12,626.237
2304.57,628.826
2306.02,627.715
2307.47,611.783
2308.92,619.023
2310.37,640.827
2311.82,636.624
2313.27,628.796
2314.72,618.465
2316.17,630.319
2317.62,631.473
2319.07,667.397
2320.52,653.509
2321.97,646.218
2323.42,667.641
2324.87,653.538
2326.32,660.458
2327.77,667.162
2329.22,662.544
2330.67,662.153
2332.12,677.122
2333.57,677.852
2335.03,688.176
2336.48,661.41
2337.93,674.014
2339.38,686.864
2340.83,685.886
2342.28,696.699
2343.73,698.747
2345.18,694.938
2346.63,708.234
2348.08,697.554
2349.53,697.978
2350.98,723.81
2352.43,725.181
2353.88,735.588
2355.33,733.442
2356.78,736.735
2358.23,753.297
2359.68,752.011
2361.13,743.532
2362.58,746.222
2364.03,770.842
2365.48,773.551
2366.93,810.983
2368.38,770.737
2369.83,789.216
2371.28,786.331
2372.73,815.133
2374.18,819.92
2375.63,830.133
2377.08,844.048
2378.54,848.128
2379.99,858.935
2381.44,872.472
2382.89,879.257
2384.34,884.781
2385.79,885.566
2387.24,903.028
2388.69,910.804
2390.14,928.999
2391.59,951.862
2393.04,949.559
2394.49,935.692
2395.94,947.377
2397.39,981.114
2398.84,1015.16
2400.29,996.455
2401.74,1019.81
2403.19,1021.48
2404.64,1051.97
2406.09,1065.67
2407.54,1045.32
2408.99,1053.95
2410.44,1063.93
2411.89,1052.76
2413.34,1083.7
2414.79,1100.36
2416.24,1084.31
2417.69,1073.85
2419.14,1086.78
2420.59,1083.71
2422.04,1054.64
2423.5,1074.77
2424.95,1085.61
2426.4,1068.16
2427.85,1056.56
2429.3,1062.83
2430.75,1072.81
2432.2,1071.9
2433.65,1058.96
2435.1,1035.79
2436.55,1058.83
2438,1041.06
2439.45,1041.14
2440.9,1050.4
2442.35,1035.88
2443.8,1037.96
2445.25,1021.91
2446.7,1038.23
2448.15,1024.47
2449.6,1016.31
2451.05,1002.36
2452.5,1008.75
2453.95,988.671
2455.4,1012.31
2456.85,991.56
2458.3,992.083
2459.75,1001.53
2461.2,1005.79
2462.65,995.391
2464.1,995.138
2465.55,987.283
2467.01,986.158
2468.46,991.429
2469.91,991.586
2471.36,986.481
2472.81,990.923
2474.26,995.827
2475.71,985.39
2477.16,1003.04
2478.61,1008.15
2480.06,1021.26
2481.51,1016.28
2482.96,1017.15
2484.41,996.682
2485.86,1021.15
2487.31,1032.98
2488.76,1028.54
2490.21,1023.62
2491.66,1020.66
2493.11,1019.31
2494.56,1029.69
2496.01,1012.45
2497.46,1010.55
2498.91,1021.15
2500.36,1023.86
2501.81,1017.68
2503.26,1047.04
2504.71,1050.34
2506.16,1062.1
2507.61,1083.33
2509.06,1043.97
2510.51,1094.8
2511.97,1075.97
2513.42,1087.32
2514.87,1102.65
2516.32,1117.23
2517.77,1115.94
2519.22,1123.37
2520.67,1143.81
2522.12,1153.59
2523.57,1171.22
2525.02,1168.34
2526.47,1181.28
2527.92,1187.38
2529.37,1168.58
2530.82,1197.35
2532.27,1222.3
2533.72,1215.42
2535.17,1224.57
2536.62,1245.22
2538.07,1277.48
2539.52,1259.52
2540.97,1296.55
2542.42,1300.85
2543.87,1358.77
2545.32,1368.67
2546.77,1362.83
2548.22,1393.64
2549.67,1411.71
2551.12,1425.39
2552.57,1427.8
2554.02,1460.26
2555.48,1491.13
2556.93,1529.47
2558.38,1547.99
2559.83,1565.2
2561.28,1590.41
2562.73,1648.96
2564.18,1666.85
2565.63,1698.19
2567.08,1739.9
2568.53,1762.42
2569.98,1812.61
2571.43,1879.53
2572.88,1915.1
2574.33,1913.84
2575.78,1973.97
2577.23,2025.99
2578.68,2067.3
2580.13,2125.83
2581.58,2173.43
2583.03,2212.55
2584.48,2276.49
2585.93,2331.56
2587.38,2378.26
2588.83,2472.32
2590.28,2565.79
2591.73,2662.45
2593.18,2695
2594.63,2766.26
2596.08,2865.5
2597.53,2941.88
2598.98,3071.25
2600.44,3158.62
2601.89,3274.17
2603.34,3391.43
2604.79,3490.16
2606.24,3622.75
2607.69,3713.86
2609.14,3866.81
2610.59,3945.02
2612.04,4108.18
2613.49,4217.42
2614.94,4385.73
2616.39,4519.02
2617.84,4620.63
2619.29,4764.84
2620.74,4900.48
2622.19,5037.52
2623.64,5211.59
2625.09,5296.53
2626.54,5430.48
2627.99,5566.08
2629.44,5726.69
2630.89,5876.04
2632.34,6014.66
2633.79,6117.45
2635.24,6299.34
2636.69,6339.79
2638.14,6438.76
2639.59,6569.35
2641.04,6608.51
2642.49,6691.9
2643.94,6740.28
2645.4,6759.75
2646.85,6788.29
2648.3,6802.95
2649.75,6756.39
2651.2,6765.91
2652.65,6682.12
2654.1,6714.6
2655.55,6618.42
2657,6560.25
2658.45,6448.48
2659.9,6335.81
2661.35,6218.82
2662.8,6116.68
2664.25,5974.58
2665.7,5889.19
2667.15,5785.25
2668.6,5604.89
2670.05,5489.92
2671.5,5362.13
2672.95,5135.07
2674.4,5044.44
2675.85,4889.15
2677.3,4711.8
2678.75,4582.88
2680.2,4482.37
2681.65,4273.58
2683.1,4155.44
2684.55,4015.54
2686,3910.77
2687.45,3766.98
2688.91,3613.33
2690.36,3484.7
2691.81,3379.21
2693.26,3267.97
2694.71,3101.75
2696.16,3006.85
2697.61,2967.35
2699.06,2816.26
2700.51,2744.36
2701.96,2697.87
2703.41,2598.74
2704.86,2479.14
2706.31,2410.97
2707.76,2310.2
2709.21,2277.68
2710.66,2205.15
2712.11,2124.7
2713.56,2071
2715.01,2035.8
2716.46,1971.02
2717.91,1924.27
2719.36,1863.91
2720.81,1835.25
2722.26,1799.4
2723.71,1738.7
2725.16,1684.3
2726.61,1651.83
2728.06,1629.58
2729.51,1606.08
2730.96,1564.62
2732.41,1510.79
2733.87,1511.53
2735.32,1460.05
2736.77,1444.85
2738.22,1418.46
2739.67,1400.37
2741.12,1381.31
2742.57,1337.27
2744.02,1325.19
2745.47,1323.5
2746.92,1283.12
2748.37,1283.76
2749.82,1250.28
2751.27,1253.75
2752.72,1219.21
2754.17,1223.43
2755.62,1192.67
2757.07,1161.89
2758.52,1153.77
2759.97,1148.91
2761.42,1120.67
2762.87,1112.41
2764.32,1117.17
2765.77,1099.15
2767.22,1059.74
2768.67,1100.28
2770.12,1073.12
2771.57,1065.88
2773.02,1050.75
2774.47,1052.83
2775.92,1047.23
2777.38,1029.9
2778.83,1028.95
2780.28,1015.08
2781.73,1006.72
2783.18,991.83
2784.63,993.156
2786.08,984.43
2787.53,953.102
2788.98,968.975
2790.43,979.377
2791.88,965.266
2793.33,952.054
2794.78,937.175
2796.23,934.601
2797.68,943.947
2799.13,931.285
2800.58,932.306
2802.03,920.246
2803.48,913.273
2804.93,922.497
2806.38,907.715
2807.83,889.764
2809.28,896.553
2810.73,886.081
2812.18,894.005
2813.63,894.616
2815.08,901.876
2816.53,877.966
2817.98,884.964
2819.43,894.607
2820.88,878.384
2822.33,864.947
2823.79,872.631
2825.24,862.027
2826.69,854.316
2828.14,848.587
2829.59,850.422
2831.04,862.978
2832.49,869.256
2833.94,829.926
2835.39,827.72
2836.84,830.276
2838.29,823.009
2839.74,823.013
2841.19,828.109
2842.64,842.698
2844.09,839.599
2845.54,830.074
2846.99,825.278
2848.44,823.003
2849.89,810.71
2851.34,824.108
2852.79,815.168
2854.24,806.114
2855.69,817.611
2857.14,837.519
2858.59,815.549
2860.04,804.535
2861.49,816.053
2862.94,799.9
2864.39,801.881
2865.84,819.411
2867.3,815.254
2868.75,813.646
2870.2,813.464
2871.65,798.865
2873.1,804.43
2874.55,821.037
2876,812.869
2877.45,815.378
2878.9,817.275
2880.35,812.536
2881.8,794.318
2883.25,801.01
2884.7,802.397
2886.15,802.247
2887.6,800.045
2889.05,792.564
2890.5,805.584
2891.95,813.183
2893.4,805.742
2894.85,810.613
2896.3,810.24
2897.75,798.716
2899.2,796.932
2900.65,795.777
2902.1,790.711
2903.55,787.365
2905,788.259
2906.45,790.625
2907.9,792.852
2909.35,786.004
2910.8,771.967
2912.26,771.344
2913.71,779.106
2915.16,752.284
2916.61,783.528
2918.06,772.333
2919.51,754.901
2920.96,771.825
2922.41,768.243
2923.86,766.32
2925.31,759.58
2926.76,747.776
2928.21,742.466
2929.66,740.636
2931.11,736.43
2932.56,728.31
2934.01,744.713
2935.46,729.462
2936.91,729.456
2938.36,726.46
2939.81,717.938
2941.26,710.047
2942.71,716.742
2944.16,719.971
2945.61,717.446
2947.06,716.299
2948.51,718.908
2949.96,703.138
2951.41,701.125
2952.86,712.535
2954.31,700.364
2955.77,695.683
2957.22,704.628
2958.67,696.607
2960.12,685.26
2961.57,717.365
2963.02,694.918
2964.47,691.711
2965.92,689.025
2967.37,693.177
2968.82,691.284
2970.27,697.601
2971.72,680.563
2973.17,682.496
2974.62,681.708
2976.07,673.978
2977.52,674.621
2978.97,680.243
2980.42,673.478
2981.87,684.363
2983.32,690.222
2984.77,682.314
2986.22,671.099
2987.67,678.723
2989.12,684.31
2990.57,687.811
2992.02,680.932
2993.47,669.736
2994.92,675.741
2996.37,687.388
2997.82,684.305
2999.27,690.775
3000.73,666.593
3002.18,681.579
3003.63,668.535
3005.08,677.331
3006.53,673.953
3007.98,657.684
3009.43,654.426
3010.88,663.279
3012.33,674.766
3013.78,689.128
3015.23,658.856
3016.68,670.667
3018.13,660.9
3019.58,670.211
3021.03,671.661
3022.48,660.026
3023.93,674.158
3025.38,687.13
3026.83,667.064
3028.28,676.053
3029.73,693.662
3031.18,695.456
3032.63,683.787
3034.08,696.132
3035.53,699.806
3036.98,658.635
3038.43,687.991
3039.88,691.717
3041.33,686.5
3042.78,685.216
3044.23,675.373
3045.69,675.206
3047.14,670.938
3048.59,685.274
3050.04,694.606
3051.49,675.144
3052.94,673.227
3054.39,687.142
3055.84,698.814
3057.29,695.108
3058.74,684.27
3060.19,701.349
3061.64,709.855
3063.09,715.173
3064.54,719.371
3065.99,716.16
3067.44,698.069
3068.89,713.162
3070.34,726.534
3071.79,747.592
3073.24,715.765
3074.69,732.096
3076.14,730.819
3077.59,735.673
3079.04,757.585
3080.49,756.433
3081.94,772.204
3083.39,766.074
3084.84,784.816
3086.29,773.201
3087.74,780.626
3089.2,784.518
3090.65,797.724
3092.1,802.534
3093.55,806.064
3095,803.286
3096.45,808.764
3097.9,821.492
3099.35,840.748
3100.8,848.809
3102.25,840.332
3103.7,866.07
3105.15,871.345
3106.6,861.782
3108.05,883.559
3109.5,866.445
3110.95,883.315
3112.4,887.896
3113.85,914.19
3115.3,910.123
3116.75,920.412
3118.2,913.5
3119.65,928.187
3121.1,934.802
3122.55,936.983
3124,941.949
3125.45,938.17
3126.9,947.883
3128.35,962.683
3129.8,949.471
3131.25,951.121
3132.7,965.807
3134.16,958.582
3135.61,958.268
3137.06,975.241
3138.51,951.068
3139.96,966.532
3141.41,972.344
3142.86,961.078
3144.31,979.072
3145.76,979.377
3147.21,982.562
3148.66,968.277
3150.11,967.047
3151.56,952.508
3153.01,961.933
3154.46,979.098
3155.91,985.285
3157.36,995.548
3158.81,1006.67
3160.26,976.707
3161.71,995.321
3163.16,1005.78
3164.61,1003.27
3166.06,993.209
3167.51,1022.63
3168.96,1014.74
3170.41,1013.93
3171.86,1029.4
3173.31,1037.67
3174.76,1043.28
3176.21,1025.48
3177.67,1042.18
3179.12,1035.37
3180.57,1050.24
3182.02,1074.87
3183.47,1060.81
3184.92,1038.57
3186.37,1054.33
3187.82,1049.68
3189.27,1032.49
3190.72,1055.73
3192.17,1036.36
3193.62,1029.54
3195.07,1024.4
3196.52,1022.51
3197.97,998.244
3199.42,957.657
3200.87,977.449
3202.32,969.455
3203.77,954.576
3205.22,953.416
3206.67,939.182
3208.12,928.58
3209.57,909.015
3211.02,886.692
3212.47,906.685
3213.92,875.95
3215.37,851.486
3216.82,852.694
3218.27,835.391
3219.72,819.218
3221.17,821.059
3222.63,814.837
3224.08,813.04
3225.53,799.012
3226.98,793.005
3228.43,755.154
3229.88,779.066
3231.33,759.88
3232.78,740.113
3234.23,724.364
3235.68,730.924
3237.13,727.337
3238.58,724.855
3240.03,703.146
3241.48,693.477
3242.93,698.643
3244.38,707.484
3245.83,703.13
3247.28,704.889
3248.73,687.747
3250.18,694.378
3251.63,691.504
3253.08,690.736
3254.53,681.529
3255.98,656.605
3257.43,670.753
3258.88,670.433
3260.33,663.71
3261.78,663.1
3263.23,660.122
3264.68,675.501
3266.13,665.964
3267.59,650.469
3269.04,659.656
3270.49,671.36
3271.94,666.03
3273.39,647.807
3274.84,659.704
3276.29,653.225
3277.74,648.685
3279.19,665.107
3280.64,646.497
3282.09,655.247
3283.54,648.275
3284.99,657.175
3286.44,652.794
3287.89,646.78
3289.34,661.73
3290.79,661.823
3292.24,639.278
3293.69,666.73
3295.14,665.788
3296.59,654.635
3298.04,649.172
3299.49,647.541
3300.94,642.117
3302.39,651.518
3303.84,636.54
3305.29,646.196
3306.74,662.73
3308.19,650.379
3309.64,638.618
3311.09,644.242
3312.55,656.889
3314,652.594
3315.45,630.736
3316.9,641.065
3318.35,657.117
3319.8,633.458
3321.25,655.203
3322.7,642.516
3324.15,646.924
3325.6,655.132
3327.05,657.192
3328.5,639.923
3329.95,653.875
3331.4,661.228
3332.85,640.033
3334.3,634.457
3335.75,641.518
3337.2,646.266
3338.65,643.556
3340.1,645.737
3341.55,652.394
3343,651.514
3344.45,642.571
3345.9,649.868
3347.35,639.689
3348.8,629.461
3350.25,651.703
3351.7,644.507
3353.15,642.353
3354.6,651.353
3356.06,641.787
3357.51,647.476
3358.96,647.305
3360.41,642.103
3361.86,643.807
3363.31,638.836
3364.76,639.653
3366.21,645.597
3367.66,648.929
3369.11,649.693
3370.56,664.064
3372.01,658.97
3373.46,680.184
3374.91,651.979
3376.36,649.992
3377.81,644.61
3379.26,651.864
3380.71,636.691
3382.16,653.696
3383.61,648.284
3385.06,663.995
3386.51,653.158
3387.96,642.926
3389.41,627.891
3390.86,647.375
3392.31,652.652
3393.76,642.26
3395.21,651.831
3396.66,651.586
3398.11,668.226
3399.56,660.267
3401.02,661.46
3402.47,656.405
3403.92,643.56
3405.37,632.024
3406.82,659.308
3408.27,638.885
3409.72,643.661
3411.17,652.61
3412.62,655.181
3414.07,652.95
3415.52,657.343
3416.97,642.886
3418.42,658.415
3419.87,644.183
3421.32,647.999
3422.77,653.877
3424.22,662.673
3425.67,667.379
3427.12,670.713
3428.57,666.491
3430.02,652.665
3431.47,660.98
3432.92,667.359
3434.37,646.096
3435.82,657.629
3437.27,659.711
3438.72,657.893
3440.17,661.053
3441.62,649.132
3443.07,650.987
3444.52,658.362
3445.98,627.284
3447.43,664.197
3448.88,662.564
3450.33,657.544
3451.78,655.244
3453.23,661.226
3454.68,661.488
3456.13,658.47
3457.58,658.728
3459.03,652.363
3460.48,647.852
3461.93,674.628
3463.38,663.08
3464.83,669.553
3466.28,676.659
3467.73,677.158
3469.18,668.189
3470.63,657.967
3472.08,667.73
3473.53,679.042
3474.98,672.579
3476.43,647.156
3477.88,678.077
3479.33,674.398
3480.78,674.761
3482.23,665.51
3483.68,683.237
3485.13,641.227
3486.58,668.758
3488.03,681.143
3489.49,675.174
3490.94,656.059
3492.39,658.266
3493.84,666.962
3495.29,679.886
3496.74,679.629
3498.19,661.352
3499.64,672.872
3501.09,671.676
3502.54,682.041
3503.99,668.504
3505.44,671.841
3506.89,678.932
3508.34,684.323
3509.79,672.744
3511.24,676.912
3512.69,676.754
3514.14,672.515
3515.59,701.405
3517.04,681.294
3518.49,685.634
3519.94,684.282
3521.39,676.811
3522.84,687.446
3524.29,684.998
3525.74,682.702
3527.19,694.09
3528.64,671.548
3530.09,682.268
3531.54,688.276
3532.99,698.02
3534.45,693.313
3535.9,664.198
3537.35,686.793
3538.8,685.005
3540.25,681.159
3541.7,682.009
3543.15,677.118
3544.6,696.087
3546.05,678.87
3547.5,679.353
3548.95,686.735
3550.4,694.846
3551.85,689.138
3553.3,682.468
3554.75,673
3556.2,671.127
3557.65,688.984
3559.1,675.06
3560.55,683.857
3562,684.642
3563.45,685.445
3564.9,676.118
3566.35,688.58
3567.8,701.907
3569.25,692.784
3570.7,698.777
3572.15,694.28
3573.6,684.026
3575.05,680.271
3576.5,684.962
3577.96,690.395
3579.41,703.615
3580.86,686.682
3582.31,697.207
3583.76,699.603
3585.21,690.982
3586.66,682.337
3588.11,693.626
3589.56,696.554
3591.01,690.877
3592.46,717.263
3593.91,671.937
3595.36,674.308
3596.81,685.837
3598.26,700.129
3599.71,696.163
3601.16,692.942
3602.61,693.456
3604.06,700.606
3605.51,695.513
3606.96,708.541
3608.41,697.949
3609.86,714.767
3611.31,706.818
3612.76,698.346
3614.21,704.016
3615.66,704.941
3617.11,713.848
3618.56,693.721
3620.01,709.413
3621.46,725.651
3622.92,723.294
3624.37,709.487
3625.82,694.655
3627.27,708.336
3628.72,711.595
3630.17,702.847
3631.62,707.061
3633.07,697.555
3634.52,718.469
3635.97,696.366
3637.42,712.963
3638.87,715.319
3640.32,737.747
3641.77,711.209
3643.22,699.347
3644.67,725.418
3646.12,706.99
3647.57,723.664
3649.02,719.434
3650.47,713.925
3651.92,730.894
3653.37,722.334
3654.82,716.309
3656.27,714.827
3657.72,712.964
3659.17,712.268
3660.62,723.954
3662.07,723.441
3663.52,723.763
3664.97,714.323
3666.43,721.742
3667.88,743.512
3669.33,728.236
3670.78,726.969
3672.23,726.465
3673.68,733.294
3675.13,727.164
3676.58,722.291
3678.03,716.657
3679.48,718.488
3680.93,734.591
3682.38,729.296
3683.83,729.926
3685.28,716.296
3686.73,742.709
3688.18,730.283
3689.63,734.155
3691.08,725.152
3692.53,728.398
3693.98,731.935
3695.43,712.624
3696.88,738.103
3698.33,760.484
3699.78,739.201
3701.23,735.376
3702.68,733.441
3704.13,724.523
3705.58,723.643
3707.03,734.5
3708.48,725.462
3709.93,732.818
3711.39,737.681
3712.84,734.485
3714.29,753.057
3715.74,744.178
3717.19,742.034
3718.64,733.396
3720.09,740.802
3721.54,740.664
3722.99,745.587
3724.44,756.546
3725.89,750.318
3727.34,766.452
3728.79,762.347
3730.24,745.865
3731.69,737.907
3733.14,740.586
3734.59,736.864
3736.04,748.177
3737.49,737.654
3738.94,741.571
3740.39,742.32
3741.84,764.469
3743.29,766.481
3744.74,746.698
3746.19,753.248
3747.64,757.849
3749.09,752.345
3750.54,764.118
3751.99,761.44
3753.44,748.081
3754.89,757.39
3756.35,753.025
3757.8,751.501
3759.25,754.966
3760.7,748.306
3762.15,782.79
3763.6,767.061
3765.05,770.035
3766.5,768.6
3767.95,751.641
3769.4,765.549
3770.85,749.326
3772.3,762.93
3773.75,762.833
3775.2,768.067
3776.65,773.177
3778.1,777.144
3779.55,758.607
3781,758.88
3782.45,786.505
3783.9,773.511
3785.35,772.834
3786.8,776.61
3788.25,775.566
3789.7,799.968
3791.15,785.791
3792.6,766.92
3794.05,765.788
3795.5,783.099
3796.95,787.143
3798.4,761.941
3799.85,782.373
3801.31,785.619
3802.76,774.883
3804.21,774.926
3805.66,783.4
3807.11,783.365
3808.56,771.329
3810.01,767.892
3811.46,790.069
3812.91,773.746
3814.36,778.373
3815.81,803.343
3817.26,788.168
3818.71,793.729
3820.16,802.084
3821.61,793.503
3823.06,793.097
3824.51,788.857
3825.96,788.219
3827.41,786.959
3828.86,800.32
3830.31,798.147
3831.76,799.584
3833.21,813.322
3834.66,784.639
3836.11,782.796
3837.56,778.432
3839.01,792.129
3840.46,794.214
3841.91,800.626
3843.36,808.17
3844.82,799.367
3846.27,812.758
3847.72,810.628
3849.17,810.631
3850.62,813.007
3852.07,806.771
3853.52,803.622
3854.97,811.299
3856.42,791.734
3857.87,828.573
3859.32,817.114
3860.77,827.301
3862.22,810.336
3863.67,812.497
3865.12,798.018
3866.57,824.139
3868.02,818.633
3869.47,818.123
3870.92,831.617
3872.37,804.905
3873.82,830.295
3875.27,825.896
3876.72,833.812
3878.17,831.786
3879.62,814.513
3881.07,820.027
3882.52,840.254
3883.97,827.128
3885.42,837.855
3886.87,831.976
3888.32,830.973
3889.78,839.389
3891.23,839.71
3892.68,822.912
3894.13,822.912
3895.58,823.755
3897.03,844.468
3898.48,848.104
3899.93,852.191
3901.38,841.576
3902.83,853.593
3904.28,860.76
3905.73,845.339
3907.18,856.448
3908.63,850.462
3910.08,835.485
3911.53,845.563
3912.98,868.488
3914.43,853.213
3915.88,864.698
3917.33,860.064
3918.78,864.892
3920.23,851.554
3921.68,875.513
3923.13,854.169
3924.58,860.065
3926.03,877.547
3927.48,879.85
3928.93,856.578
3930.38,870.551
3931.83,897.819
3933.28,866.788
3934.74,888.184
3936.19,897.653
3937.64,890.104
3939.09,879.091
3940.54,863.228
3941.99,885.209
3943.44,894.214
3944.89,875.33
3946.34,876.255
3947.79,883.297
3949.24,872.131
3950.69,911.196
3952.14,895.017
3953.59,876.718
3955.04,902.4
3956.49,914.172
3957.94,900.471
3959.39,908.543
3960.84,935.448
3962.29,892.146
3963.74,921.598
3965.19,887.032
3966.64,927.341
3968.09,929.444
3969.54,917.576
3970.99,913.203
3972.44,909.643
3973.89,916.406
3975.34,930.308
3976.79,889.869
3978.25,931.041
3979.7,940.029
3981.15,920.159
3982.6,940.919
3984.05,945.152
3985.5,912.619
3986.95,943.319
3988.4,966.828
3989.85,937.856
3991.3,937.786
3992.75,941.46
3994.2,928.632
3995.65,944.907
3997.1,927.856
3998.55,953.651
4000,937.708
