0,60.3551
1.45033,58.9698
2.90065,57.5844
4.35098,56.1992
5.80131,54.814
7.25163,53.4286
8.70196,111.133
10.1523,69.7437
11.6026,58.648
13.0529,48.1218
14.5033,41.9032
15.9536,40.0622
17.4039,40.118
18.8542,37.0296
20.3046,31.8485
21.7549,28.9087
23.2052,29.043
24.6555,20.4467
26.1059,23.911
27.5562,21.6293
29.0065,16.0536
30.4569,15.711
31.9072,13.9649
33.3575,13.0314
34.8078,9.46047
36.2582,3.16068
37.7085,-1.11303
39.1588,4.60723
40.6091,8.36203
42.0595,8.30225
43.5098,4.21168
44.9601,-1.50964
46.4104,3.18055
47.8608,4.1558
49.3111,5.60822
50.7614,21.2235
52.2117,42.9822
53.6621,92.3319
55.1124,166.791
56.5627,264.973
58.0131,389.868
59.4634,527.923
60.9137,623.209
62.364,725.445
63.8144,872.519
65.2647,900.104
66.715,936.593
68.1653,966.127
69.6157,994.999
71.066,1041.3
72.5163,1062.02
73.9666,1071.03
75.417,1070.25
76.8673,1070.67
78.3176,1102.64
79.7679,1124.9
81.2183,1124.06
82.6686,1130.56
84.1189,1164.78
85.5693,1177.19
87.0196,1210.8
88.4699,1181.26
89.9202,1122.27
91.3706,1104.91
92.8209,1055.23
94.2712,1006.37
95.7215,973.974
97.1719,945.135
98.6222,877.609
100.073,883.238
101.523,863.754
102.973,845.682
104.423,843.495
105.874,839.2
107.324,834.576
108.774,818.256
110.225,805.781
111.675,804.597
113.125,755.167
114.576,766.956
116.026,764.825
117.476,748.066
118.927,739.423
120.377,738.038
121.827,726.315
123.278,712.193
124.728,693.386
126.178,660.292
127.629,643.545
129.079,623.369
130.529,608.447
131.98,604.906
133.43,616.651
134.88,587.289
136.331,572.357
137.781,559.415
139.231,546.434
140.682,573.521
142.132,577.261
143.582,563.482
145.033,537.255
146.483,508.696
147.933,511.695
149.384,512.811
150.834,516.244
152.284,533.457
153.735,570.639
155.185,567.424
156.635,529.999
158.086,495.341
159.536,467.028
160.986,436.889
162.437,448.676
163.887,450.391
165.337,438.322
166.788,422.9
168.238,425.02
169.688,442.334
171.139,444.369
172.589,436.387
174.039,417.744
175.489,381.875
176.94,391.657
178.39,382.165
179.84,371.998
181.291,373.831
182.741,392.248
184.191,374.212
185.642,376.736
187.092,372.999
188.542,357.009
189.993,364.811
191.443,342.724
192.893,348.934
194.344,355.757
195.794,342.085
197.244,309.849
198.695,347.075
200.145,344.038
201.595,333.89
203.046,336.021
204.496,304.129
205.946,314.561
207.397,322.963
208.847,324.573
210.297,319.385
211.748,308.07
213.198,289.329
214.648,301.197
216.099,317.488
217.549,316.136
218.999,307.388
220.45,279.127
221.9,284.897
223.35,306.959
224.801,318.44
226.251,290.161
227.701,299.266
229.152,306.745
230.602,306.552
232.052,297.467
233.503,279.47
234.953,294.083
236.403,291.423
237.854,285.392
239.304,287.608
240.754,287.7
242.204,278.171
243.655,283.824
245.105,288.783
246.555,283.543
248.006,279.203
249.456,273.465
250.906,256.284
252.357,247.079
253.807,253.989
255.257,262.965
256.708,250.227
258.158,245.392
259.608,249.072
261.059,251.249
262.509,229.128
263.959,254.363
265.41,249.428
266.86,245.913
268.31,243.459
269.761,207.926
271.211,242.124
272.661,233.405
274.112,214.935
275.562,203.964
277.012,204.358
278.463,202.973
279.913,207.211
281.363,209.571
282.814,208.011
284.264,205.159
285.714,221.222
287.165,208.217
288.615,202.803
290.065,200.075
291.516,186.118
292.966,178.416
294.416,169.418
295.867,185.851
297.317,188.218
298.767,155.421
300.218,174.461
301.668,164.958
303.118,169.89
304.569,171.44
306.019,160.385
307.469,158.256
308.919,149.678
310.37,141.124
311.82,133.394
313.27,129.678
314.721,135.726
316.171,140.673
317.621,132.602
319.072,134.476
320.522,136.991
321.972,115.285
323.423,106.072
324.873,112.39
326.323,118.473
327.774,115.409
329.224,102.556
330.674,105.648
332.125,105.743
333.575,112.108
335.025,110.682
336.476,100.81
337.926,119.957
339.376,109.818
340.827,97.5389
342.277,91.9073
343.727,96.9724
345.178,110.822
346.628,77.2996
348.078,81.9792
349.529,85.7755
350.979,81.1482
352.429,76.6993
353.88,71.5743
355.33,68.067
356.78,56.5072
358.231,53.8876
359.681,68.5511
361.131,68.6629
362.582,73.3596
364.032,72.4751
365.482,75.5338
366.933,79.6223
368.383,66.8719
369.833,64.7364
371.284,59.3255
372.734,62.3987
374.184,65.4316
375.635,55.9264
377.085,59.7901
378.535,56.0636
379.986,56.194
381.436,48.2728
382.886,32.1495
384.336,41.6451
385.787,18.7453
387.237,28.8818
388.687,40.4907
390.138,38.8912
391.588,31.1435
393.038,62.4325
394.489,30.8165
395.939,26.2772
397.389,39.4261
398.84,38.1304
400.29,21.7107
401.74,29.579
403.191,41.7724
404.641,38.3857
406.091,21.8883
407.542,17.722
408.992,9.9411
410.442,11.3621
411.893,21.1122
413.343,24.1892
414.793,10.147
416.244,5.7496
417.694,11.4296
419.144,3.70724
420.595,-9.93607
422.045,-16.2303
423.495,-2.03426
424.946,5.24851
426.396,3.03879
427.846,-4.48836
429.297,-6.3636
430.747,3.08666
432.197,-3.51115
433.648,-8.34924
435.098,-10.6476
436.548,-13.066
437.999,-9.62384
439.449,10.5836
440.899,-12.6242
442.35,5.85887
443.8,14.1748
445.25,8.37457
446.701,-0.217595
448.151,-5.6924
449.601,-12.9676
451.051,8.3908
452.502,1.45153
453.952,-20.1849
455.402,3.97544
456.853,0.766862
458.303,19.8773
459.753,9.66131
461.204,1.89389
462.654,12.2738
464.104,-6.0424
465.555,1.7277
467.005,-1.80817
468.455,-5.18737
469.906,-1.82782
471.356,9.04202
472.806,17.9645
474.257,-11.304
475.707,-7.12969
477.157,3.39294
478.608,4.57639
480.058,4.14073
481.508,0.168523
482.959,2.02072
484.409,-0.95126
485.859,-2.18719
487.31,7.14787
488.76,30.4104
490.21,-12.282
491.661,5.81393
493.111,13.4798
494.561,3.32136
496.012,0.130043
497.462,18.1822
498.912,0.481581
500.363,-10.8742
501.813,-7.39336
503.263,1.48615
504.714,-1.47958
506.164,-2.041
507.614,-21.845
509.065,-7.24038
510.515,10.8726
511.965,10.0336
513.416,1.48471
514.866,8.16117
516.316,-7.86714
517.766,-6.86491
519.217,0.0815581
520.667,4.4018
522.117,32.1393
523.568,0.682678
525.018,-8.26458
526.468,6.5019
527.919,9.72154
529.369,-15.9875
530.819,5.20448
532.27,9.7545
533.72,1.85694
535.17,0.391007
536.621,1.48151
538.071,-3.70409
539.521,15.957
540.972,3.06718
542.422,3.07966
543.872,9.83825
545.323,11.8991
546.773,4.05236
548.223,13.4295
549.674,11.9939
551.124,-5.3834
552.574,-15.0118
554.025,-7.65306
555.475,6.16887
556.925,7.89914
558.376,6.5523
559.826,-4.14961
561.276,-4.13214
562.727,8.32681
564.177,12.0218
565.627,3.30406
567.078,16.8598
568.528,15.828
569.978,7.13827
571.429,5.90433
572.879,19.6577
574.329,2.1791
575.78,6.14719
577.23,3.40641
578.68,-1.38601
580.131,-2.93339
581.581,-3.31692
583.031,4.14008
584.482,0.549634
585.932,-2.85506
587.382,-2.28859
588.832,6.04013
590.283,21.4265
591.733,-16.4506
593.183,-12.5227
594.634,-5.36017
596.084,-2.75953
597.534,-6.03722
598.985,-12.5293
600.435,8.40484
601.885,3.36561
603.336,-11.8508
604.786,-11.6984
606.236,0.445248
607.687,-4.21052
609.137,-14.0561
610.587,-23.9029
612.038,-9.71152
613.488,0.880576
614.938,0.326892
616.389,5.22336
617.839,24.6561
619.289,-4.54049
620.74,-9.83643
622.19,-5.46027
623.64,0.285355
625.091,6.65965
626.541,-2.05692
627.991,-10.3962
629.442,4.56053
630.892,-2.98837
632.342,-14.4455
633.793,1.36686
635.243,2.69046
636.693,-2.11002
638.144,-1.10408
639.594,-0.964248
641.044,-0.738594
642.495,0.275029
643.945,-3.33726
645.395,7.2649
646.846,9.09226
648.296,20.0725
649.746,11.2559
651.197,-12.2223
652.647,4.53885
654.097,2.77055
655.547,-3.12413
656.998,4.53261
658.448,0.483509
659.898,-10.3439
661.349,-0.249466
662.799,3.78974
664.249,12.583
665.7,-9.61107
667.15,-17.8767
668.6,-16.6997
670.051,-23.2989
671.501,0.900623
672.951,13.0866
674.402,29.6971
675.852,37.5898
677.302,23.6135
678.753,5.41447
680.203,32.391
681.653,27.5078
683.104,-0.304104
684.554,-5.27592
686.004,-0.277808
687.455,3.00963
688.905,3.99769
690.355,-4.38029
691.806,-4.98207
693.256,-8.19247
694.706,-6.61832
696.157,-1.3162
697.607,6.87834
699.057,26.2895
700.508,15.9461
701.958,17.4982
703.408,8.73897
704.859,2.17494
706.309,1.99865
707.759,-3.77121
709.21,-4.38117
710.66,13.1744
712.11,8.07166
713.561,-3.98417
715.011,-4.18271
716.461,7.31423
717.912,-3.79868
719.362,-4.274
720.812,-2.44493
722.263,-2.51865
723.713,0.559185
725.163,5.91609
726.613,4.7783
728.064,-3.88838
729.514,9.88097
730.964,2.98307
732.415,5.17427
733.865,15.132
735.315,15.6767
736.766,3.22618
738.216,9.39726
739.666,-13.616
741.117,-12.4763
742.567,-11.0956
744.017,-14.0339
745.468,-5.09001
746.918,-14.9575
748.368,-4.89641
749.819,-6.97044
751.269,4.02236
752.719,13.6054
754.17,6.83607
755.62,-7.68968
757.07,-25.4031
758.521,-0.56059
759.971,11.6164
761.421,8.15001
762.872,6.52479
764.322,11.2168
765.772,-11.5049
767.223,1.7477
768.673,4.07471
770.123,-4.22474
771.574,-15.4492
773.024,-14.953
774.474,0.981834
775.925,-5.77727
777.375,-17.64
778.825,-10.9761
780.276,-24.8801
781.726,-21.7772
783.176,-2.17531
784.627,-13.9117
786.077,-2.59601
787.527,-0.00955505
788.978,1.32903
790.428,-6.13076
791.878,-0.00877564
793.328,15.5851
794.779,-5.2306
796.229,-41.1197
797.68,-10.9058
799.13,-4.7564
800.58,-25.7855
802.03,-30.8611
803.481,-9.87237
804.931,-22.1861
806.381,-22.6616
807.832,-2.8346
809.282,-10.2589
810.732,-15.1165
812.183,-14.6782
813.633,-11.082
815.083,14.7691
816.534,11.1388
817.984,13.6051
819.434,-2.04889
820.885,-9.94356
822.335,-6.45773
823.785,-6.9318
825.236,-21.5456
826.686,-10.5711
828.136,-10.3475
829.587,10.4539
831.037,18.3522
832.487,10.189
833.938,4.87357
835.388,11.3547
836.838,2.18321
838.289,23.3612
839.739,-8.28455
841.189,-7.96766
842.64,9.73176
844.09,-2.20771
845.54,-18.9773
846.991,30.0119
848.441,7.74536
849.891,5.38139
851.342,-1.05858
852.792,-1.85821
854.242,9.13484
855.693,7.81077
857.143,24.7667
858.593,8.1979
860.044,16.1611
861.494,13.489
862.944,15.2777
864.394,19.4052
865.845,-5.09825
867.295,2.35861
868.745,-6.53459
870.196,7.37607
871.646,0.668347
873.096,-4.16103
874.547,6.08091
875.997,6.3673
877.447,-36.9922
878.898,-4.90321
880.348,3.59983
881.798,-20.1934
883.249,-35.5044
884.699,-22.2795
886.149,-1.83103
887.6,-16.993
889.05,-9.90554
890.5,-6.8077
891.951,3.97918
893.401,-4.80849
894.851,-17.2802
896.302,-12.2852
897.752,-3.77088
899.202,-18.9732
900.653,-2.21692
902.103,-3.10693
903.553,-16.4428
905.004,-20.3435
906.454,-6.34886
907.904,11.1522
909.355,9.80362
910.805,6.13623
912.255,10.8686
913.706,10.4353
915.156,10.5108
916.606,3.74951
918.057,-3.76965
919.507,17.5445
920.957,-10.0934
922.408,-9.59256
923.858,19.7544
925.308,31.7923
926.759,15.3887
928.209,-3.37104
929.659,7.40944
931.109,32.8559
932.56,23.1808
934.01,16.6887
935.46,5.06135
936.911,10.8444
938.361,22.2141
939.811,8.79102
941.262,-27.5961
942.712,20.7257
944.162,0.0709534
945.613,-24.3929
947.063,-21.2504
948.513,-6.18335
949.964,-6.85106
951.414,-19.4229
952.864,6.16189
954.315,-7.52947
955.765,12.1685
957.215,2.77261
958.666,5.91248
960.116,8.41506
961.566,-0.236111
963.017,-0.812378
964.467,4.15209
965.917,26.5614
967.368,14.7522
968.818,-1.0752
970.268,-9.18445
971.719,-15.8377
973.169,-19.3217
974.619,-4.8485
976.07,7.79613
977.52,0.896403
978.97,6.7892
980.421,19.0723
981.871,26.1968
983.321,15.3487
984.772,-3.5684
986.222,-1.98406
987.672,-23.3864
989.123,14.9523
990.573,-2.54083
992.023,-3.01429
993.474,4.36962
994.924,12.2153
996.374,27.0969
997.825,40.2337
999.275,2.68462
1000.73,15.8619
1002.18,7.88976
1003.63,5.56508
1005.08,4.3739
1006.53,13.165
1007.98,31.8398
1009.43,28.2552
1010.88,17.2888
1012.33,27.8431
1013.78,36.6198
1015.23,27.3629
1016.68,35.1303
1018.13,50.5835
1019.58,51.8308
1021.03,49.6173
1022.48,12.97
1023.93,35.9329
1025.38,39.0039
1026.83,50.3508
1028.28,46.425
1029.73,29.2932
1031.18,35.2006
1032.63,79.2946
1034.08,63.02
1035.53,32.6022
1036.98,56.6336
1038.43,53.7894
1039.88,59.8896
1041.33,63.7329
1042.78,60.0708
1044.23,73.456
1045.69,84.3099
1047.14,32.7818
1048.59,67.1985
1050.04,102.592
1051.49,72.5937
1052.94,64.4758
1054.39,89.6147
1055.84,95.4356
1057.29,117.614
1058.74,73.7301
1060.19,70.7876
1061.64,103.316
1063.09,102.149
1064.54,104.252
1065.99,114.379
1067.44,106.736
1068.89,91.2195
1070.34,138.866
1071.79,122.139
1073.24,142.231
1074.69,136.601
1076.14,128.033
1077.59,127.433
1079.04,135.555
1080.49,145.982
1081.94,139.994
1083.39,115.924
1084.84,162.359
1086.29,169.625
1087.74,179.188
1089.2,147.97
1090.65,129.058
1092.1,153.039
1093.55,151.606
1095,131.699
1096.45,149.965
1097.9,166.333
1099.35,159
1100.8,165.372
1102.25,170.344
1103.7,150.615
1105.15,131.351
1106.6,158.579
1108.05,136.142
1109.5,144.245
1110.95,144.989
1112.4,127.898
1113.85,126.568
1115.3,131.011
1116.75,134.263
1118.2,142.716
1119.65,146.668
1121.1,145.049
1122.55,152.746
1124,154.32
1125.45,134.049
1126.9,116.269
1128.35,113.408
1129.8,112.924
1131.25,106.781
1132.7,114.438
1134.16,99.221
1135.61,86.0595
1137.06,91.5769
1138.51,107.721
1139.96,105.372
1141.41,111.454
1142.86,126.47
1144.31,116.406
1145.76,93.5751
1147.21,106.15
1148.66,71.2094
1150.11,111.6
1151.56,121.455
1153.01,123.931
1154.46,122.381
1155.91,109.788
1157.36,95.7847
1158.81,93.5438
1160.26,75.0177
1161.71,132.068
1163.16,106.432
1164.61,92.1311
1166.06,105.021
1167.51,110.083
1168.96,103.261
1170.41,105.063
1171.86,109.448
1173.31,89.6302
1174.76,109.296
1176.21,106.367
1177.66,94.3398
1179.12,118.081
1180.57,111.413
1182.02,97.3541
1183.47,113.965
1184.92,131.239
1186.37,129.649
1187.82,125.877
1189.27,122.931
1190.72,118.529
1192.17,116.452
1193.62,116.754
1195.07,115.086
1196.52,119.087
1197.97,119.132
1199.42,94.6413
1200.87,124.087
1202.32,126.502
1203.77,116.38
1205.22,125.188
1206.67,108.012
1208.12,113.36
1209.57,145.42
1211.02,145.998
1212.47,107.952
1213.92,129.557
1215.37,137.253
1216.82,141.74
1218.27,114.042
1219.72,158.019
1221.17,184.514
1222.63,159.617
1224.08,132.527
1225.53,138.058
1226.98,148.67
1228.43,149.213
1229.88,165.373
1231.33,153.301
1232.78,161.351
1234.23,163.818
1235.68,175.092
1237.13,149.496
1238.58,137.079
1240.03,167.363
1241.48,168.935
1242.93,155.456
1244.38,152.982
1245.83,157.07
1247.28,174.248
1248.73,190.563
1250.18,207.125
1251.63,202.698
1253.08,191.718
1254.53,197.393
1255.98,214.348
1257.43,229.664
1258.88,218.896
1260.33,211.356
1261.78,227.911
1263.23,241.155
1264.68,244.366
1266.13,233.468
1267.59,235.675
1269.04,256.048
1270.49,273.288
1271.94,291.504
1273.39,294.212
1274.84,282.067
1276.29,288.258
1277.74,294.216
1279.19,320.456
1280.64,320.984
1282.09,338.34
1283.54,375.557
1284.99,392.217
1286.44,401.834
1287.89,426.35
1289.34,424.985
1290.79,459.955
1292.24,444.701
1293.69,474.345
1295.14,502.768
1296.59,500.924
1298.04,520.242
1299.49,581.862
1300.94,622.301
1302.39,617.031
1303.84,696.28
1305.29,708.334
1306.74,750.626
1308.19,808.669
1309.64,844.52
1311.09,864.863
1312.55,903.832
1314,986.419
1315.45,1082.16
1316.9,1139.78
1318.35,1176.09
1319.8,1234.19
1321.25,1251.29
1322.7,1428.55
1324.15,1455.06
1325.6,1540.29
1327.05,1615.98
1328.5,1679.12
1329.95,1733.44
1331.4,1790.08
1332.85,1850.97
1334.3,1864.26
1335.75,1933.65
1337.2,1920.18
1338.65,1880.39
1340.1,1881.48
1341.55,1818.81
1343,1830.74
1344.45,1807.08
1345.9,1724.17
1347.35,1681.08
1348.8,1676.45
1350.25,1594.85
1351.7,1485.66
1353.15,1408.4
1354.6,1306.68
1356.06,1277.16
1357.51,1188.97
1358.96,1102.13
1360.41,1047.76
1361.86,1003.83
1363.31,952.435
1364.76,873.825
1366.21,783.468
1367.66,782.002
1369.11,739.417
1370.56,733.886
1372.01,653.148
1373.46,640.307
1374.91,594.385
1376.36,555.793
1377.81,544.726
1379.26,530.594
1380.71,499.445
1382.16,486.814
1383.61,502.501
1385.06,469.93
1386.51,461.053
1387.96,452.988
1389.41,427.986
1390.86,430.627
1392.31,414.583
1393.76,412.175
1395.21,400.554
1396.66,390.627
1398.11,384.605
1399.56,363.298
1401.02,350.616
1402.47,366.509
1403.92,376.401
1405.37,382.693
1406.82,359.196
1408.27,355.727
1409.72,354.252
1411.17,345.401
1412.62,314.596
1414.07,316.556
1415.52,343.22
1416.97,347.182
1418.42,351.308
1419.87,365.129
1421.32,371.083
1422.77,342.214
1424.22,321.813
1425.67,338.235
1427.12,334.234
1428.57,341.006
1430.02,333.796
1431.47,347.285
1432.92,362.779
1434.37,372.625
1435.82,389.155
1437.27,372.044
1438.72,369.817
1440.17,305.458
1441.62,369.974
1443.07,378.495
1444.53,373.535
1445.98,370.545
1447.43,404.743
1448.88,432.541
1450.33,417.004
1451.78,407.891
1453.23,420.082
1454.68,415.324
1456.13,428.682
1457.58,461.498
1459.03,437.467
1460.48,448.484
1461.93,475.832
1463.38,445.487
1464.83,460.859
1466.28,486.388
1467.73,478.676
1469.18,474.327
1470.63,488.952
1472.08,497.369
1473.53,512.046
1474.98,553.178
1476.43,554.565
1477.88,567.406
1479.33,622.406
1480.78,562.548
1482.23,629.133
1483.68,649.753
1485.13,657.317
1486.58,662.172
1488.03,641.81
1489.49,664.072
1490.94,716.59
1492.39,744.853
1493.84,761.423
1495.29,782.726
1496.74,835.099
1498.19,833.149
1499.64,880.092
1501.09,860.796
1502.54,904.442
1503.99,945.468
1505.44,997.573
1506.89,1020.94
1508.34,1068.13
1509.79,1129.67
1511.24,1192.22
1512.69,1252.18
1514.14,1300.22
1515.59,1367.18
1517.04,1460.81
1518.49,1538.41
1519.94,1685.17
1521.39,1689.85
1522.84,1827.99
1524.29,1912.22
1525.74,2092.23
1527.19,2250.94
1528.64,2409.67
1530.09,2625.27
1531.54,2847.51
1532.99,3052.92
1534.45,3332.4
1535.9,3643.74
1537.35,3859.56
1538.8,4324.1
1540.25,4771.38
1541.7,5104.35
1543.15,5622.81
1544.6,6107.75
1546.05,6689.53
1547.5,7215.36
1548.95,7833.96
1550.4,8484.51
1551.85,9069.03
1553.3,9734.21
1554.75,10479
1556.2,11168.7
1557.65,11842.3
1559.1,12523.9
1560.55,13162.3
1562,13820.9
1563.45,14252.2
1564.9,14715.3
1566.35,14949.3
1567.8,16113.7
1569.25,14946.1
1570.7,14798.4
1572.15,14395.7
1573.6,13927.8
1575.05,13299.6
1576.5,12471.4
1577.96,11633.4
1579.41,10846.2
1580.86,10030.9
1582.31,9268.36
1583.76,8480.43
1585.21,7746.02
1586.66,7073.51
1588.11,6473.71
1589.56,5963.67
1591.01,5412.74
1592.46,4989.9
1593.91,4640.74
1595.36,4331.34
1596.81,4021.99
1598.26,3773.44
1599.71,3540.75
1601.16,3335.01
1602.61,3147.6
1604.06,2958.79
1605.51,2819.18
1606.96,2691.75
1608.41,2552.38
1609.86,2409.73
1611.31,2284.96
1612.76,2133.9
1614.21,1970.93
1615.66,1896.49
1617.11,1728.97
1618.56,1611.07
1620.01,1521.69
1621.46,1414.32
1622.92,1302.56
1624.37,1243.63
1625.82,1162.07
1627.27,1103.38
1628.72,1043.35
1630.17,976.588
1631.62,920.972
1633.07,908.45
1634.52,850.95
1635.97,820.88
1637.42,799.065
1638.87,766.403
1640.32,731.981
1641.77,715.688
1643.22,688.25
1644.67,652.441
1646.12,622.157
1647.57,598.17
1649.02,583.253
1650.47,583.12
1651.92,551.242
1653.37,534.31
1654.82,499.248
1656.27,517.123
1657.72,494.011
1659.17,457.448
1660.62,473.127
1662.07,457.971
1663.52,425.193
1664.97,418.621
1666.42,420.269
1667.88,407.395
1669.33,382.03
1670.78,388.558
1672.23,394.134
1673.68,376.329
1675.13,370.44
1676.58,346.757
1678.03,324.799
1679.48,331.906
1680.93,326.588
1682.38,306.511
1683.83,335.393
1685.28,299.519
1686.73,290.075
1688.18,279.801
1689.63,298.198
1691.08,289.006
1692.53,284.353
1693.98,292.042
1695.43,274.85
1696.88,248.693
1698.33,264.12
1699.78,269.092
1701.23,248.168
1702.68,240.23
1704.13,245.535
1705.58,231.521
1707.03,246.18
1708.48,258.222
1709.93,239.184
1711.39,222.911
1712.84,245.46
1714.29,211.632
1715.74,230.53
1717.19,225.601
1718.64,237.618
1720.09,231.453
1721.54,216.663
1722.99,229.493
1724.44,243.307
1725.89,240.059
1727.34,236.458
1728.79,225.507
1730.24,210.476
1731.69,213.126
1733.14,203.452
1734.59,214.176
1736.04,234.909
1737.49,204.518
1738.94,217.182
1740.39,246.506
1741.84,216.482
1743.29,178.762
1744.74,138.997
1746.19,145.062
1747.64,145.479
1749.09,177.323
1750.54,189.973
1751.99,193.961
1753.44,195.938
1754.89,189.467
1756.35,179.321
1757.8,186.792
1759.25,180.539
1760.7,137.203
1762.15,135.147
1763.6,147.874
1765.05,152.905
1766.5,128.98
1767.95,159.54
1769.4,143.928
1770.85,144.722
1772.3,142.924
1773.75,125.665
1775.2,135.448
1776.65,135.231
1778.1,150.816
1779.55,105.316
1781,119.783
1782.45,115.422
1783.9,152.758
1785.35,161.278
1786.8,137.619
1788.25,127.526
1789.7,125.526
1791.15,124.013
1792.6,122.571
1794.05,121.835
1795.5,120.126
1796.95,118.11
1798.4,135.078
1799.85,101.842
1801.31,91.4162
1802.76,102.51
1804.21,104.725
1805.66,81.3708
1807.11,107.868
1808.56,95.87
1810.01,69.3318
1811.46,108.112
1812.91,120.448
1814.36,103.591
1815.81,76.2787
1817.26,86.5293
1818.71,106.854
1820.16,100.147
1821.61,84.5492
1823.06,70.6376
1824.51,64.8035
1825.96,63.6675
1827.41,71.4798
1828.86,93.3694
1830.31,105.137
1831.76,96.3951
1833.21,87.7588
1834.66,81.204
1836.11,58.2686
1837.56,101.616
1839.01,108.298
1840.46,114.794
1841.91,98.9436
1843.36,64.443
1844.82,104.215
1846.27,129.061
1847.72,135.731
1849.17,111.444
1850.62,119.729
1852.07,100.433
1853.52,100.083
1854.97,77.1874
1856.42,86.6899
1857.87,137.625
1859.32,140.24
1860.77,119.833
1862.22,105.827
1863.67,112.795
1865.12,111.313
1866.57,113.032
1868.02,105.821
1869.47,106.285
1870.92,132.235
1872.37,133.294
1873.82,125.784
1875.27,112.026
1876.72,103.958
1878.17,85.5484
1879.62,96.9831
1881.07,93.9319
1882.52,90.3364
1883.97,23.4142
1885.42,104.676
1886.87,86.4593
1888.32,96.8918
1889.78,59.3064
1891.23,63.7496
1892.68,74.7642
1894.13,74.4492
1895.58,92.8488
1897.03,55.6845
1898.48,63.6516
1899.93,46.7415
1901.38,78.9074
1902.83,63.1519
1904.28,50.3862
1905.73,44.3487
1907.18,39.8942
1908.63,28.3281
1910.08,15.1646
1911.53,51.979
1912.98,47.9551
1914.43,23.2042
1915.88,40.2582
1917.33,44.2752
1918.78,40.7581
1920.23,56.4237
1921.68,56.2591
1923.13,45.3924
1924.58,48.3327
1926.03,48.4749
1927.48,38.3662
1928.93,50.6321
1930.38,52.6573
1931.83,30.4164
1933.29,51.2783
1934.74,30.8729
1936.19,47.4229
1937.64,16.6884
1939.09,13.6639
1940.54,3.07307
1941.99,19.5148
1943.44,25.0911
1944.89,11.4429
1946.34,27.3135
1947.79,15.2867
1949.24,10.728
1950.69,20.0269
1952.14,33.0476
1953.59,16.8931
1955.04,51.9811
1956.49,34.4277
1957.94,44.0026
1959.39,25.7011
1960.84,45.9914
1962.29,35.7162
1963.74,25.448
1965.19,17.8606
1966.64,38.6169
1968.09,57.6657
1969.54,23.3295
1970.99,8.75529
1972.44,21.4348
1973.89,43.2411
1975.34,54.4135
1976.79,60.0095
1978.25,56.9955
1979.7,62.3124
1981.15,74.701
1982.6,62.966
1984.05,52.514
1985.5,54.5367
1986.95,43.8005
1988.4,53.5441
1989.85,63.9097
1991.3,40.9405
1992.75,63.5254
1994.2,62.3163
1995.65,40.2715
1997.1,48.1767
1998.55,63.0865
2000,51.7352
2001.45,50.3311
2002.9,49.7568
2004.35,32.0056
2005.8,49.6855
2007.25,46.4217
2008.7,38.5836
2010.15,60.0194
2011.6,70.6126
2013.05,52.7323
2014.5,61.8698
2015.95,62.6175
2017.4,34.1195
2018.85,31.4898
2020.3,14.1103
2021.75,69.0837
2023.21,49.9331
2024.66,22.411
2026.11,70.463
2027.56,20.6524
2029.01,23.1521
2030.46,7.88427
2031.91,50.121
2033.36,20.3875
2034.81,37.8757
2036.26,24.3791
2037.71,1.1247
2039.16,24.1824
2040.61,15.6032
2042.06,19.4895
2043.51,8.20092
2044.96,18.9704
2046.41,-8.74063
2047.86,15.8982
2049.31,9.53746
2050.76,-2.7555
2052.21,21.308
2053.66,-31.8709
2055.11,-6.32766
2056.56,-10.389
2058.01,-3.34862
2059.46,2.59172
2060.91,-1.96795
2062.36,-5.65109
2063.81,-11.5034
2065.26,10.5412
2066.72,-8.0332
2068.17,-22.8135
2069.62,3.12863
2071.07,14.03
2072.52,11.1843
2073.97,0.945146
2075.42,-1.80132
2076.87,-19.9221
2078.32,-24.138
2079.77,-17.7199
2081.22,-7.11306
2082.67,7.30041
2084.12,-3.51984
2085.57,-28.4876
2087.02,-18.5945
2088.47,-5.93394
2089.92,-7.82223
2091.37,-6.13991
2092.82,-21.7074
2094.27,-6.54047
2095.72,22.3534
2097.17,-4.46878
2098.62,-26.4387
2100.07,-17.4704
2101.52,-14.2868
2102.97,-29.4015
2104.42,-33.4949
2105.87,-9.22921
2107.32,-9.24625
2108.77,-25.7815
2110.22,-26.3882
2111.68,-21.0671
2113.13,-12.9623
2114.58,-1.07714
2116.03,-13.7627
2117.48,-22.978
2118.93,-9.2138
2120.38,10.7045
2121.83,-3.28743
2123.28,-10.593
2124.73,-19.2075
2126.18,-20.5167
2127.63,-6.90332
2129.08,-11.2233
2130.53,-15.608
2131.98,-28.2658
2133.43,-31.0787
2134.88,-16.9585
2136.33,-11.0613
2137.78,-8.66764
2139.23,3.34942
2140.68,9.21923
2142.13,8.3374
2143.58,10.7418
2145.03,8.25558
2146.48,7.94699
2147.93,7.97991
2149.38,6.93918
2150.83,14.7253
2152.28,13.3458
2153.73,3.0067
2155.18,-12.5077
2156.64,1.75555
2158.09,-0.976019
2159.54,3.22801
2160.99,5.24066
2162.44,15.4783
2163.89,19.0946
2165.34,2.69292
2166.79,-3.46438
2168.24,30.9893
2169.69,29.7286
2171.14,29.9215
2172.59,15.8137
2174.04,12.3715
2175.49,4.53141
2176.94,18.0826
2178.39,34.3456
2179.84,19.0872
2181.29,27.8136
2182.74,16.8871
2184.19,18.4663
2185.64,15.9924
2187.09,9.98897
2188.54,16.3026
2189.99,19.7743
2191.44,29.7238
2192.89,16.8533
2194.34,41.6576
2195.79,55.8183
2197.24,57.9488
2198.69,53.2576
2200.15,41.6025
2201.6,51.1275
2203.05,48.6705
2204.5,39.0404
2205.95,71.4706
2207.4,66.402
2208.85,79.6552
2210.3,56.0994
2211.75,65.3561
2213.2,65.7366
2214.65,35.3318
2216.1,36.9526
2217.55,22.7122
2219,51.0928
2220.45,27.5036
2221.9,82.2881
2223.35,28.3561
2224.8,97.9275
2226.25,87.9767
2227.7,62.6834
2229.15,66.6043
2230.6,88.2127
2232.05,61.59
2233.5,89.6142
2234.95,64.1926
2236.4,117.937
2237.85,91.167
2239.3,103.108
2240.75,69.3375
2242.2,51.6454
2243.65,63.6768
2245.11,54.0801
2246.56,92.7678
2248.01,72.3865
2249.46,90.9848
2250.91,82.4578
2252.36,87.2064
2253.81,93.8542
2255.26,87.5081
2256.71,95.8059
2258.16,68.6123
2259.61,65.0181
2261.06,67.3251
2262.51,87.0097
2263.96,77.2786
2265.41,77.0738
2266.86,104.894
2268.31,100.337
2269.76,74.7222
2271.21,89.0394
2272.66,89.2299
2274.11,81.9477
2275.56,70.6986
2277.01,81.0055
2278.46,108.23
2279.91,112.993
2281.36,115.021
2282.81,102.235
2284.26,87.8723
2285.71,89.0037
2287.16,88.7615
2288.61,91.9352
2290.07,105.789
2291.52,125.643
2292.97,114.962
2294.42,128.106
2295.87,130.363
2297.32,128.631
2298.77,104.284
2300.22,114.257
2301.67,96.6381
2303.12,129.326
2304.57,154.139
2306.02,131.4
2307.47,119.858
2308.92,128.902
2310.37,105.758
2311.82,153.003
2313.27,165.309
2314.72,93.786
2316.17,132.736
2317.62,141.382
2319.07,154.674
2320.52,168.193
2321.97,145.92
2323.42,151.968
2324.87,153.568
2326.32,154.078
2327.77,158.491
2329.22,166.587
2330.67,169.666
2332.12,141.02
2333.57,139.035
2335.03,163.809
2336.48,170.921
2337.93,177.012
2339.38,187.614
2340.83,187.444
2342.28,179.986
2343.73,164.213
2345.18,178.169
2346.63,211.142
2348.08,219.295
2349.53,228.273
2350.98,232.772
2352.43,238.606
2353.88,261.278
2355.33,245.898
2356.78,230.742
2358.23,217.726
2359.68,258.723
2361.13,260.463
2362.58,278.803
2364.03,279.335
2365.48,294.039
2366.93,311.656
2368.38,247.186
2369.83,257.402
2371.28,316.875
2372.73,294.871
2374.18,354.493
2375.63,339.029
2377.08,358.544
2378.54,338.512
2379.99,354.845
2381.44,353.732
2382.89,366.933
2384.34,410.888
2385.79,430.36
2387.24,403.656
2388.69,435.49
2390.14,466.533
2391.59,469.104
2393.04,481.704
2394.49,492.44
2395.94,519.356
2397.39,538.944
2398.84,605.299
2400.29,597.781
2401.74,583.957
2403.19,624.007
2404.64,652.286
2406.09,610.632
2407.54,681.409
2408.99,690.956
2410.44,714.417
2411.89,743.636
2413.34,763.207
2414.79,725.635
2416.24,759.906
2417.69,785.316
2419.14,813.555
2420.59,848.095
2422.04,869.106
2423.5,844.516
2424.95,871.368
2426.4,893.343
2427.85,892.538
2429.3,881.926
2430.75,873.283
2432.2,846.633
2433.65,837.479
2435.1,876.479
2436.55,885.012
2438,864.419
2439.45,842.923
2440.9,835.326
2442.35,879.119
2443.8,882.538
2445.25,799.17
2446.7,814.796
2448.15,832.543
2449.6,809.292
2451.05,813.584
2452.5,829.352
2453.95,813.562
2455.4,792.833
2456.85,764.073
2458.3,772.998
2459.75,750.123
2461.2,740.534
2462.65,749.845
2464.1,736.595
2465.55,732.93
2467.01,728.857
2468.46,723.833
2469.91,719.665
2471.36,706.546
2472.81,694.025
2474.26,718.72
2475.71,672.901
2477.16,651.256
2478.61,668.338
2480.06,663.348
2481.51,690.608
2482.96,673.556
2484.41,661.752
2485.86,642.221
2487.31,621.522
2488.76,669.53
2490.21,701.519
2491.66,680.65
2493.11,665.564
2494.56,669.903
2496.01,651.406
2497.46,662.609
2498.91,666.781
2500.36,690.334
2501.81,652.5
2503.26,676.675
2504.71,682.288
2506.16,667.199
2507.61,688.593
2509.06,698.186
2510.51,669.132
2511.97,679.075
2513.42,701.226
2514.87,675.314
2516.32,668.205
2517.77,717.381
2519.22,705.639
2520.67,702.898
2522.12,725.674
2523.57,688.396
2525.02,721.315
2526.47,767.833
2527.92,773.234
2529.37,780.436
2530.82,819.895
2532.27,805.442
2533.72,849.213
2535.17,817.666
2536.62,837.822
2538.07,829.044
2539.52,862.003
2540.97,883.354
2542.42,881.866
2543.87,920.081
2545.32,902.607
2546.77,929.582
2548.22,943.871
2549.67,974.103
2551.12,994.448
2552.57,986.244
2554.02,1024.02
2555.48,1057.96
2556.93,1106.92
2558.38,1146.7
2559.83,1121.79
2561.28,1122.34
2562.73,1202.99
2564.18,1249.4
2565.63,1249.88
2567.08,1316.71
2568.53,1271.7
2569.98,1375.54
2571.43,1414.49
2572.88,1454.89
2574.33,1535.6
2575.78,1580.26
2577.23,1627.25
2578.68,1659.83
2580.13,1671.65
2581.58,1738.05
2583.03,1803.7
2584.48,1919.26
2585.93,1961.92
2587.38,2024.74
2588.83,2107.02
2590.28,2126.09
2591.73,2275.88
2593.18,2367.43
2594.63,2390.66
2596.08,2478.93
2597.53,2587.8
2598.98,2692.06
2600.44,2799.87
2601.89,2895.83
2603.34,3034.85
2604.79,3162.48
2606.24,3286.14
2607.69,3451.41
2609.14,3622.37
2610.59,3740.23
2612.04,3917.53
2613.49,3972.53
2614.94,4180.94
2616.39,4450.84
2617.84,4590.28
2619.29,4789.83
2620.74,4955.65
2622.19,5198.25
2623.64,5503.41
2625.09,5668.48
2626.54,5853.53
2627.99,6169.74
2629.44,6371.81
2630.89,6645.36
2632.34,6962.27
2633.79,7051.62
2635.24,7352.06
2636.69,7720.07
2638.14,7933.09
2639.59,8238.48
2641.04,8504.4
2642.49,8729.85
2643.94,8941.43
2645.4,9149.73
2646.85,9395.2
2648.3,9627.54
2649.75,9806.57
2651.2,10076.9
2652.65,10326.1
2654.1,10478
2655.55,10493.3
2657,10601.5
2658.45,10650.5
2659.9,10751.4
2661.35,10823.2
2662.8,10841.2
2664.25,10712.2
2665.7,10654.8
2667.15,10638.7
2668.6,10596.1
2670.05,10400.8
2671.5,10322.5
2672.95,10121.5
2674.4,10002
2675.85,9831.62
2677.3,9598.21
2678.75,9215.71
2680.2,8878.84
2681.65,8706.18
2683.1,8445.77
2684.55,8168.67
2686,7906.58
2687.45,7608.05
2688.91,7281.44
2690.36,7053.1
2691.81,6794.97
2693.26,6453.56
2694.71,6323.72
2696.16,5989.25
2697.61,5788.63
2699.06,5514.78
2700.51,5290.73
2701.96,5033.54
2703.41,4818.07
2704.86,4562.61
2706.31,4314.77
2707.76,4162.28
2709.21,3922.39
2710.66,3771.87
2712.11,3559.91
2713.56,3411.36
2715.01,3194.33
2716.46,3087.25
2717.91,2961.55
2719.36,2849.85
2720.81,2691.27
2722.26,2566.58
2723.71,2493.32
2725.16,2378.49
2726.61,2251.16
2728.06,2129
2729.51,2087.55
2730.96,2018.97
2732.41,1926.04
2733.87,1861.46
2735.32,1763.8
2736.77,1646.51
2738.22,1649.94
2739.67,1563.34
2741.12,1506.17
2742.57,1439.02
2744.02,1411.01
2745.47,1393.69
2746.92,1291.39
2748.37,1290.75
2749.82,1235.09
2751.27,1212.44
2752.72,1135.96
2754.17,1120.46
2755.62,1069.82
2757.07,1042.5
2758.52,1058.55
2759.97,1029.34
2761.42,994.126
2762.87,936.637
2764.32,950.768
2765.77,912.827
2767.22,916.31
2768.67,779.125
2770.12,823.157
2771.57,794.475
2773.02,759.415
2774.47,767.908
2775.92,746.852
2777.38,744.652
2778.83,747.788
2780.28,709.115
2781.73,703.088
2783.18,722.485
2784.63,640.326
2786.08,663.92
2787.53,657.615
2788.98,590.575
2790.43,578.954
2791.88,611.068
2793.33,583.36
2794.78,579.184
2796.23,557.816
2797.68,547.466
2799.13,569.524
2800.58,552.004
2802.03,506.161
2803.48,537.752
2804.93,502.958
2806.38,482.597
2807.83,499.141
2809.28,483.537
2810.73,465.429
2812.18,480.566
2813.63,450.778
2815.08,466.711
2816.53,463.503
2817.98,444.778
2819.43,410.4
2820.88,429.583
2822.33,425.405
2823.79,402.696
2825.24,399.432
2826.69,430.638
2828.14,438.826
2829.59,403.833
2831.04,416.889
2832.49,393.773
2833.94,371.455
2835.39,360.806
2836.84,375.006
2838.29,385.91
2839.74,379.879
2841.19,326.695
2842.64,356.934
2844.09,343.211
2845.54,351.822
2846.99,337.587
2848.44,351.397
2849.89,328.992
2851.34,317.311
2852.79,348.022
2854.24,378.622
2855.69,355.796
2857.14,343.137
2858.59,378.95
2860.04,346.655
2861.49,344.463
2862.94,320.634
2864.39,326.693
2865.84,331.276
2867.3,332.048
2868.75,323.348
2870.2,340.729
2871.65,360.11
2873.1,339.888
2874.55,377.635
2876,351.911
2877.45,314.714
2878.9,340.066
2880.35,343.05
2881.8,329.723
2883.25,359.08
2884.7,365.706
2886.15,365.072
2887.6,378.724
2889.05,361.473
2890.5,371.005
2891.95,365.08
2893.4,352.095
2894.85,363.934
2896.3,378.401
2897.75,373.441
2899.2,361.342
2900.65,363.978
2902.1,362.633
2903.55,369.902
2905,367.299
2906.45,377.499
2907.9,358.916
2909.35,345.314
2910.8,333.217
2912.26,354.554
2913.71,331.346
2915.16,333.068
2916.61,336.146
2918.06,340.593
2919.51,340.943
2920.96,332.552
2922.41,343.078
2923.86,341.361
2925.31,327.759
2926.76,291.143
2928.21,303.756
2929.66,299.814
2931.11,307.86
2932.56,295.726
2934.01,250.172
2935.46,280.778
2936.91,256.855
2938.36,243.332
2939.81,246.569
2941.26,255.293
2942.71,230.819
2944.16,242.77
2945.61,227.382
2947.06,228.211
2948.51,201.626
2949.96,184.729
2951.41,187.614
2952.86,183.685
2954.31,200.007
2955.77,180.616
2957.22,193.965
2958.67,160.831
2960.12,177.661
2961.57,147.311
2963.02,152.297
2964.47,154.729
2965.92,139.005
2967.37,113.996
2968.82,112.376
2970.27,143.999
2971.72,137.2
2973.17,123.475
2974.62,112.391
2976.07,94.9911
2977.52,83.4722
2978.97,75.8543
2980.42,71.9693
2981.87,54.0978
2983.32,61.0188
2984.77,89.1164
2986.22,62.9896
2987.67,42.6415
2989.12,59.6958
2990.57,64.6356
2992.02,54.7733
2993.47,33.734
2994.92,42.6111
2996.37,69.7595
2997.82,28.9638
2999.27,29.1195
3000.73,90.0277
3002.18,65.7565
3003.63,45.9358
3005.08,66.4626
3006.53,52.6735
3007.98,28.745
3009.43,25.2312
3010.88,30.2715
3012.33,5.12127
3013.78,20.1239
3015.23,31.5204
3016.68,13.7364
3018.13,15.7147
3019.58,9.59917
3021.03,12.3016
3022.48,10.8489
3023.93,-5.96731
3025.38,1.94691
3026.83,31.5263
3028.28,-6.2843
3029.73,0.498201
3031.18,14.2368
3032.63,36.1195
3034.08,4.73109
3035.53,7.6871
3036.98,-13.9948
3038.43,-5.43573
3039.88,11.5173
3041.33,6.05872
3042.78,-9.32856
3044.23,1.84615
3045.69,19.1547
3047.14,-17.4447
3048.59,6.30367
3050.04,13.2608
3051.49,13.1446
3052.94,-11.4419
3054.39,24.8766
3055.84,9.03874
3057.29,-2.68029
3058.74,1.6146
3060.19,13.4258
3061.64,2.31488
3063.09,15.2272
3064.54,29.0439
3065.99,24.5655
3067.44,41.3885
3068.89,23.676
3070.34,49.8133
3071.79,51.3441
3073.24,49.4077
3074.69,6.8562
3076.14,36.0274
3077.59,57.9842
3079.04,47.5472
3080.49,30.6298
3081.94,53.2059
3083.39,71.1958
3084.84,47.1409
3086.29,55.2734
3087.74,34.1932
3089.2,49.1176
3090.65,70.5065
3092.1,52.2474
3093.55,80.8957
3095,123.962
3096.45,86.4348
3097.9,115.103
3099.35,120.081
3100.8,108.357
3102.25,103.258
3103.7,127.017
3105.15,158.345
3106.6,138.782
3108.05,149.148
3109.5,155.351
3110.95,186.089
3112.4,198.055
3113.85,185.287
3115.3,154.731
3116.75,225.346
3118.2,230.758
3119.65,218.579
3121.1,232.418
3122.55,224.599
3124,229.821
3125.45,274.041
3126.9,317.249
3128.35,290.631
3129.8,300.854
3131.25,272.73
3132.7,293.836
3134.16,330.484
3135.61,334.218
3137.06,358.665
3138.51,352.743
3139.96,301.326
3141.41,317.77
3142.86,338.373
3144.31,351.435
3145.76,340.217
3147.21,351.478
3148.66,389.411
3150.11,382.343
3151.56,367.441
3153.01,366.923
3154.46,354.641
3155.91,378.252
3157.36,361.674
3158.81,383.568
3160.26,389.199
3161.71,420.54
3163.16,398.507
3164.61,394.958
3166.06,414.261
3167.51,361.169
3168.96,425.057
3170.41,421.178
3171.86,415.137
3173.31,388.336
3174.76,400.296
3176.21,422.31
3177.67,433.919
3179.12,440.379
3180.57,476.084
3182.02,491.095
3183.47,475.57
3184.92,487.182
3186.37,497.498
3187.82,510.28
3189.27,498.284
3190.72,544.036
3192.17,537.301
3193.62,578.337
3195.07,607.285
3196.52,610.668
3197.97,609.405
3199.42,626.853
3200.87,639.393
3202.32,659.606
3203.77,652.747
3205.22,647.729
3206.67,635.385
3208.12,642.91
3209.57,642.053
3211.02,641.018
3212.47,587.042
3213.92,597.654
3215.37,577.128
3216.82,596.004
3218.27,564.871
3219.72,598.564
3221.17,559.424
3222.63,517.576
3224.08,494.374
3225.53,463.729
3226.98,422.808
3228.43,420.404
3229.88,396.523
3231.33,367.345
3232.78,328.938
3234.23,321.316
3235.68,298.59
3237.13,276.747
3238.58,244.439
3240.03,225.733
3241.48,192.294
3242.93,192.578
3244.38,154.612
3245.83,135.638
3247.28,119.607
3248.73,144.392
3250.18,111.612
3251.63,112.559
3253.08,108.501
3254.53,56.3591
3255.98,70.0903
3257.43,27.259
3258.88,46.9511
3260.33,54.7467
3261.78,54.6134
3263.23,42.1749
3264.68,18.2658
3266.13,38.2736
3267.59,-4.66896
3269.04,18.9469
3270.49,23.7578
3271.94,9.30678
3273.39,-20.9181
3274.84,1.46428
3276.29,-13.7615
3277.74,-21.7597
3279.19,-4.03488
3280.64,-7.99844
3282.09,2.58734
3283.54,1.91057
3284.99,-15.1875
3286.44,6.97652
3287.89,14.8578
3289.34,-14.8348
3290.79,-14.5892
3292.24,-0.913912
3293.69,-9.84842
3295.14,-41.7711
3296.59,8.55972
3298.04,-2.73761
3299.49,18.5377
3300.94,10.7638
3302.39,-2.77368
3303.84,-11.2299
3305.29,-10.6062
3306.74,-29.6918
3308.19,-18.6499
3309.64,-11.5185
3311.09,-30.674
3312.55,-41.1603
3314,-26.7423
3315.45,-45.8608
3316.9,-30.9263
3318.35,-23.2433
3319.8,-6.58002
3321.25,-39.8918
3322.7,-26.6769
3324.15,-16.3073
3325.6,-29.635
3327.05,-49.1172
3328.5,-44.5876
3329.95,-24.6998
3331.4,-21.8054
3332.85,-35.3143
3334.3,-26.2346
3335.75,-27.1507
3337.2,-3.78851
3338.65,-31.7265
3340.1,-29.7925
3341.55,-14.0936
3343,-16.2201
3344.45,-22.3315
3345.9,-30.6042
3347.35,-44.805
3348.8,-36.0714
3350.25,-8.41241
3351.7,-17.2532
3353.15,-30.7563
3354.6,-37.4023
3356.06,-17.8651
3357.51,-16.8582
3358.96,-24.9137
3360.41,-9.21684
3361.86,9.49793
3363.31,-12.0357
3364.76,-7.49298
3366.21,-37.1875
3367.66,-5.56619
3369.11,-0.142887
3370.56,-6.81864
3372.01,2.19124
3373.46,-20.3629
3374.91,-4.57227
3376.36,-8.47572
3377.81,-24.2535
3379.26,-6.91478
3380.71,14.0778
3382.16,-18.3553
3383.61,-9.90101
3385.06,-25.2296
3386.51,-24.0321
3387.96,-19.4943
3389.41,-52.5022
3390.86,-6.93467
3392.31,8.4787
3393.76,-5.41398
3395.21,-12.6605
3396.66,-38.1536
3398.11,-18.5998
3399.56,-5.84472
3401.02,-1.12364
3402.47,4.43975
3403.92,5.49891
3405.37,-11.2801
3406.82,-22.7632
3408.27,-31.2196
3409.72,-29.1169
3411.17,-14.43
3412.62,-12.721
3414.07,1.23426
3415.52,-17.4141
3416.97,29.106
3418.42,10.1398
3419.87,4.3286
3421.32,36.396
3422.77,-15.9146
3424.22,-27.7768
3425.67,-2.79405
3427.12,-4.57545
3428.57,-16.5055
3430.02,9.86535
3431.47,26.9414
3432.92,5.77403
3434.37,-2.80081
3435.82,-20.8427
3437.27,6.5945
3438.72,-11.3178
3440.17,7.31019
3441.62,13.7638
3443.07,-10.3973
3444.52,-8.30982
3445.98,-8.79941
3447.43,4.6521
3448.88,1.25964
3450.33,6.14299
3451.78,-4.69062
3453.23,-6.20551
3454.68,37.7902
3456.13,9.03517
3457.58,5.61878
3459.03,4.12688
3460.48,10.0582
3461.93,-10.7421
3463.38,-35.0828
3464.83,-19.0097
3466.28,-9.28116
3467.73,8.59573
3469.18,4.42113
3470.63,-9.82265
3472.08,-8.16307
3473.53,-11.2184
3474.98,-11.8313
3476.43,4.34254
3477.88,32.019
3479.33,20.6408
3480.78,-14.9346
3482.23,-19.2138
3483.68,-18.6706
3485.13,25.4823
3486.58,12.455
3488.03,-6.75927
3489.49,-9.22033
3490.94,-18.0046
3492.39,-7.98236
3493.84,7.08279
3495.29,2.13128
3496.74,19.218
3498.19,15.8208
3499.64,-10.9527
3501.09,-22.0539
3502.54,-25.9565
3503.99,-10.8867
3505.44,8.25358
3506.89,-18.5667
3508.34,1.7743
3509.79,-7.80444
3511.24,11.6005
3512.69,30.6677
3514.14,13.3231
3515.59,-18.8358
3517.04,-3.63788
3518.49,-18.4919
3519.94,-41.4224
3521.39,-28.4416
3522.84,-8.22726
3524.29,-4.316
3525.74,-5.20826
3527.19,-10.5644
3528.64,-23.3949
3530.09,-10.5726
3531.54,-13.6881
3532.99,-17.4411
3534.45,5.16158
3535.9,-7.87582
3537.35,38.6597
3538.8,-11.0253
3540.25,-13.3097
3541.7,-11.9915
3543.15,-15.8649
3544.6,-17.8303
3546.05,-6.14334
3547.5,-15.9451
3548.95,-9.16804
3550.4,-22.3252
3551.85,-9.05503
3553.3,-12.4679
3554.75,-32.7717
3556.2,3.84539
3557.65,-28.6519
3559.1,-28.2056
3560.55,-2.00808
3562,-10.0882
3563.45,16.9972
3564.9,7.61152
3566.35,-22.615
3567.8,-12.2795
3569.25,19.1165
3570.7,-9.35425
3572.15,-29.0071
3573.6,-46.9454
3575.05,-13.2637
3576.5,3.25479
3577.96,7.66193
3579.41,-2.28161
3580.86,-29.0771
3582.31,-18.693
3583.76,-28.362
3585.21,-17.4279
3586.66,0.300147
3588.11,11.3721
3589.56,-25.5518
3591.01,-31.6022
3592.46,-27.5738
3593.91,-31.8936
3595.36,-50.9001
3596.81,-50.9573
3598.26,-16.8976
3599.71,-35.6654
3601.16,-22.9804
3602.61,-13.8391
3604.06,-17.4991
3605.51,-17.0256
3606.96,-26.2867
3608.41,-8.2003
3609.86,-36.5321
3611.31,-22.5223
3612.76,-13.2713
3614.21,-22.2112
3615.66,-8.40771
3617.11,-22.2257
3618.56,-20.5045
3620.01,-13.0131
3621.46,-5.27895
3622.92,-13.9327
3624.37,-1.2659
3625.82,20.9904
3627.27,-29.008
3628.72,-8.69025
3630.17,-2.09234
3631.62,0.677025
3633.07,-22.3095
3634.52,-27.1313
3635.97,-28.1163
3637.42,-10.9559
3638.87,-13.3691
3640.32,-2.32155
3641.77,-6.21098
3643.22,-1.71536
3644.67,-21.5827
3646.12,-12.7662
3647.57,-11.2258
3649.02,-21.068
3650.47,-18.724
3651.92,-20.2085
3653.37,6.64934
3654.82,-25.0242
3656.27,-9.29849
3657.72,-9.23752
3659.17,2.1105
3660.62,-26.4544
3662.07,2.4627
3663.52,-1.71944
3664.97,-13.8716
3666.43,-23.0731
3667.88,-11.3657
3669.33,-18.2066
3670.78,-1.96096
3672.23,-14.3529
3673.68,5.18882
3675.13,7.13407
3676.58,-16.4579
3678.03,-20.5268
3679.48,-15.5477
3680.93,-4.28936
3682.38,4.8856
3683.83,12.1506
3685.28,-4.1527
3686.73,-5.83321
3688.18,-32.5044
3689.63,-25.7466
3691.08,-15.7842
3692.53,-28.1369
3693.98,5.17851
3695.43,-21.3968
3696.88,-3.48227
3698.33,-5.96665
3699.78,4.16213
3701.23,-24.9122
3702.68,31.7608
3704.13,-4.71842
3705.58,-6.38876
3707.03,-28.4182
3708.48,-4.85045
3709.93,-4.49531
3711.39,-9.63362
3712.84,-20.7683
3714.29,4.89352
3715.74,-16.6597
3717.19,3.48508
3718.64,-12.8271
3720.09,-10.3678
3721.54,-2.68208
3722.99,-27.1326
3724.44,-37.4417
3725.89,-12.7431
3727.34,9.3546
3728.79,-4.44787
3730.24,-6.13233
3731.69,1.04431
3733.14,-26.8907
3734.59,-21.2765
3736.04,-2.2757
3737.49,7.94767
3738.94,-16.4041
3740.39,-10.7944
3741.84,12.0204
3743.29,6.46854
3744.74,-5.86044
3746.19,-15.224
3747.64,13.7019
3749.09,7.51485
3750.54,1.67964
3751.99,-4.59376
3753.44,5.52349
3754.89,1.65536
3756.35,-9.05348
3757.8,8.84367
3759.25,-5.67583
3760.7,5.53419
3762.15,34.7528
3763.6,2.92116
3765.05,9.7211
3766.5,-5.45983
3767.95,18.099
3769.4,-3.76257
3770.85,0.286593
3772.3,30.5922
3773.75,5.31242
3775.2,-2.12133
3776.65,-0.322289
3778.1,17.8673
3779.55,-5.80984
3781,-4.64687
3782.45,-6.62414
3783.9,8.33115
3785.35,17.0463
3786.8,10.2041
3788.25,14.4772
3789.7,-7.27155
3791.15,11.8846
3792.6,-27.884
3794.05,23.6305
3795.5,20.9632
3796.95,11.2368
3798.4,4.80776
3799.85,6.09663
3801.31,26.486
3802.76,10.1666
3804.21,-13.6716
3805.66,27.5132
3807.11,7.36919
3808.56,1.03968
3810.01,13.7871
3811.46,13.017
3812.91,-1.72144
3814.36,1.4009
3815.81,32.1253
3817.26,28.5158
3818.71,15.646
3820.16,10.9637
3821.61,13.6464
3823.06,18.707
3824.51,23.1819
3825.96,27.0886
3827.41,14.4229
3828.86,43.4026
3830.31,14.5104
3831.76,8.62434
3833.21,32.8966
3834.66,15.9768
3836.11,11.2535
3837.56,-22.2593
3839.01,30.7141
3840.46,3.79945
3841.91,16.0479
3843.36,-3.82382
3844.82,0.222303
3846.27,33.4544
3847.72,50.7638
3849.17,38.4333
3850.62,22.687
3852.07,23.2637
3853.52,28.6877
3854.97,14.6812
3856.42,34.1698
3857.87,6.84063
3859.32,15.3362
3860.77,27.0996
3862.22,2.78219
3863.67,17.4146
3865.12,18.4038
3866.57,22.029
3868.02,4.81378
3869.47,46.3617
3870.92,11.0744
3872.37,48.5622
3873.82,-6.99592
3875.27,15.4543
3876.72,18.3905
3878.17,42.7137
3879.62,14.0403
3881.07,45.7236
3882.52,51.6465
3883.97,42.1856
3885.42,15.682
3886.87,21.9292
3888.32,39.4127
3889.78,24.4495
3891.23,53.6439
3892.68,42.973
3894.13,66.0612
3895.58,81.8372
3897.03,43.6839
3898.48,48.7529
3899.93,64.326
3901.38,49.7198
3902.83,42.1432
3904.28,62.4677
3905.73,37.3291
3907.18,38.6315
3908.63,45.4696
3910.08,43.6244
3911.53,25.7958
3912.98,91.615
3914.43,71.1442
3915.88,74.5737
3917.33,67.4746
3918.78,61.3325
3920.23,76.9855
3921.68,72.5425
3923.13,78.2304
3924.58,51.6151
3926.03,55.2531
3927.48,75.0225
3928.93,80.796
3930.38,82.5762
3931.83,95.4159
3933.28,65.0435
3934.74,39.5385
3936.19,76.5295
3937.64,122.397
3939.09,99.5639
3940.54,88.1158
3941.99,80.6347
3943.44,91.4991
3944.89,85.3135
3946.34,91.3973
3947.79,80.7494
3949.24,81.2184
3950.69,103.612
3952.14,92.4546
3953.59,98.3577
3955.04,113.096
3956.49,88.6071
3957.94,93.6352
3959.39,89.7459
3960.84,98.8745
3962.29,80.2228
3963.74,108.225
3965.19,110.68
3966.64,129.535
3968.09,121.833
3969.54,117.076
3970.99,103.128
3972.44,131.911
3973.89,117.826
3975.34,113.498
3976.79,103.35
3978.25,128.801
3979.7,138.642
3981.15,119.678
3982.6,115.297
3984.05,136.295
3985.5,147.774
3986.95,128.175
3988.4,139.857
3989.85,146.397
3991.3,145.238
3992.75,151.483
3994.2,157.865
3995.65,128.194
3997.1,145.926
3998.55,141.713
4000,148.333
