0,73.5883
1.45033,71.8994
2.90065,70.2102
4.35098,68.5213
5.80131,66.8323
7.25163,65.1431
8.70196,135.499
10.1523,85.0355
11.6026,71.507
13.0529,58.6728
14.5033,51.0907
15.9536,48.8461
17.4039,48.9142
18.8542,45.1486
20.3046,38.8315
21.7549,35.2472
23.2052,35.4109
24.6555,24.9297
26.1059,29.1537
27.5562,26.3716
29.0065,19.5734
30.4569,19.1558
31.9072,17.0268
33.3575,15.8887
34.8078,11.5347
36.2582,3.85368
37.7085,-1.35707
39.1588,5.6174
40.6091,10.1955
42.0595,10.1226
43.5098,5.13513
44.9601,-1.84064
46.4104,3.87791
47.8608,5.06698
49.3111,6.83786
50.7614,25.8769
52.2117,52.4064
53.6621,112.576
55.1124,203.362
56.5627,323.07
58.0131,475.349
59.4634,643.674
60.9137,759.852
62.364,884.504
63.8144,1063.82
65.2647,1097.46
66.715,1141.95
68.1653,1177.96
69.6157,1213.16
71.066,1269.62
72.5163,1294.88
73.9666,1305.86
75.417,1304.92
76.8673,1305.42
78.3176,1344.41
79.7679,1371.55
81.2183,1370.52
82.6686,1378.44
84.1189,1420.17
85.5693,1435.29
87.0196,1476.28
88.4699,1440.27
89.9202,1368.34
91.3706,1347.18
92.8209,1286.59
94.2712,1227.03
95.7215,1187.52
97.1719,1152.36
98.6222,1070.03
100.073,1076.89
101.523,1053.14
102.973,1031.1
104.423,1028.44
105.874,1023.2
107.324,1017.56
108.774,997.664
110.225,982.454
111.675,981.01
113.125,920.742
114.576,935.116
116.026,932.518
117.476,912.084
118.927,901.546
120.377,899.857
121.827,885.564
123.278,868.347
124.728,845.416
126.178,805.065
127.629,784.647
129.079,760.047
130.529,741.853
131.98,737.536
133.43,751.857
134.88,716.056
136.331,697.851
137.781,682.07
139.231,666.243
140.682,699.27
142.132,703.829
143.582,687.03
145.033,655.052
146.483,620.231
147.933,623.887
149.384,625.248
150.834,629.435
152.284,650.421
153.735,695.755
155.185,691.836
156.635,646.205
158.086,603.948
159.536,569.427
160.986,532.679
162.437,547.051
163.887,549.142
165.337,534.427
166.788,515.624
168.238,518.209
169.688,539.318
171.139,541.8
172.589,532.068
174.039,509.337
175.489,465.604
176.94,477.53
178.39,465.957
179.84,453.562
181.291,455.796
182.741,478.251
184.191,456.261
185.642,459.338
187.092,454.781
188.542,435.286
189.993,444.798
191.443,417.869
192.893,425.44
194.344,433.759
195.794,417.09
197.244,377.786
198.695,423.174
200.145,419.47
201.595,407.097
203.046,409.696
204.496,370.812
205.946,383.531
207.397,393.775
208.847,395.737
210.297,389.413
211.748,375.616
213.198,352.766
214.648,367.236
216.099,387.1
217.549,385.451
218.999,374.785
220.45,340.328
221.9,347.362
223.35,374.262
224.801,388.261
226.251,353.781
227.701,364.883
229.152,374.001
230.602,373.765
232.052,362.688
233.503,340.746
234.953,358.563
236.403,355.319
237.854,347.966
239.304,350.668
240.754,350.78
242.204,339.162
243.655,346.055
245.105,352.101
246.555,345.711
248.006,340.42
249.456,333.424
250.906,312.476
252.357,301.253
253.807,309.677
255.257,320.622
256.708,305.091
258.158,299.196
259.608,303.683
261.059,306.338
262.509,279.366
263.959,310.133
265.41,304.116
266.86,299.831
268.31,296.84
269.761,253.515
271.211,295.211
272.661,284.581
274.112,262.061
275.562,248.684
277.012,249.165
278.463,247.476
279.913,252.644
281.363,255.521
282.814,253.619
284.264,250.142
285.714,269.727
287.165,253.87
288.615,247.269
290.065,243.943
291.516,226.926
292.966,217.535
294.416,206.565
295.867,226.6
297.317,229.486
298.767,189.498
300.218,212.712
301.668,201.126
303.118,207.139
304.569,209.03
306.019,195.55
307.469,192.954
308.919,182.495
310.37,172.066
311.82,162.642
313.27,158.111
314.721,165.485
316.171,171.516
317.621,161.676
319.072,163.961
320.522,167.027
321.972,140.562
323.423,129.329
324.873,137.033
326.323,144.449
327.774,140.714
329.224,125.043
330.674,128.812
332.125,128.928
333.575,136.688
335.025,134.95
336.476,122.913
337.926,146.259
339.376,133.896
340.827,118.925
342.277,112.059
343.727,118.234
345.178,135.12
346.628,94.2481
348.078,99.9537
349.529,104.582
350.979,98.9405
352.429,93.5161
353.88,87.2675
355.33,82.9912
356.78,68.8968
358.231,65.7028
359.681,83.5814
361.131,83.7178
362.582,89.4442
364.032,88.3657
365.482,92.0951
366.933,97.08
368.383,81.534
369.833,78.9303
371.284,72.3331
372.734,76.08
374.184,79.7779
375.635,68.1886
377.085,72.8995
378.535,68.356
379.986,68.515
381.436,58.857
382.886,39.1984
384.336,50.7761
385.787,22.8554
387.237,35.2144
388.687,49.3685
390.138,47.4184
391.588,37.9719
393.038,76.1213
394.489,37.5733
395.939,32.0386
397.389,48.0706
398.84,46.4908
400.29,26.4709
401.74,36.0645
403.191,50.9313
404.641,46.8021
406.091,26.6874
407.542,21.6077
408.992,12.1207
410.442,13.8533
411.893,25.7412
413.343,29.4928
414.793,12.3718
416.244,7.01024
417.694,13.9356
419.144,4.52007
420.595,-12.1146
422.045,-19.7889
423.495,-2.48028
424.946,6.39928
426.396,3.70507
427.846,-5.47247
429.297,-7.75886
430.747,3.76344
432.197,-4.28099
433.648,-10.1799
435.098,-12.9821
436.548,-15.9308
437.999,-11.7339
439.449,12.9041
440.899,-15.3921
442.35,7.14347
443.8,17.2827
445.25,10.2108
446.701,-0.265304
448.151,-6.9405
449.601,-15.8109
451.051,10.2305
452.502,1.76979
453.952,-24.6106
455.402,4.84708
456.853,0.935002
458.303,24.2355
459.753,11.7796
461.204,2.30914
462.654,14.9649
464.104,-7.36723
465.555,2.10651
467.005,-2.20462
468.455,-6.32473
469.906,-2.22858
471.356,11.0245
472.806,21.9033
474.257,-13.7825
475.707,-8.69292
477.157,4.13687
478.608,5.5798
480.058,5.04861
481.508,0.205473
482.959,2.46378
484.409,-1.15983
485.859,-2.66674
487.31,8.71509
488.76,37.0781
490.21,-14.975
491.661,7.08867
493.111,16.4354
494.561,4.04959
496.012,0.158555
497.462,22.1687
498.912,0.58717
500.363,-13.2585
501.813,-9.01441
503.263,1.812
504.714,-1.80399
506.164,-2.48851
507.614,-26.6346
509.065,-8.82788
510.515,13.2565
511.965,12.2336
513.416,1.81024
514.866,9.95056
516.316,-9.59206
517.766,-8.37009
519.217,0.0994403
520.667,5.36693
522.117,39.1861
523.568,0.83236
525.018,-10.0766
526.468,7.92748
527.919,11.8531
529.369,-19.4929
530.819,6.3456
532.27,11.8932
533.72,2.26409
535.17,0.476737
536.621,1.80634
538.071,-4.51623
539.521,19.4557
540.972,3.73968
542.422,3.7549
543.872,11.9954
545.323,14.5081
546.773,4.94087
548.223,16.374
549.674,14.6237
551.124,-6.56375
552.574,-18.3033
554.025,-9.33104
555.475,7.52144
556.925,9.63108
558.376,7.98893
559.826,-5.05944
561.276,-5.03815
562.727,10.1525
564.177,14.6577
565.627,4.0285
567.078,20.5564
568.528,19.2984
569.978,8.70339
571.429,7.1989
572.879,23.9678
574.329,2.65688
575.78,7.49501
577.23,4.15329
578.68,-1.68991
580.131,-3.57655
581.581,-4.04418
583.031,5.04783
584.482,0.670144
585.932,-3.48106
587.382,-2.79038
588.832,7.36447
590.283,26.1244
591.733,-20.0575
593.183,-15.2684
594.634,-6.53543
596.084,-3.36458
597.534,-7.36092
598.985,-15.2764
600.435,10.2477
601.885,4.10354
603.336,-14.4492
604.786,-14.2633
606.236,0.542871
607.687,-5.13371
609.137,-17.138
610.587,-29.1438
612.038,-11.8408
613.488,1.07365
614.938,0.398565
616.389,6.36862
617.839,30.0622
619.289,-5.53603
620.74,-11.9931
622.19,-6.65747
623.64,0.347921
625.091,8.11983
626.541,-2.50791
627.991,-12.6756
629.442,5.56046
630.892,-3.64359
632.342,-17.6127
633.793,1.66656
635.243,3.28036
636.693,-2.57266
638.144,-1.34616
639.594,-1.17567
641.044,-0.900536
642.495,0.335331
643.945,-4.06898
645.395,8.85778
646.846,11.0858
648.296,24.4736
649.746,13.7238
651.197,-14.9022
652.647,5.53403
654.097,3.37801
655.547,-3.80912
656.998,5.52641
658.448,0.589522
659.898,-12.6119
661.349,-0.304164
662.799,4.62067
664.249,15.3419
665.7,-11.7184
667.15,-21.7962
668.6,-20.3613
670.051,-28.4074
671.501,1.09809
672.951,15.9559
674.402,36.2084
675.852,45.8316
677.302,28.791
678.753,6.60164
680.203,39.4929
681.653,33.5391
683.104,-0.370781
684.554,-6.4327
686.004,-0.33872
687.455,3.66951
688.905,4.87421
690.355,-5.3407
691.806,-6.07442
693.256,-9.98872
694.706,-8.06943
696.157,-1.60479
697.607,8.38647
699.057,32.0537
700.508,19.4424
701.958,21.3348
703.408,10.655
704.859,2.65181
706.309,2.43687
707.759,-4.59807
709.21,-5.34177
710.66,16.0629
712.11,9.84143
713.561,-4.85773
715.011,-5.0998
716.461,8.91792
717.912,-4.63156
719.362,-5.2111
720.812,-2.981
722.263,-3.07088
723.713,0.68179
725.163,7.21323
726.613,5.82598
728.064,-4.74094
729.514,12.0474
730.964,3.63713
732.415,6.30876
733.865,18.4498
735.315,19.114
736.766,3.93355
738.216,11.4577
739.666,-16.6014
741.117,-15.2118
742.567,-13.5284
744.017,-17.1109
745.468,-6.20604
746.918,-18.237
748.368,-5.96999
749.819,-8.49876
751.269,4.90429
752.719,16.5885
754.17,8.33492
755.62,-9.37569
757.07,-30.9729
758.521,-0.683503
759.971,14.1633
761.421,9.93695
762.872,7.9554
764.322,13.6761
765.772,-14.0275
767.223,2.1309
768.673,4.96812
770.123,-5.15105
771.574,-18.8365
773.024,-18.2315
774.474,1.19711
775.925,-7.04397
777.375,-21.5076
778.825,-13.3826
780.276,-30.3353
781.726,-26.552
783.176,-2.65226
784.627,-16.9619
786.077,-3.16521
787.527,-0.0116501
788.978,1.62043
790.428,-7.47497
791.878,-0.0106998
793.328,19.0022
794.779,-6.37745
796.229,-50.1355
797.68,-13.297
799.13,-5.79927
800.58,-31.4392
802.03,-37.6276
803.481,-12.037
804.931,-27.0506
806.381,-27.6303
807.832,-3.4561
809.282,-12.5083
810.732,-18.431
812.183,-17.8965
813.633,-13.5118
815.083,18.0074
816.534,13.5811
817.984,16.5881
819.434,-2.49812
820.885,-12.1238
822.335,-7.87363
823.785,-8.45164
825.236,-26.2697
826.686,-12.8889
828.136,-12.6163
829.587,12.746
831.037,22.376
832.487,12.4231
833.938,5.94214
835.388,13.8442
836.838,2.66189
838.289,28.4833
839.739,-10.101
841.189,-9.71463
842.64,11.8655
844.09,-2.69176
845.54,-23.1382
846.991,36.5923
848.441,9.44359
849.891,6.5613
851.342,-1.29068
852.792,-2.26564
854.242,11.1377
855.693,9.52334
857.143,30.1969
858.593,9.99535
860.044,19.7045
861.494,16.4466
862.944,18.6275
864.394,23.6599
865.845,-6.21607
867.295,2.87575
868.745,-7.96735
870.196,8.99332
871.646,0.814887
873.096,-5.07336
874.547,7.4142
875.997,7.76337
877.447,-45.103
878.898,-5.97827
880.348,4.38911
881.798,-24.6209
883.249,-43.289
884.699,-27.1645
886.149,-2.23249
887.6,-20.7188
889.05,-12.0774
890.5,-8.30033
891.951,4.85164
893.401,-5.86279
894.851,-21.0689
896.302,-14.9789
897.752,-4.59767
899.202,-23.1332
900.653,-2.70299
902.103,-3.78814
903.553,-20.048
905.004,-24.804
906.454,-7.74089
907.904,13.5974
909.355,11.9531
910.805,7.48164
912.255,13.2516
913.706,12.7233
915.156,12.8153
916.606,4.57162
918.057,-4.59617
919.507,21.3913
920.957,-12.3065
922.408,-11.6958
923.858,24.0857
925.308,38.763
926.759,18.7628
928.209,-4.11017
929.659,9.03401
931.109,40.0598
932.56,28.2634
934.01,20.3478
935.46,6.17109
936.911,13.2221
938.361,27.0847
939.811,10.7185
941.262,-33.6467
942.712,25.27
944.162,0.0865104
945.613,-29.7412
947.063,-25.9097
948.513,-7.53909
949.964,-8.3532
951.414,-23.6814
952.864,7.51293
954.315,-9.18036
955.765,14.8365
957.215,3.38053
958.666,7.20883
960.116,10.2601
961.566,-0.287881
963.017,-0.990497
964.467,5.06247
965.917,32.3852
967.368,17.9867
968.818,-1.31094
970.268,-11.1982
971.719,-19.3102
973.169,-23.5581
974.619,-5.91157
976.07,9.50548
977.52,1.09295
978.97,8.27778
980.421,23.254
981.871,31.9407
983.321,18.714
984.772,-4.3508
986.222,-2.41908
987.672,-28.514
989.123,18.2307
990.573,-3.09792
992.023,-3.67519
993.474,5.32769
994.924,14.8936
996.374,33.0381
997.825,49.0552
999.275,3.27324
1000.73,19.3397
1002.18,9.61965
1003.63,6.78526
1005.08,5.3329
1006.53,16.0515
1007.98,38.8209
1009.43,34.4503
1010.88,21.0795
1012.33,33.9479
1013.78,44.6489
1015.23,33.3624
1016.68,42.8328
1018.13,61.6743
1019.58,63.195
1021.03,60.4963
1022.48,15.8138
1023.93,43.8114
1025.38,47.5558
1026.83,61.3906
1028.28,56.6041
1029.73,35.7159
1031.18,42.9186
1032.63,96.6804
1034.08,76.8375
1035.53,39.7505
1036.98,69.0508
1038.43,65.5831
1039.88,73.0208
1041.33,77.7067
1042.78,73.2418
1044.23,89.5617
1045.69,102.795
1047.14,39.9695
1048.59,81.9322
1050.04,125.086
1051.49,88.5104
1052.94,78.6125
1054.39,109.263
1055.84,116.361
1057.29,143.402
1058.74,89.8959
1060.19,86.3082
1061.64,125.969
1063.09,124.546
1064.54,127.111
1065.99,139.458
1067.44,130.138
1068.89,111.22
1070.34,169.314
1071.79,148.919
1073.24,173.416
1074.69,166.552
1076.14,156.106
1077.59,155.373
1079.04,165.276
1080.49,177.99
1081.94,170.689
1083.39,141.341
1084.84,197.957
1086.29,206.817
1087.74,218.476
1089.2,180.413
1090.65,157.355
1092.1,186.594
1093.55,184.847
1095,160.575
1096.45,182.846
1097.9,202.802
1099.35,193.862
1100.8,201.631
1102.25,207.693
1103.7,183.638
1105.15,160.15
1106.6,193.349
1108.05,165.992
1109.5,175.872
1110.95,176.778
1112.4,155.94
1113.85,154.319
1115.3,159.736
1116.75,163.702
1118.2,174.008
1119.65,178.826
1121.1,176.853
1122.55,186.237
1124,188.156
1125.45,163.44
1126.9,141.762
1128.35,138.274
1129.8,137.683
1131.25,130.194
1132.7,139.529
1134.16,120.976
1135.61,104.929
1137.06,111.656
1138.51,131.339
1139.96,128.476
1141.41,135.891
1142.86,154.199
1144.31,141.929
1145.76,114.092
1147.21,129.424
1148.66,86.8226
1150.11,136.069
1151.56,148.085
1153.01,151.104
1154.46,149.214
1155.91,133.86
1157.36,116.786
1158.81,114.054
1160.26,91.4658
1161.71,161.024
1163.16,129.767
1164.61,112.332
1166.06,128.048
1167.51,134.219
1168.96,125.902
1170.41,128.099
1171.86,133.445
1173.31,109.282
1174.76,133.26
1176.21,129.689
1177.66,115.024
1179.12,143.971
1180.57,135.841
1182.02,118.7
1183.47,138.952
1184.92,160.014
1186.37,158.076
1187.82,153.476
1189.27,149.884
1190.72,144.517
1192.17,141.985
1193.62,142.353
1195.07,140.319
1196.52,145.198
1197.97,145.253
1199.42,115.392
1200.87,151.294
1202.32,154.238
1203.77,141.897
1205.22,152.636
1206.67,131.694
1208.12,138.214
1209.57,177.304
1211.02,178.009
1212.47,131.621
1213.92,157.963
1215.37,167.347
1216.82,172.817
1218.27,139.047
1219.72,192.665
1221.17,224.969
1222.63,194.614
1224.08,161.584
1225.53,168.328
1226.98,181.267
1228.43,181.929
1229.88,201.632
1231.33,186.913
1232.78,196.728
1234.23,199.736
1235.68,213.483
1237.13,182.274
1238.58,167.134
1240.03,204.058
1241.48,205.975
1242.93,189.541
1244.38,186.524
1245.83,191.509
1247.28,212.453
1248.73,232.345
1250.18,252.538
1251.63,247.141
1253.08,233.753
1254.53,240.673
1255.98,261.345
1257.43,280.02
1258.88,266.89
1260.33,257.697
1261.78,277.882
1263.23,294.03
1264.68,297.945
1266.13,284.658
1267.59,287.348
1269.04,312.188
1270.49,333.208
1271.94,355.418
1273.39,358.72
1274.84,343.912
1276.29,351.461
1277.74,358.724
1279.19,390.718
1280.64,391.362
1282.09,412.524
1283.54,457.901
1284.99,478.213
1286.44,489.939
1287.89,519.83
1289.34,518.166
1290.79,560.803
1292.24,542.204
1293.69,578.348
1295.14,613.003
1296.59,610.755
1298.04,634.308
1299.49,709.44
1300.94,758.745
1302.39,752.319
1303.84,848.944
1305.29,863.642
1306.74,915.206
1308.19,985.976
1309.64,1029.69
1311.09,1054.49
1312.55,1102
1314,1202.7
1315.45,1319.43
1316.9,1389.68
1318.35,1433.95
1319.8,1504.79
1321.25,1525.64
1322.7,1741.77
1324.15,1774.09
1325.6,1878.01
1327.05,1970.29
1328.5,2047.28
1329.95,2113.51
1331.4,2182.57
1332.85,2256.81
1334.3,2273.01
1335.75,2357.61
1337.2,2341.19
1338.65,2292.68
1340.1,2294.01
1341.55,2217.59
1343,2232.14
1344.45,2203.29
1345.9,2102.21
1347.35,2049.66
1348.8,2044.03
1350.25,1944.54
1351.7,1811.41
1353.15,1717.2
1354.6,1593.18
1356.06,1557.19
1357.51,1449.66
1358.96,1343.77
1360.41,1277.48
1361.86,1223.93
1363.31,1161.26
1364.76,1065.42
1366.21,955.249
1367.66,953.461
1369.11,901.54
1370.56,894.795
1372.01,796.355
1373.46,780.699
1374.91,724.708
1376.36,677.655
1377.81,664.161
1379.26,646.931
1380.71,608.952
1382.16,593.551
1383.61,612.678
1385.06,572.965
1386.51,562.142
1387.96,552.309
1389.41,521.825
1390.86,525.045
1392.31,505.483
1393.76,502.548
1395.21,488.378
1396.66,476.275
1398.11,468.933
1399.56,442.954
1401.02,427.491
1402.47,446.869
1403.92,458.929
1405.37,466.601
1406.82,437.952
1408.27,433.723
1409.72,431.924
1411.17,421.132
1412.62,383.573
1414.07,385.963
1415.52,418.473
1416.97,423.304
1418.42,428.335
1419.87,445.186
1421.32,452.445
1422.77,417.247
1424.22,392.373
1425.67,412.396
1427.12,407.517
1428.57,415.773
1430.02,406.983
1431.47,423.43
1432.92,442.321
1434.37,454.325
1435.82,474.48
1437.27,453.618
1438.72,450.902
1440.17,372.431
1441.62,451.093
1443.07,461.483
1444.53,455.435
1445.98,451.79
1447.43,493.485
1448.88,527.379
1450.33,508.434
1451.78,497.324
1453.23,512.187
1454.68,506.386
1456.13,522.674
1457.58,562.685
1459.03,533.385
1460.48,546.818
1461.93,580.161
1463.38,543.163
1464.83,561.906
1466.28,593.032
1467.73,583.629
1469.18,578.326
1470.63,596.159
1472.08,606.42
1473.53,624.316
1474.98,674.466
1476.43,676.157
1477.88,691.813
1479.33,758.873
1480.78,685.891
1482.23,767.075
1483.68,792.216
1485.13,801.438
1486.58,807.358
1488.03,782.532
1489.49,809.674
1490.94,873.708
1492.39,908.167
1493.84,928.37
1495.29,954.344
1496.74,1018.2
1498.19,1015.82
1499.64,1073.06
1501.09,1049.53
1502.54,1102.75
1503.99,1152.77
1505.44,1216.3
1506.89,1244.79
1508.34,1302.33
1509.79,1377.35
1511.24,1453.62
1512.69,1526.73
1514.14,1585.3
1515.59,1666.94
1517.04,1781.11
1518.49,1875.72
1519.94,2054.66
1521.39,2060.36
1522.84,2228.78
1524.29,2331.49
1525.74,2550.96
1527.19,2744.48
1528.64,2938.01
1530.09,3200.87
1531.54,3471.85
1532.99,3722.29
1534.45,4063.05
1535.9,4442.66
1537.35,4705.79
1538.8,5272.19
1540.25,5817.53
1541.7,6223.51
1543.15,6855.65
1544.6,7446.92
1546.05,8156.26
1547.5,8797.38
1548.95,9551.62
1550.4,10344.8
1551.85,11057.5
1553.3,11868.5
1554.75,12776.6
1556.2,13617.5
1557.65,14438.8
1559.1,15269.8
1560.55,16048.3
1562,16851.2
1563.45,17377.1
1564.9,17941.7
1566.35,18227
1567.8,19646.8
1569.25,18223.2
1570.7,18043
1572.15,17552
1573.6,16981.6
1575.05,16215.6
1576.5,15205.8
1577.96,14184.1
1579.41,13224.2
1580.86,12230.2
1582.31,11300.5
1583.76,10339.8
1585.21,9444.39
1586.66,8624.42
1588.11,7893.12
1589.56,7271.24
1591.01,6599.52
1592.46,6083.97
1593.91,5658.25
1595.36,5281.02
1596.81,4903.84
1598.26,4600.79
1599.71,4317.09
1601.16,4066.24
1602.61,3837.73
1604.06,3607.52
1605.51,3437.3
1606.96,3281.93
1608.41,3112
1609.86,2938.08
1611.31,2785.96
1612.76,2601.77
1614.21,2403.07
1615.66,2312.31
1617.11,2108.06
1618.56,1964.3
1620.01,1855.34
1621.46,1724.42
1622.92,1588.15
1624.37,1516.3
1625.82,1416.86
1627.27,1345.3
1628.72,1272.11
1630.17,1190.71
1631.62,1122.9
1633.07,1107.63
1634.52,1037.53
1635.97,1000.86
1637.42,974.266
1638.87,934.443
1640.32,892.473
1641.77,872.607
1643.22,839.154
1644.67,795.493
1646.12,758.57
1647.57,729.323
1649.02,711.135
1650.47,710.974
1651.92,672.105
1653.37,651.461
1654.82,608.711
1656.27,630.506
1657.72,602.326
1659.17,557.746
1660.62,576.864
1662.07,558.384
1663.52,518.42
1664.97,510.406
1666.42,512.416
1667.88,496.72
1669.33,465.793
1670.78,473.753
1672.23,480.551
1673.68,458.842
1675.13,451.661
1676.58,422.785
1678.03,396.014
1679.48,404.679
1680.93,398.194
1682.38,373.716
1683.83,408.93
1685.28,365.19
1686.73,353.675
1688.18,341.15
1689.63,363.58
1691.08,352.373
1692.53,346.7
1693.98,356.074
1695.43,335.113
1696.88,303.22
1698.33,322.03
1699.78,328.092
1701.23,302.58
1702.68,292.902
1704.13,299.371
1705.58,282.284
1707.03,300.157
1708.48,314.839
1709.93,291.627
1711.39,271.786
1712.84,299.279
1714.29,258.034
1715.74,281.075
1717.19,275.065
1718.64,289.718
1720.09,282.201
1721.54,264.168
1722.99,279.811
1724.44,296.653
1725.89,292.694
1727.34,288.303
1728.79,274.951
1730.24,256.624
1731.69,259.856
1733.14,248.06
1734.59,261.136
1736.04,286.414
1737.49,249.36
1738.94,264.801
1740.39,300.554
1741.84,263.948
1743.29,217.956
1744.74,169.473
1746.19,176.868
1747.64,177.376
1749.09,216.202
1750.54,231.626
1751.99,236.489
1753.44,238.899
1754.89,231.009
1756.35,218.639
1757.8,227.748
1759.25,220.123
1760.7,167.286
1762.15,164.779
1763.6,180.296
1765.05,186.431
1766.5,157.259
1767.95,194.521
1769.4,175.486
1770.85,176.454
1772.3,174.261
1773.75,153.218
1775.2,165.146
1776.65,164.881
1778.1,183.883
1779.55,128.407
1781,146.046
1782.45,140.729
1783.9,186.252
1785.35,196.639
1786.8,167.793
1788.25,155.486
1789.7,153.048
1791.15,151.203
1792.6,149.446
1794.05,148.548
1795.5,146.465
1796.95,144.007
1798.4,164.695
1799.85,124.171
1801.31,111.46
1802.76,124.986
1804.21,127.687
1805.66,99.2119
1807.11,131.519
1808.56,116.89
1810.01,84.5333
1811.46,131.816
1812.91,146.857
1814.36,126.304
1815.81,93.0034
1817.26,105.501
1818.71,130.282
1820.16,122.105
1821.61,103.087
1823.06,86.1254
1824.51,79.0121
1825.96,77.627
1827.41,87.1523
1828.86,113.841
1830.31,128.189
1831.76,117.53
1833.21,107.001
1834.66,99.0086
1836.11,71.0443
1837.56,123.897
1839.01,132.043
1840.46,139.963
1841.91,120.638
1843.36,78.5725
1844.82,127.065
1846.27,157.359
1847.72,165.491
1849.17,135.879
1850.62,145.98
1852.07,122.454
1853.52,122.026
1854.97,94.1113
1856.42,105.697
1857.87,167.801
1859.32,170.988
1860.77,146.107
1862.22,129.031
1863.67,137.526
1865.12,135.719
1866.57,137.815
1868.02,129.023
1869.47,129.588
1870.92,161.228
1872.37,162.52
1873.82,153.363
1875.27,136.588
1876.72,126.751
1878.17,104.305
1879.62,118.247
1881.07,114.527
1882.52,110.143
1883.97,28.548
1885.42,127.627
1886.87,105.416
1888.32,118.136
1889.78,72.3097
1891.23,77.7272
1892.68,91.1568
1894.13,90.7727
1895.58,113.207
1897.03,67.8937
1898.48,77.6077
1899.93,56.9899
1901.38,96.2084
1902.83,76.9984
1904.28,61.4337
1905.73,54.0724
1907.18,48.6413
1908.63,34.5392
1910.08,18.4895
1911.53,63.3758
1912.98,58.4695
1914.43,28.2919
1915.88,49.0851
1917.33,53.9828
1918.78,49.6946
1920.23,68.795
1921.68,68.5943
1923.13,55.345
1924.58,58.93
1926.03,59.1033
1927.48,46.7783
1928.93,61.7336
1930.38,64.2028
1931.83,37.0855
1933.29,62.5214
1934.74,37.642
1936.19,57.8207
1937.64,20.3475
1939.09,16.6598
1940.54,3.74686
1941.99,23.7935
1943.44,30.5924
1944.89,13.9518
1946.34,33.3022
1947.79,18.6384
1949.24,13.0802
1950.69,24.4179
1952.14,40.2936
1953.59,20.5971
1955.04,63.3783
1956.49,41.9762
1957.94,53.6504
1959.39,31.3363
1960.84,56.0754
1962.29,43.5473
1963.74,31.0277
1965.19,21.7766
1966.64,47.084
1968.09,70.3093
1969.54,28.4446
1970.99,10.6749
1972.44,26.1345
1973.89,52.722
1975.34,66.344
1976.79,73.167
1978.25,69.4922
1979.7,75.9749
1981.15,91.0797
1982.6,76.7717
1984.05,64.028
1985.5,66.4943
1986.95,53.404
1988.4,65.284
1989.85,77.9223
1991.3,49.917
1992.75,77.4538
1994.2,75.9796
1995.65,49.1013
1997.1,58.7397
1998.55,76.9186
2000,63.0784
2001.45,61.3666
2002.9,60.6663
2004.35,39.023
2005.8,60.5794
2007.25,56.6
2008.7,47.0433
2010.15,73.1791
2011.6,86.0949
2013.05,64.2942
2014.5,75.4352
2015.95,76.3468
2017.4,41.6005
2018.85,38.3942
2020.3,17.2041
2021.75,84.2307
2023.21,60.8812
2024.66,27.3248
2026.11,85.9125
2027.56,25.1806
2029.01,28.2284
2030.46,9.61295
2031.91,61.1103
2033.36,24.8577
2034.81,46.1802
2036.26,29.7244
2037.71,1.37129
2039.16,29.4845
2040.61,19.0244
2042.06,23.7628
2043.51,9.99903
2044.96,23.1298
2046.41,-10.6571
2047.86,19.3839
2049.31,11.6286
2050.76,-3.35966
2052.21,25.9799
2053.66,-38.8589
2055.11,-7.71504
2056.56,-12.6669
2058.01,-4.08283
2059.46,3.15998
2060.91,-2.39943
2062.36,-6.89013
2063.81,-14.0256
2065.26,12.8525
2066.72,-9.79454
2068.17,-27.8156
2069.62,3.8146
2071.07,17.1062
2072.52,13.6366
2073.97,1.15238
2075.42,-2.19627
2076.87,-24.2901
2078.32,-29.4304
2079.77,-21.6051
2081.22,-8.67264
2082.67,8.90108
2084.12,-4.29159
2085.57,-34.7337
2087.02,-22.6715
2088.47,-7.23499
2089.92,-9.53731
2091.37,-7.48613
2092.82,-26.4669
2094.27,-7.97451
2095.72,27.2545
2097.17,-5.44859
2098.62,-32.2356
2100.07,-21.3009
2101.52,-17.4192
2102.97,-35.8479
2104.42,-40.8389
2105.87,-11.2528
2107.32,-11.2736
2108.77,-31.4342
2110.22,-32.174
2111.68,-25.6862
2113.13,-15.8044
2114.58,-1.31331
2116.03,-16.7803
2117.48,-28.0161
2118.93,-11.234
2120.38,13.0515
2121.83,-4.00822
2123.28,-12.9156
2124.73,-23.4189
2126.18,-25.0151
2127.63,-8.41692
2129.08,-13.6841
2130.53,-19.0302
2131.98,-34.4633
2133.43,-37.8929
2134.88,-20.6768
2136.33,-13.4865
2137.78,-10.5681
2139.23,4.0838
2140.68,11.2406
2142.13,10.1654
2143.58,13.097
2145.03,10.0657
2146.48,9.68943
2147.93,9.72956
2149.38,8.46065
2150.83,17.9539
2152.28,16.2719
2153.73,3.66594
2155.18,-15.25
2156.64,2.14046
2158.09,-1.19002
2159.54,3.93577
2160.99,6.38971
2162.44,18.8721
2163.89,23.2812
2165.34,3.28337
2166.79,-4.22397
2168.24,37.784
2169.69,36.2468
2171.14,36.482
2172.59,19.281
2174.04,15.084
2175.49,5.52495
2176.94,22.0474
2178.39,41.8761
2179.84,23.2722
2181.29,33.9119
2182.74,20.5897
2184.19,22.5151
2185.64,19.4988
2187.09,12.1791
2188.54,19.8771
2189.99,24.11
2191.44,36.241
2192.89,20.5485
2194.34,50.7913
2195.79,68.0568
2197.24,70.6545
2198.69,64.9347
2200.15,50.7242
2201.6,62.3375
2203.05,59.3419
2204.5,47.6003
2205.95,87.141
2207.4,80.9611
2208.85,97.1202
2210.3,68.3995
2211.75,79.6858
2213.2,80.1499
2214.65,43.0785
2216.1,45.0547
2217.55,27.692
2219,62.2953
2220.45,33.534
2221.9,100.33
2223.35,34.5734
2224.8,119.399
2226.25,107.266
2227.7,76.4272
2229.15,81.2077
2230.6,107.554
2232.05,75.094
2233.5,109.263
2234.95,78.2673
2236.4,143.796
2237.85,111.156
2239.3,125.715
2240.75,84.5402
2242.2,62.9691
2243.65,77.6384
2245.11,65.9375
2246.56,113.108
2248.01,88.2577
2249.46,110.934
2250.91,100.537
2252.36,106.327
2253.81,114.432
2255.26,106.695
2256.71,116.812
2258.16,83.656
2259.61,79.2737
2261.06,82.0865
2262.51,106.087
2263.96,94.2225
2265.41,93.9727
2266.86,127.893
2268.31,122.337
2269.76,91.1056
2271.21,108.562
2272.66,108.794
2274.11,99.9153
2275.56,86.1998
2277.01,98.7665
2278.46,131.96
2279.91,137.768
2281.36,140.24
2282.81,124.65
2284.26,107.139
2285.71,108.518
2287.16,108.223
2288.61,112.093
2290.07,128.983
2291.52,153.192
2292.97,140.168
2294.42,156.195
2295.87,158.946
2297.32,156.834
2298.77,127.15
2300.22,139.309
2301.67,117.827
2303.12,157.682
2304.57,187.935
2306.02,160.21
2307.47,146.138
2308.92,157.165
2310.37,128.946
2311.82,186.55
2313.27,201.554
2314.72,114.349
2316.17,161.839
2317.62,172.38
2319.07,188.588
2320.52,205.07
2321.97,177.914
2323.42,185.288
2324.87,187.238
2326.32,187.86
2327.77,193.241
2329.22,203.112
2330.67,206.866
2332.12,171.94
2333.57,169.519
2335.03,199.725
2336.48,208.397
2337.93,215.823
2339.38,228.749
2340.83,228.543
2342.28,219.449
2343.73,200.218
2345.18,217.234
2346.63,257.437
2348.08,267.377
2349.53,278.324
2350.98,283.809
2352.43,290.922
2353.88,318.565
2355.33,299.813
2356.78,281.334
2358.23,265.464
2359.68,315.449
2361.13,317.572
2362.58,339.933
2364.03,340.582
2365.48,358.509
2366.93,379.989
2368.38,301.383
2369.83,313.839
2371.28,386.352
2372.73,359.524
2374.18,432.218
2375.63,413.364
2377.08,437.157
2378.54,412.733
2379.99,432.647
2381.44,431.291
2382.89,447.385
2384.34,500.978
2385.79,524.72
2387.24,492.16
2388.69,530.975
2390.14,568.823
2391.59,571.959
2393.04,587.321
2394.49,600.41
2395.94,633.228
2397.39,657.111
2398.84,738.015
2400.29,728.849
2401.74,711.993
2403.19,760.825
2404.64,795.304
2406.09,744.517
2407.54,830.813
2408.99,842.453
2410.44,871.058
2411.89,906.683
2413.34,930.546
2414.79,884.735
2416.24,926.521
2417.69,957.502
2419.14,991.932
2420.59,1034.05
2422.04,1059.66
2423.5,1029.68
2424.95,1062.42
2426.4,1089.22
2427.85,1088.23
2429.3,1075.29
2430.75,1064.76
2432.2,1032.26
2433.65,1021.1
2435.1,1068.65
2436.55,1079.06
2438,1053.95
2439.45,1027.74
2440.9,1018.48
2442.35,1071.87
2443.8,1076.04
2445.25,974.394
2446.7,993.446
2448.15,1015.08
2449.6,986.735
2451.05,991.968
2452.5,1011.19
2453.95,991.941
2455.4,966.667
2456.85,931.602
2458.3,942.483
2459.75,914.593
2461.2,902.901
2462.65,914.254
2464.1,898.099
2465.55,893.629
2467.01,888.664
2468.46,882.539
2469.91,877.456
2471.36,861.461
2472.81,846.195
2474.26,876.304
2475.71,820.439
2477.16,794.049
2478.61,814.875
2480.06,808.791
2481.51,842.029
2482.96,821.238
2484.41,806.846
2485.86,783.032
2487.31,757.795
2488.76,816.328
2490.21,855.332
2491.66,829.887
2493.11,811.493
2494.56,816.784
2496.01,794.231
2497.46,807.891
2498.91,812.978
2500.36,841.694
2501.81,795.565
2503.26,825.04
2504.71,831.884
2506.16,813.487
2507.61,839.572
2509.06,851.269
2510.51,815.843
2511.97,827.967
2513.42,854.974
2514.87,823.381
2516.32,814.714
2517.77,874.671
2519.22,860.356
2520.67,857.014
2522.12,884.783
2523.57,839.331
2525.02,879.469
2526.47,936.186
2527.92,942.771
2529.37,951.552
2530.82,999.663
2532.27,982.041
2533.72,1035.41
2535.17,996.945
2536.62,1021.52
2538.07,1010.82
2539.52,1051
2540.97,1077.04
2542.42,1075.22
2543.87,1121.81
2545.32,1100.51
2546.77,1133.4
2548.22,1150.82
2549.67,1187.68
2551.12,1212.49
2552.57,1202.48
2554.02,1248.55
2555.48,1289.93
2556.93,1349.62
2558.38,1398.12
2559.83,1367.75
2561.28,1368.42
2562.73,1466.75
2564.18,1523.34
2565.63,1523.93
2567.08,1605.41
2568.53,1550.53
2569.98,1677.13
2571.43,1724.63
2572.88,1773.88
2574.33,1872.29
2575.78,1926.74
2577.23,1984.04
2578.68,2023.76
2580.13,2038.17
2581.58,2119.12
2583.03,2199.17
2584.48,2340.07
2585.93,2392.09
2587.38,2468.67
2588.83,2569
2590.28,2592.25
2591.73,2774.89
2593.18,2886.51
2594.63,2914.83
2596.08,3022.46
2597.53,3155.19
2598.98,3282.31
2600.44,3413.77
2601.89,3530.76
2603.34,3700.26
2604.79,3855.88
2606.24,4006.65
2607.69,4208.16
2609.14,4416.6
2610.59,4560.3
2612.04,4776.47
2613.49,4843.53
2614.94,5097.64
2616.39,5426.72
2617.84,5596.73
2619.29,5840.04
2620.74,6042.22
2622.19,6338.01
2623.64,6710.07
2625.09,6911.33
2626.54,7136.96
2627.99,7522.5
2629.44,7768.88
2630.89,8102.4
2632.34,8488.79
2633.79,8597.74
2635.24,8964.05
2636.69,9412.75
2638.14,9672.47
2639.59,10044.8
2641.04,10369
2642.49,10643.9
2643.94,10901.9
2645.4,11155.9
2646.85,11455.2
2648.3,11738.4
2649.75,11956.7
2651.2,12286.3
2652.65,12590.2
2654.1,12775.3
2655.55,12794
2657,12926
2658.45,12985.7
2659.9,13108.7
2661.35,13196.2
2662.8,13218.2
2664.25,13060.9
2665.7,12991
2667.15,12971.3
2668.6,12919.3
2670.05,12681.2
2671.5,12585.8
2672.95,12340.7
2674.4,12195.1
2675.85,11987.3
2677.3,11702.7
2678.75,11236.3
2680.2,10825.6
2681.65,10615.1
2683.1,10297.6
2684.55,9959.7
2686,9640.15
2687.45,9276.17
2688.91,8877.94
2690.36,8599.54
2691.81,8284.81
2693.26,7868.55
2694.71,7710.23
2696.16,7302.44
2697.61,7057.83
2699.06,6723.93
2700.51,6450.75
2701.96,6137.17
2703.41,5874.47
2704.86,5563
2706.31,5260.81
2707.76,5074.89
2709.21,4782.4
2710.66,4598.88
2712.11,4340.44
2713.56,4159.33
2715.01,3894.71
2716.46,3764.16
2717.91,3610.89
2719.36,3474.7
2720.81,3281.35
2722.26,3129.32
2723.71,3040
2725.16,2899.98
2726.61,2744.74
2728.06,2595.79
2729.51,2545.26
2730.96,2461.64
2732.41,2348.34
2733.87,2269.59
2735.32,2150.52
2736.77,2007.51
2738.22,2011.7
2739.67,1906.12
2741.12,1836.41
2742.57,1754.53
2744.02,1720.39
2745.47,1699.26
2746.92,1574.54
2748.37,1573.76
2749.82,1505.89
2751.27,1478.28
2752.72,1385.03
2754.17,1366.13
2755.62,1304.39
2757.07,1271.08
2758.52,1290.64
2759.97,1255.03
2761.42,1212.1
2762.87,1142
2764.32,1159.23
2765.77,1112.97
2767.22,1117.22
2768.67,949.953
2770.12,1003.64
2771.57,968.669
2773.02,925.922
2774.47,936.278
2775.92,910.604
2777.38,907.923
2778.83,911.745
2780.28,864.594
2781.73,857.245
2783.18,880.895
2784.63,780.721
2786.08,809.49
2787.53,801.802
2788.98,720.063
2790.43,705.893
2791.88,745.049
2793.33,711.266
2794.78,706.174
2796.23,680.121
2797.68,667.501
2799.13,694.396
2800.58,673.035
2802.03,617.14
2803.48,655.658
2804.93,613.235
2806.38,588.41
2807.83,608.581
2809.28,589.556
2810.73,567.478
2812.18,585.933
2813.63,549.614
2815.08,569.041
2816.53,565.129
2817.98,542.299
2819.43,500.383
2820.88,523.772
2822.33,518.678
2823.79,490.99
2825.24,487.01
2826.69,525.059
2828.14,535.042
2829.59,492.376
2831.04,508.295
2832.49,480.111
2833.94,452.899
2835.39,439.915
2836.84,457.229
2838.29,470.523
2839.74,463.17
2841.19,398.325
2842.64,435.194
2844.09,418.462
2845.54,428.962
2846.99,411.605
2848.44,428.443
2849.89,401.125
2851.34,386.884
2852.79,424.328
2854.24,461.638
2855.69,433.806
2857.14,418.372
2858.59,462.038
2860.04,422.662
2861.49,419.989
2862.94,390.936
2864.39,398.323
2865.84,403.91
2867.3,404.851
2868.75,394.244
2870.2,415.437
2871.65,439.066
2873.1,414.41
2874.55,460.434
2876,429.07
2877.45,383.717
2878.9,414.628
2880.35,418.267
2881.8,402.017
2883.25,437.811
2884.7,445.889
2886.15,445.117
2887.6,461.761
2889.05,440.728
2890.5,452.351
2891.95,445.126
2893.4,429.294
2894.85,443.729
2896.3,461.368
2897.75,455.32
2899.2,440.569
2900.65,443.783
2902.1,442.143
2903.55,451.006
2905,447.832
2906.45,460.268
2907.9,437.611
2909.35,421.027
2910.8,406.278
2912.26,432.292
2913.71,403.996
2915.16,406.096
2916.61,409.849
2918.06,415.27
2919.51,415.697
2920.96,405.467
2922.41,418.3
2923.86,416.207
2925.31,399.623
2926.76,354.978
2928.21,370.356
2929.66,365.55
2931.11,375.36
2932.56,360.566
2934.01,305.024
2935.46,342.34
2936.91,313.172
2938.36,296.685
2939.81,300.631
2941.26,311.268
2942.71,281.428
2944.16,296
2945.61,277.237
2947.06,278.248
2948.51,245.834
2949.96,225.232
2951.41,228.749
2952.86,223.959
2954.31,243.86
2955.77,220.217
2957.22,236.493
2958.67,196.094
2960.12,216.615
2961.57,179.61
2963.02,185.689
2964.47,188.654
2965.92,169.482
2967.37,138.991
2968.82,137.015
2970.27,175.571
2971.72,167.282
2973.17,150.548
2974.62,137.033
2976.07,115.819
2977.52,101.774
2978.97,92.4859
2980.42,87.749
2981.87,65.9591
2983.32,74.3976
2984.77,108.656
2986.22,76.8005
2987.67,51.9909
2989.12,72.7845
2990.57,78.8075
2992.02,66.7827
2993.47,41.1304
2994.92,51.9538
2996.37,85.0548
2997.82,35.3143
2999.27,35.5041
3000.73,109.767
3002.18,80.1741
3003.63,56.0075
3005.08,81.035
3006.53,64.2225
3007.98,35.0475
3009.43,30.7634
3010.88,36.9087
3012.33,6.24415
3013.78,24.5363
3015.23,38.4315
3016.68,16.7482
3018.13,19.1603
3019.58,11.7039
3021.03,14.9988
3022.48,13.2276
3023.93,-7.27569
3025.38,2.37378
3026.83,38.4386
3028.28,-7.66217
3029.73,0.607436
3031.18,17.3583
3032.63,44.0389
3034.08,5.76841
3035.53,9.37255
3036.98,-17.0632
3038.43,-6.62755
3039.88,14.0426
3041.33,7.38713
3042.78,-11.3739
3044.23,2.25093
3045.69,23.3544
3047.14,-21.2695
3048.59,7.6858
3050.04,16.1683
3051.49,16.0267
3052.94,-13.9506
3054.39,30.331
3055.84,11.0206
3057.29,-3.26796
3058.74,1.96861
3060.19,16.3695
3061.64,2.82243
3063.09,18.5659
3064.54,35.412
3065.99,29.9517
3067.44,50.4632
3068.89,28.8671
3070.34,60.7353
3071.79,62.6016
3073.24,60.2407
3074.69,8.35947
3076.14,43.9266
3077.59,70.6976
3079.04,57.9723
3080.49,37.3455
3081.94,64.8716
3083.39,86.8059
3084.84,57.4768
3086.29,67.3924
3087.74,41.6903
3089.2,59.887
3090.65,85.9655
3092.1,63.703
3093.55,98.6326
3095,151.141
3096.45,105.386
3097.9,140.34
3099.35,146.409
3100.8,132.116
3102.25,125.898
3103.7,154.866
3105.15,193.063
3106.6,169.211
3108.05,181.85
3109.5,189.412
3110.95,226.89
3112.4,241.479
3113.85,225.913
3115.3,188.657
3116.75,274.755
3118.2,281.354
3119.65,266.504
3121.1,283.377
3122.55,273.843
3124,280.211
3125.45,334.127
3126.9,386.808
3128.35,354.354
3129.8,366.819
3131.25,332.528
3132.7,358.262
3134.16,402.945
3135.61,407.497
3137.06,437.305
3138.51,430.085
3139.96,367.394
3141.41,387.443
3142.86,412.564
3144.31,428.49
3145.76,414.812
3147.21,428.542
3148.66,474.792
3150.11,466.175
3151.56,448.005
3153.01,447.374
3154.46,432.398
3155.91,461.186
3157.36,440.973
3158.81,467.668
3160.26,474.534
3161.71,512.747
3163.16,485.883
3164.61,481.555
3166.06,505.09
3167.51,440.358
3168.96,518.254
3170.41,513.524
3171.86,506.159
3173.31,473.481
3174.76,488.064
3176.21,514.905
3177.67,529.059
3179.12,536.935
3180.57,580.469
3182.02,598.771
3183.47,579.842
3184.92,594
3186.37,606.578
3187.82,622.162
3189.27,607.537
3190.72,663.319
3192.17,655.108
3193.62,705.141
3195.07,740.436
3196.52,744.562
3197.97,743.021
3199.42,764.294
3200.87,779.585
3202.32,804.23
3203.77,795.866
3205.22,789.748
3206.67,774.698
3208.12,783.872
3209.57,782.828
3211.02,781.566
3212.47,715.755
3213.92,728.694
3215.37,703.668
3216.82,726.682
3218.27,688.723
3219.72,729.804
3221.17,682.082
3222.63,631.058
3224.08,602.769
3225.53,565.405
3226.98,515.511
3228.43,512.58
3229.88,483.464
3231.33,447.888
3232.78,401.06
3234.23,391.767
3235.68,364.058
3237.13,337.426
3238.58,298.034
3240.03,275.227
3241.48,234.456
3242.93,234.802
3244.38,188.511
3245.83,165.378
3247.28,145.831
3248.73,176.051
3250.18,136.084
3251.63,137.239
3253.08,132.291
3254.53,68.7162
3255.98,85.4581
3257.43,33.2357
3258.88,57.2455
3260.33,66.7503
3261.78,66.5877
3263.23,51.422
3264.68,22.2707
3266.13,46.6653
3267.59,-5.69266
3269.04,23.1011
3270.49,28.9668
3271.94,11.3474
3273.39,-25.5045
3274.84,1.78533
3276.29,-16.7788
3277.74,-26.5307
3279.19,-4.91956
3280.64,-9.75216
3282.09,3.15463
3283.54,2.32947
3284.99,-18.5175
3286.44,8.50617
3287.89,18.1155
3289.34,-18.0874
3290.79,-17.788
3292.24,-1.11429
3293.69,-12.0078
3295.14,-50.9297
3296.59,10.4365
3298.04,-3.33785
3299.49,22.6023
3300.94,13.1239
3302.39,-3.38183
3303.84,-13.6921
3305.29,-12.9316
3306.74,-36.2019
3308.19,-22.7391
3309.64,-14.044
3311.09,-37.3994
3312.55,-50.1849
3314,-32.6057
3315.45,-55.9161
3316.9,-37.7071
3318.35,-28.3395
3319.8,-8.02273
3321.25,-48.6384
3322.7,-32.526
3324.15,-19.8827
3325.6,-36.1327
3327.05,-59.8865
3328.5,-54.3637
3329.95,-30.1154
3331.4,-26.5864
3332.85,-43.0572
3334.3,-31.9867
3335.75,-33.1036
3337.2,-4.61916
3338.65,-38.6828
3340.1,-36.3248
3341.55,-17.1837
3343,-19.7765
3344.45,-27.2278
3345.9,-37.3143
3347.35,-54.6287
3348.8,-43.9803
3350.25,-10.2569
3351.7,-21.0361
3353.15,-37.4998
3354.6,-45.603
3356.06,-21.7822
3357.51,-20.5545
3358.96,-30.3762
3360.41,-11.2377
3361.86,11.5804
3363.31,-14.6746
3364.76,-9.13587
3366.21,-45.3411
3367.66,-6.78661
3369.11,-0.174216
3370.56,-8.31367
3372.01,2.67168
3373.46,-24.8276
3374.91,-5.57477
3376.36,-10.3341
3377.81,-29.5712
3379.26,-8.43089
3380.71,17.1645
3382.16,-22.3798
3383.61,-12.0719
3385.06,-30.7613
3386.51,-29.3013
3387.96,-23.7686
3389.41,-64.0137
3390.86,-8.45515
3392.31,10.3377
3393.76,-6.60103
3395.21,-15.4364
3396.66,-46.5191
3398.11,-22.678
3399.56,-7.12622
3401.02,-1.37001
3402.47,5.4132
3403.92,6.70459
3405.37,-13.7533
3406.82,-27.7542
3408.27,-38.0647
3409.72,-35.501
3411.17,-17.5938
3412.62,-15.5102
3414.07,1.50488
3415.52,-21.2323
3416.97,35.4877
3418.42,12.363
3419.87,5.27767
3421.32,44.376
3422.77,-19.404
3424.22,-33.867
3425.67,-3.40667
3427.12,-5.57865
3428.57,-20.1244
3430.02,12.0284
3431.47,32.8485
3432.92,7.04002
3434.37,-3.41491
3435.82,-25.4126
3437.27,8.04039
3438.72,-13.7993
3440.17,8.913
3441.62,16.7816
3443.07,-12.677
3444.52,-10.1318
3445.98,-10.7287
3447.43,5.67211
3448.88,1.53583
3450.33,7.48988
3451.78,-5.71907
3453.23,-7.56611
3454.68,46.076
3456.13,11.0162
3457.58,6.85073
3459.03,5.03172
3460.48,12.2635
3461.93,-13.0974
3463.38,-42.7749
3464.83,-23.1777
3466.28,-11.3161
3467.73,10.4804
3469.18,5.39049
3470.63,-11.9763
3472.08,-9.95288
3473.53,-13.6781
3474.98,-14.4254
3476.43,5.29468
3477.88,39.0394
3479.33,25.1665
3480.78,-18.2091
3482.23,-23.4265
3483.68,-22.7642
3485.13,31.0695
3486.58,15.1858
3488.03,-8.24129
3489.49,-11.242
3490.94,-21.9522
3492.39,-9.73255
3493.84,8.63574
3495.29,2.59858
3496.74,23.4317
3498.19,19.2896
3499.64,-13.3542
3501.09,-26.8893
3502.54,-31.6476
3503.99,-13.2737
3505.44,10.0632
3506.89,-22.6375
3508.34,2.16333
3509.79,-9.51561
3511.24,14.144
3512.69,37.3918
3514.14,16.2442
3515.59,-22.9657
3517.04,-4.43551
3518.49,-22.5464
3519.94,-50.5045
3521.39,-34.6776
3522.84,-10.0311
3524.29,-5.26231
3525.74,-6.3502
3527.19,-12.8807
3528.64,-28.5244
3530.09,-12.8907
3531.54,-16.6893
3532.99,-21.2652
3534.45,6.29329
3535.9,-9.60264
3537.35,47.1361
3538.8,-13.4427
3540.25,-16.2279
3541.7,-14.6207
3543.15,-19.3434
3544.6,-21.7397
3546.05,-7.49031
3547.5,-19.4412
3548.95,-11.1782
3550.4,-27.2202
3551.85,-11.0404
3553.3,-15.2015
3554.75,-39.9571
3556.2,4.68852
3557.65,-34.9341
3559.1,-34.3899
3560.55,-2.44837
3562,-12.3002
3563.45,20.7239
3564.9,9.2804
3566.35,-27.5735
3567.8,-14.9718
3569.25,23.308
3570.7,-11.4052
3572.15,-35.3671
3573.6,-57.2385
3575.05,-16.1719
3576.5,3.96842
3577.96,9.34187
3579.41,-2.78187
3580.86,-35.4524
3582.31,-22.7916
3583.76,-34.5806
3585.21,-21.2491
3586.66,0.365956
3588.11,13.8655
3589.56,-31.1542
3591.01,-38.5312
3592.46,-33.6195
3593.91,-38.8865
3595.36,-62.0604
3596.81,-62.13
3598.26,-20.6025
3599.71,-43.4853
3601.16,-28.019
3602.61,-16.8734
3604.06,-21.3359
3605.51,-20.7586
3606.96,-32.0503
3608.41,-9.99827
3609.86,-44.542
3611.31,-27.4605
3612.76,-16.1811
3614.21,-27.0811
3615.66,-10.2512
3617.11,-27.0989
3618.56,-25.0003
3620.01,-15.8663
3621.46,-6.4364
3622.92,-16.9876
3624.37,-1.54346
3625.82,25.5927
3627.27,-35.3682
3628.72,-10.5956
3630.17,-2.5511
3631.62,0.825467
3633.07,-27.2011
3634.52,-33.0801
3635.97,-34.281
3637.42,-13.358
3638.87,-16.3004
3640.32,-2.83056
3641.77,-7.57278
3643.22,-2.09146
3644.67,-26.3148
3646.12,-15.5652
3647.57,-13.6872
3649.02,-25.6873
3650.47,-22.8293
3651.92,-24.6393
3653.37,8.10725
3654.82,-30.5109
3656.27,-11.3373
3657.72,-11.2629
3659.17,2.57324
3660.62,-32.2547
3662.07,3.00267
3663.52,-2.09644
3664.97,-16.9131
3666.43,-28.132
3667.88,-13.8578
3669.33,-22.1985
3670.78,-2.39092
3672.23,-17.4999
3673.68,6.32651
3675.13,8.69827
3676.58,-20.0664
3678.03,-25.0274
3679.48,-18.9567
3680.93,-5.22984
3682.38,5.9568
3683.83,14.8146
3685.28,-5.06321
3686.73,-7.11218
3688.18,-39.6312
3689.63,-31.3918
3691.08,-19.245
3692.53,-34.3061
3693.98,6.31393
3695.43,-26.0882
3696.88,-4.24578
3698.33,-7.27488
3699.78,5.07471
3701.23,-30.3744
3702.68,38.7246
3704.13,-5.75296
3705.58,-7.78954
3707.03,-34.6491
3708.48,-5.91395
3709.93,-5.48093
3711.39,-11.7459
3712.84,-25.3219
3714.29,5.96646
3715.74,-20.3124
3717.19,4.24921
3718.64,-15.6395
3720.09,-12.641
3721.54,-3.27014
3722.99,-33.0816
3724.44,-45.651
3725.89,-15.5371
3727.34,11.4057
3728.79,-5.4231
3730.24,-7.47688
3731.69,1.27328
3733.14,-32.7867
3734.59,-25.9415
3736.04,-2.77466
3737.49,9.69026
3738.94,-20.0008
3740.39,-13.1612
3741.84,14.6559
3743.29,7.88681
3744.74,-7.14538
3746.19,-18.562
3747.64,16.7061
3749.09,9.16253
3750.54,2.04791
3751.99,-5.60098
3753.44,6.73455
3754.89,2.0183
3756.35,-11.0385
3757.8,10.7827
3759.25,-6.92029
3760.7,6.7476
3762.15,42.3726
3763.6,3.56164
3765.05,11.8525
3766.5,-6.65693
3767.95,22.0674
3769.4,-4.58754
3770.85,0.349431
3772.3,37.2997
3773.75,6.47721
3775.2,-2.58645
3776.65,-0.392953
3778.1,21.7849
3779.55,-7.08368
3781,-5.66573
3782.45,-8.07652
3783.9,10.1578
3785.35,20.7839
3786.8,12.4414
3788.25,17.6514
3789.7,-8.86588
3791.15,14.4904
3792.6,-33.9977
3794.05,28.8116
3795.5,25.5595
3796.95,13.7006
3798.4,5.86189
3799.85,7.43335
3801.31,32.2933
3802.76,12.3957
3804.21,-16.6692
3805.66,33.5456
3807.11,8.98494
3808.56,1.26764
3810.01,16.8101
3811.46,15.871
3812.91,-2.09887
3814.36,1.70806
3815.81,39.169
3817.26,34.7681
3818.71,19.0765
3820.16,13.3676
3821.61,16.6385
3823.06,22.8087
3824.51,28.2647
3825.96,33.0279
3827.41,17.5853
3828.86,52.9189
3830.31,17.6919
3831.76,10.5153
3833.21,40.1094
3834.66,19.4799
3836.11,13.7209
3837.56,-27.1398
3839.01,37.4484
3840.46,4.6325
3841.91,19.5665
3843.36,-4.66222
3844.82,0.271045
3846.27,40.7895
3847.72,61.8942
3849.17,46.86
3850.62,27.6613
3852.07,28.3645
3853.52,34.9776
3854.97,17.9001
3856.42,41.6618
3857.87,8.34049
3859.32,18.6988
3860.77,33.0414
3862.22,3.39221
3863.67,21.2329
3865.12,22.439
3866.57,26.859
3868.02,5.86923
3869.47,56.5268
3870.92,13.5026
3872.37,59.2098
3873.82,-8.52982
3875.27,18.8428
3876.72,22.4227
3878.17,52.0789
3879.62,17.1188
3881.07,55.7488
3882.52,62.9704
3883.97,51.435
3885.42,19.1204
3886.87,26.7373
3888.32,48.0542
3889.78,29.8102
3891.23,65.4057
3892.68,52.3952
3894.13,80.5456
3895.58,99.7805
3897.03,53.2619
3898.48,59.4423
3899.93,78.4299
3901.38,60.6212
3902.83,51.3834
3904.28,76.1642
3905.73,45.5138
3907.18,47.1017
3908.63,55.4391
3910.08,53.1893
3911.53,31.4517
3912.98,111.702
3914.43,86.743
3915.88,90.9245
3917.33,82.2689
3918.78,74.78
3920.23,93.8652
3921.68,88.4479
3923.13,95.383
3924.58,62.932
3926.03,67.3677
3927.48,91.4717
3928.93,98.5111
3930.38,100.682
3931.83,116.337
3933.28,79.3047
3934.74,48.2076
3936.19,93.3091
3937.64,149.233
3939.09,121.394
3940.54,107.436
3941.99,98.3144
3943.44,111.561
3944.89,104.019
3946.34,111.437
3947.79,98.4543
3949.24,99.0261
3950.69,126.33
3952.14,112.726
3953.59,119.923
3955.04,137.893
3956.49,108.035
3957.94,114.165
3959.39,109.423
3960.84,120.553
3962.29,97.8122
3963.74,131.954
3965.19,134.948
3966.64,157.936
3968.09,148.546
3969.54,142.746
3970.99,125.74
3972.44,160.834
3973.89,143.66
3975.34,138.384
3976.79,126.01
3978.25,157.042
3979.7,169.041
3981.15,145.918
3982.6,140.577
3984.05,166.178
3985.5,180.175
3986.95,156.278
3988.4,170.521
3989.85,178.495
3991.3,177.082
3992.75,184.696
3994.2,192.478
3995.65,156.302
3997.1,177.921
3998.55,172.785
4000,180.856
