0,32.765
1.45033,32.013
2.90065,31.2609
4.35098,30.5089
5.80131,29.7569
7.25163,29.0048
8.70196,60.3307
10.1523,37.8618
11.6026,31.8383
13.0529,26.1239
14.5033,22.748
15.9536,21.7486
17.4039,21.7789
18.8542,20.1023
20.3046,17.2896
21.7549,15.6937
23.2052,15.7666
24.6555,11.0999
26.1059,12.9806
27.5562,11.7419
29.0065,8.71502
30.4569,8.52906
31.9072,7.58114
33.3575,7.07439
34.8078,5.13581
36.2582,1.71584
37.7085,-0.604232
39.1588,2.50113
40.6091,4.5395
42.0595,4.50705
43.5098,2.2864
44.9601,-0.819541
46.4104,1.72663
47.8608,2.25606
49.3111,3.04454
50.7614,11.5216
52.2117,23.3338
53.6621,50.1243
55.1124,90.5462
56.5627,143.846
58.0131,211.648
59.4634,286.594
60.9137,338.322
62.364,393.823
63.8144,473.665
65.2647,488.64
66.715,508.449
68.1653,524.482
69.6157,540.156
71.066,565.293
72.5163,576.542
73.9666,581.431
75.417,581.01
76.8673,581.234
78.3176,598.593
79.7679,610.678
81.2183,610.219
82.6686,613.748
84.1189,632.326
85.5693,639.06
87.0196,657.308
88.4699,641.274
89.9202,609.249
91.3706,599.826
92.8209,572.851
94.2712,546.331
95.7215,528.742
97.1719,513.086
98.6222,476.428
100.073,479.484
101.523,468.907
102.973,459.096
104.423,457.909
105.874,455.577
107.324,453.067
108.774,444.207
110.225,437.435
111.675,436.792
113.125,409.958
114.576,416.358
116.026,415.201
117.476,406.103
118.927,401.411
120.377,400.659
121.827,394.295
123.278,386.629
124.728,376.419
126.178,358.453
127.629,349.362
129.079,338.409
130.529,330.308
131.98,328.386
133.43,334.762
134.88,318.822
136.331,310.716
137.781,303.69
139.231,296.643
140.682,311.348
142.132,313.378
143.582,305.898
145.033,291.66
146.483,276.156
147.933,277.784
149.384,278.39
150.834,280.254
152.284,289.598
153.735,309.783
155.185,308.038
156.635,287.721
158.086,268.906
159.536,253.536
160.986,237.174
162.437,243.573
163.887,244.504
165.337,237.952
166.788,229.58
168.238,230.731
169.688,240.13
171.139,241.235
172.589,236.902
174.039,226.781
175.489,207.309
176.94,212.619
178.39,207.466
179.84,201.947
181.291,202.942
182.741,212.94
184.191,203.149
185.642,204.519
187.092,202.49
188.542,193.81
189.993,198.045
191.443,186.055
192.893,189.426
194.344,193.13
195.794,185.708
197.244,168.208
198.695,188.417
200.145,186.768
201.595,181.259
203.046,182.416
204.496,165.103
205.946,170.766
207.397,175.327
208.847,176.201
210.297,173.385
211.748,167.242
213.198,157.068
214.648,163.511
216.099,172.355
217.549,171.621
218.999,166.872
220.45,151.53
221.9,154.662
223.35,166.639
224.801,172.872
226.251,157.52
227.701,162.463
229.152,166.523
230.602,166.418
232.052,161.486
233.503,151.716
234.953,159.649
236.403,158.205
237.854,154.931
239.304,156.134
240.754,156.184
242.204,151.011
243.655,154.08
245.105,156.772
246.555,153.927
248.006,151.571
249.456,148.456
250.906,139.129
252.357,134.132
253.807,137.883
255.257,142.756
256.708,135.841
258.158,133.216
259.608,135.214
261.059,136.396
262.509,124.387
263.959,138.086
265.41,135.407
266.86,133.499
268.31,132.167
269.761,112.877
271.211,131.442
272.661,126.709
274.112,116.682
275.562,110.726
277.012,110.94
278.463,110.188
279.913,112.489
281.363,113.77
282.814,112.923
284.264,111.375
285.714,120.095
287.165,113.035
288.615,110.096
290.065,108.615
291.516,101.038
292.966,96.857
294.416,91.9723
295.867,100.893
297.317,102.178
298.767,84.3734
300.218,94.7096
301.668,89.551
303.118,92.2282
304.569,93.07
306.019,87.0683
307.469,85.9123
308.919,81.2556
310.37,76.612
311.82,72.4158
313.27,70.3985
314.721,73.6817
316.171,76.367
317.621,71.9856
319.072,73.0032
320.522,74.3682
321.972,62.5848
323.423,57.5834
324.873,61.0134
326.323,64.3156
327.774,62.6524
329.224,55.6749
330.674,57.353
332.125,57.4049
333.575,60.8599
335.025,60.0862
336.476,54.7267
337.926,65.1212
339.376,59.6168
340.827,52.951
342.277,49.8938
343.727,52.6435
345.178,60.1618
346.628,41.9637
348.078,44.5041
349.529,46.565
350.979,44.053
352.429,41.6378
353.88,38.8556
355.33,36.9516
356.78,30.6761
358.231,29.254
359.681,37.2144
361.131,37.2751
362.582,39.8248
364.032,39.3446
365.482,41.0051
366.933,43.2246
368.383,36.3028
369.833,35.1435
371.284,32.2061
372.734,33.8744
374.184,35.5209
375.635,30.3608
377.085,32.4583
378.535,30.4353
379.986,30.5061
381.436,26.2059
382.886,17.453
384.336,22.6079
385.787,10.1763
387.237,15.6791
388.687,21.9812
390.138,21.1129
391.588,16.9069
393.038,33.8928
394.489,16.7294
395.939,14.2651
397.389,21.4033
398.84,20.6999
400.29,11.7861
401.74,16.0576
403.191,22.677
404.641,20.8385
406.091,11.8825
407.542,9.62078
408.992,5.39673
410.442,6.16813
411.893,11.4612
413.343,13.1316
414.793,5.50849
416.244,3.12129
417.694,6.20479
419.144,2.01255
420.595,-5.394
422.045,-8.81095
423.495,-1.10434
424.946,2.84926
426.396,1.64967
427.846,-2.4366
429.297,-3.45461
430.747,1.67566
432.197,-1.9061
433.648,-4.53256
435.098,-5.78025
436.548,-7.09314
437.999,-5.2245
439.449,5.74551
440.899,-6.85329
442.35,3.18061
443.8,7.69508
445.25,4.54631
446.701,-0.118126
448.151,-3.09024
449.601,-7.03975
451.051,4.55512
452.502,0.787993
453.952,-10.9578
455.402,2.15815
456.853,0.416307
458.303,10.7908
459.753,5.24484
461.204,1.02814
462.654,6.66308
464.104,-3.28024
465.555,0.937919
467.005,-0.9816
468.455,-2.81607
469.906,-0.992268
471.356,4.90865
472.806,9.7524
474.257,-6.1366
475.707,-3.8705
477.157,1.84193
478.608,2.48439
480.058,2.24788
481.508,0.0914864
482.959,1.09699
484.409,-0.516411
485.859,-1.18736
487.31,3.88037
488.76,16.5089
490.21,-6.66756
491.661,3.15621
493.111,7.31781
494.561,1.80307
496.012,0.0705963
497.462,9.87057
498.912,0.261436
500.363,-5.90331
501.813,-4.01364
503.263,0.806788
504.714,-0.803223
506.164,-1.108
507.614,-11.859
509.065,-3.93059
510.515,5.90244
511.965,5.44696
513.416,0.806004
514.866,4.43046
516.316,-4.27084
517.766,-3.72676
519.217,0.0442755
520.667,2.38961
522.117,17.4475
523.568,0.370606
525.018,-4.4866
526.468,3.52969
527.919,5.27754
529.369,-8.67916
530.819,2.82536
532.27,5.29543
533.72,1.00808
535.17,0.212266
536.621,0.804266
538.071,-2.01084
539.521,8.6626
540.972,1.66508
542.422,1.67186
543.872,5.3409
545.323,6.45967
546.773,2.19991
548.223,7.29049
549.674,6.51114
551.124,-2.92249
552.574,-8.14949
554.025,-4.15462
555.475,3.3489
556.925,4.28821
558.376,3.55705
559.826,-2.2527
561.276,-2.24322
562.727,4.52038
564.177,6.52629
565.627,1.79368
567.078,9.1527
568.528,8.59255
569.978,3.87516
571.429,3.20529
572.879,10.6716
574.329,1.18297
575.78,3.33713
577.23,1.84924
578.68,-0.752427
580.131,-1.59245
581.581,-1.80066
583.031,2.24753
584.482,0.29838
585.932,-1.54993
587.382,-1.24241
588.832,3.27901
590.283,11.6318
591.733,-8.93053
593.183,-6.7982
594.634,-2.90988
596.084,-1.49807
597.534,-3.27743
598.985,-6.80177
600.435,4.56274
601.885,1.82709
603.336,-6.43347
604.786,-6.35071
606.236,0.241712
607.687,-2.28577
609.137,-7.63066
610.587,-12.9762
612.038,-5.2721
613.488,0.478039
614.938,0.17746
616.389,2.83561
617.839,13.3851
619.289,-2.4649
620.74,-5.33991
622.19,-2.96422
623.64,0.154911
625.091,3.61533
626.541,-1.11664
627.991,-5.64377
629.442,2.47578
630.892,-1.6223
632.342,-7.84202
633.793,0.74203
635.243,1.46057
636.693,-1.14547
638.144,-0.599374
639.594,-0.523462
641.044,-0.400961
642.495,0.149305
643.945,-1.8117
645.395,3.9439
646.846,4.93592
648.296,10.8968
649.746,6.11049
651.197,-6.63515
652.647,2.46401
654.097,1.50405
655.547,-1.696
656.998,2.46062
658.448,0.262483
659.898,-5.61541
661.349,-0.135428
662.799,2.05734
664.249,6.83092
665.7,-5.21757
667.15,-9.70472
668.6,-9.0658
670.051,-12.6483
671.501,0.488922
672.951,7.10433
674.402,16.1217
675.852,20.4064
677.302,12.8191
678.753,2.93936
680.203,17.5841
681.653,14.9332
683.104,-0.165089
684.554,-2.86414
686.004,-0.150814
687.455,1.63384
688.905,2.17023
690.355,-2.37793
691.806,-2.70462
693.256,-4.44745
694.706,-3.59289
696.157,-0.714528
697.607,3.73405
699.057,14.2718
700.508,8.65668
701.958,9.49924
703.408,4.74413
704.859,1.18071
706.309,1.08501
707.759,-2.04728
709.21,-2.37841
710.66,7.15198
712.11,4.38187
713.561,-2.16289
715.011,-2.27067
716.461,3.97068
717.912,-2.06219
719.362,-2.32023
720.812,-1.32728
722.263,-1.3673
723.713,0.303565
725.163,3.21167
726.613,2.594
728.064,-2.11089
729.514,5.36409
730.964,1.61942
732.415,2.80896
733.865,8.21472
735.315,8.51044
736.766,1.7514
738.216,5.1015
739.666,-7.39172
741.117,-6.77303
742.567,-6.0235
744.017,-7.61857
745.468,-2.76322
746.918,-8.11998
748.368,-2.65812
749.819,-3.78405
751.269,2.18362
752.719,7.38599
754.17,3.7111
755.62,-4.1745
757.07,-13.7906
758.521,-0.304328
759.971,6.30618
761.421,4.4244
762.872,3.54212
764.322,6.08926
765.772,-6.2457
767.223,0.948776
768.673,2.21204
770.123,-2.29349
771.574,-8.38692
773.024,-8.11754
774.474,0.533009
775.925,-3.13631
777.375,-9.57622
778.825,-5.95858
780.276,-13.5067
781.726,-11.8222
783.176,-1.18091
784.627,-7.55224
786.077,-1.4093
787.527,-0.00518716
788.978,0.721491
790.428,-3.32821
791.878,-0.00476404
793.328,8.46067
794.779,-2.83954
796.229,-22.3227
797.68,-5.92045
799.13,-2.58211
800.58,-13.9982
802.03,-16.7536
803.481,-5.35942
804.931,-12.0442
806.381,-12.3023
807.832,-1.53882
809.282,-5.56928
810.732,-8.20633
812.183,-7.96835
813.633,-6.01607
815.083,8.01773
816.534,6.04693
817.984,7.38579
819.434,-1.11228
820.885,-5.39807
822.335,-3.50571
823.785,-3.76307
825.236,-11.6965
826.686,-5.73874
828.136,-5.61736
829.587,5.67511
831.037,9.96287
832.487,5.53133
833.938,2.64572
835.388,6.16411
836.838,1.1852
838.289,12.6821
839.739,-4.49744
841.189,-4.32541
842.64,5.28309
844.09,-1.1985
845.54,-10.3022
846.991,16.2926
848.441,4.20473
849.891,2.9214
851.342,-0.574671
852.792,-1.00877
854.242,4.95904
855.693,4.24024
857.143,13.4451
858.593,4.4504
860.044,8.77338
861.494,7.3228
862.944,8.29384
864.394,10.5345
865.845,-2.76769
867.295,1.28042
868.745,-3.54744
870.196,4.00425
871.646,0.362826
873.096,-2.2589
874.547,3.30115
875.997,3.45662
877.447,-20.082
878.898,-2.66181
880.348,1.95424
881.798,-10.9624
883.249,-19.2743
884.699,-12.0949
886.149,-0.99401
887.6,-9.22499
889.05,-5.37743
890.5,-3.6957
891.951,2.16018
893.401,-2.61039
894.851,-9.38089
896.302,-6.6693
897.752,-2.0471
899.202,-10.3
900.653,-1.2035
902.103,-1.68666
903.553,-8.92633
905.004,-11.0439
906.454,-3.44661
907.904,6.0542
909.355,5.3221
910.805,3.33118
912.255,5.90022
913.706,5.66501
915.156,5.70599
916.606,2.0355
918.057,-2.04643
919.507,9.52441
920.957,-5.47943
922.408,-5.20752
923.858,10.7241
925.308,17.2591
926.759,8.3541
928.209,-1.83004
929.659,4.02237
931.109,17.8365
932.56,12.5842
934.01,9.0598
935.46,2.74766
936.911,5.88712
938.361,12.0594
939.811,4.77239
941.262,-14.9811
942.712,11.2514
944.162,0.0385185
945.613,-13.2422
947.063,-11.5362
948.513,-3.35676
949.964,-3.71924
951.414,-10.5441
952.864,3.34511
954.315,-4.08753
955.765,6.60592
957.215,1.50517
958.666,3.20971
960.116,4.56829
961.566,-0.128178
963.017,-0.441016
964.467,2.25405
965.917,14.4194
967.368,8.00852
968.818,-0.583694
970.268,-4.98597
971.719,-8.59782
973.169,-10.4892
974.619,-2.63211
976.07,4.23229
977.52,0.486631
978.97,3.68566
980.421,10.3538
981.871,14.2215
983.321,8.33235
984.772,-1.93718
986.222,-1.07709
987.672,-12.6958
989.123,8.11717
990.573,-1.37934
992.023,-1.63637
993.474,2.37214
994.924,6.63133
996.374,14.7101
997.825,21.8417
999.275,1.4574
1000.73,8.61094
1002.18,4.28312
1003.63,3.02112
1005.08,2.37446
1006.53,7.14689
1007.98,17.2849
1009.43,15.3389
1010.88,9.38558
1012.33,15.1152
1013.78,19.8798
1015.23,14.8545
1016.68,19.0712
1018.13,27.4603
1019.58,28.1374
1021.03,26.9358
1022.48,7.04103
1023.93,19.5069
1025.38,21.1741
1026.83,27.334
1028.28,25.2028
1029.73,15.9024
1031.18,19.1094
1032.63,43.0467
1034.08,34.2117
1035.53,17.6988
1036.98,30.7447
1038.43,29.2007
1039.88,32.5123
1041.33,34.5987
1042.78,32.6107
1044.23,39.8771
1045.69,45.7694
1047.14,17.7963
1048.59,36.4801
1050.04,55.6943
1051.49,39.409
1052.94,35.002
1054.39,48.6492
1055.84,51.8092
1057.29,63.8493
1058.74,40.0259
1060.19,38.4285
1061.64,56.0874
1063.09,55.4539
1064.54,56.5956
1065.99,62.0932
1067.44,57.9437
1068.89,49.5204
1070.34,75.3864
1071.79,66.3058
1073.24,77.2132
1074.69,74.1569
1076.14,69.5056
1077.59,69.1795
1079.04,73.5889
1080.49,79.2495
1081.94,75.9986
1083.39,62.9317
1084.84,88.1397
1086.29,92.0846
1087.74,97.2757
1089.2,80.3285
1090.65,70.062
1092.1,83.0803
1093.55,82.3025
1095,71.4957
1096.45,81.4117
1097.9,90.2971
1099.35,86.3165
1100.8,89.7758
1102.25,92.4748
1103.7,81.7643
1105.15,71.3064
1106.6,86.088
1108.05,73.9076
1109.5,78.3065
1110.95,78.7101
1112.4,69.432
1113.85,68.7103
1115.3,71.1218
1116.75,72.8877
1118.2,77.4765
1119.65,79.6219
1121.1,78.7431
1122.55,82.9216
1124,83.7758
1125.45,72.7714
1126.9,63.1191
1128.35,61.5659
1129.8,61.303
1131.25,57.9684
1132.7,62.125
1134.16,53.8642
1135.61,46.7192
1137.06,49.7144
1138.51,58.4785
1139.96,57.2036
1141.41,60.505
1142.86,68.6566
1144.31,63.1935
1145.76,50.7992
1147.21,57.6259
1148.66,38.6575
1150.11,60.5844
1151.56,65.9344
1153.01,67.2786
1154.46,66.4369
1155.91,59.6008
1157.36,51.9987
1158.81,50.7822
1160.26,40.7249
1161.71,71.6956
1163.16,57.7786
1164.61,50.0153
1166.06,57.013
1167.51,59.7606
1168.96,56.0573
1170.41,57.0356
1171.86,59.4159
1173.31,48.6576
1174.76,59.3337
1176.21,57.7435
1177.66,51.2143
1179.12,64.1025
1180.57,60.4828
1182.02,52.8507
1183.47,61.8682
1184.92,71.2457
1186.37,70.3827
1187.82,68.3348
1189.27,66.7356
1190.72,64.3457
1192.17,63.2184
1193.62,63.3821
1195.07,62.4766
1196.52,64.649
1197.97,64.6733
1199.42,51.378
1200.87,67.3634
1202.32,68.6741
1203.77,63.1794
1205.22,67.9608
1206.67,58.6366
1208.12,61.5396
1209.57,78.9443
1211.02,79.2579
1212.47,58.6039
1213.92,70.3326
1215.37,74.5108
1216.82,76.9465
1218.27,61.9102
1219.72,85.7837
1221.17,100.167
1222.63,86.6515
1224.08,71.945
1225.53,74.9474
1226.98,80.7085
1228.43,81.0034
1229.88,89.7763
1231.33,83.2224
1232.78,87.5926
1234.23,88.9318
1235.68,95.0525
1237.13,81.157
1238.58,74.416
1240.03,90.8564
1241.48,91.7099
1242.93,84.3927
1244.38,83.0494
1245.83,85.2687
1247.28,94.5939
1248.73,103.451
1250.18,112.442
1251.63,110.039
1253.08,104.078
1254.53,107.159
1255.98,116.363
1257.43,124.678
1258.88,118.832
1260.33,114.739
1261.78,123.726
1263.23,130.916
1264.68,132.659
1266.13,126.743
1267.59,127.941
1269.04,139.001
1270.49,148.36
1271.94,158.249
1273.39,159.719
1274.84,153.126
1276.29,156.487
1277.74,159.721
1279.19,173.966
1280.64,174.253
1282.09,183.675
1283.54,203.879
1284.99,212.923
1286.44,218.144
1287.89,231.453
1289.34,230.712
1290.79,249.696
1292.24,241.415
1293.69,257.508
1295.14,272.938
1296.59,271.937
1298.04,282.424
1299.49,315.876
1300.94,337.829
1302.39,334.968
1303.84,377.99
1305.29,384.534
1306.74,407.493
1308.19,439.003
1309.64,458.465
1311.09,469.509
1312.55,490.664
1314,535.498
1315.45,587.472
1316.9,618.753
1318.35,638.463
1319.8,670.003
1321.25,679.286
1322.7,775.518
1324.15,789.909
1325.6,836.18
1327.05,877.266
1328.5,911.544
1329.95,941.034
1331.4,971.781
1332.85,1004.84
1334.3,1012.05
1335.75,1049.72
1337.2,1042.41
1338.65,1020.81
1340.1,1021.4
1341.55,987.377
1343,993.856
1344.45,981.01
1345.9,936.003
1347.35,912.607
1348.8,910.098
1350.25,865.799
1351.7,806.524
1353.15,764.579
1354.6,709.361
1356.06,693.335
1357.51,645.459
1358.96,598.312
1360.41,568.796
1361.86,544.95
1363.31,517.049
1364.76,474.374
1366.21,425.322
1367.66,424.526
1369.11,401.408
1370.56,398.405
1372.01,354.575
1373.46,347.604
1374.91,322.674
1376.36,301.724
1377.81,295.716
1379.26,288.044
1380.71,271.134
1382.16,264.277
1383.61,272.793
1385.06,255.111
1386.51,250.292
1387.96,245.914
1389.41,232.341
1390.86,233.775
1392.31,225.065
1393.76,223.758
1395.21,217.449
1396.66,212.06
1398.11,208.791
1399.56,197.224
1401.02,190.339
1402.47,198.967
1403.92,204.337
1405.37,207.753
1406.82,194.997
1408.27,193.114
1409.72,192.313
1411.17,187.508
1412.62,170.785
1414.07,171.849
1415.52,186.324
1416.97,188.475
1418.42,190.715
1419.87,198.218
1421.32,201.45
1422.77,185.778
1424.22,174.703
1425.67,183.618
1427.12,181.446
1428.57,185.122
1430.02,181.208
1431.47,188.531
1432.92,196.942
1434.37,202.287
1435.82,211.261
1437.27,201.972
1438.72,200.763
1440.17,165.824
1441.62,200.848
1443.07,205.474
1444.53,202.781
1445.98,201.158
1447.43,219.723
1448.88,234.814
1450.33,226.379
1451.78,221.432
1453.23,228.05
1454.68,225.467
1456.13,232.719
1457.58,250.534
1459.03,237.488
1460.48,243.469
1461.93,258.315
1463.38,241.842
1464.83,250.187
1466.28,264.046
1467.73,259.859
1469.18,257.498
1470.63,265.438
1472.08,270.007
1473.53,277.975
1474.98,300.304
1476.43,301.057
1477.88,308.028
1479.33,337.886
1480.78,305.391
1482.23,341.538
1483.68,352.732
1485.13,356.838
1486.58,359.474
1488.03,348.42
1489.49,360.505
1490.94,389.016
1492.39,404.359
1493.84,413.354
1495.29,424.919
1496.74,453.351
1498.19,452.292
1499.64,477.776
1501.09,467.301
1502.54,490.995
1503.99,513.267
1505.44,541.553
1506.89,554.24
1508.34,579.859
1509.79,613.263
1511.24,647.22
1512.69,679.771
1514.14,705.852
1515.59,742.2
1517.04,793.033
1518.49,835.159
1519.94,914.831
1521.39,917.369
1522.84,992.36
1524.29,1038.09
1525.74,1135.81
1527.19,1221.97
1528.64,1308.14
1530.09,1425.18
1531.54,1545.83
1532.99,1657.34
1534.45,1809.06
1535.9,1978.08
1537.35,2095.24
1538.8,2347.43
1540.25,2590.24
1541.7,2771
1543.15,3052.46
1544.6,3315.72
1546.05,3631.55
1547.5,3917.01
1548.95,4252.83
1550.4,4605.99
1551.85,4923.31
1553.3,5284.42
1554.75,5688.73
1556.2,6063.17
1557.65,6428.85
1559.1,6798.84
1560.55,7145.44
1562,7502.95
1563.45,7737.09
1564.9,7988.51
1566.35,8115.54
1567.8,8747.67
1569.25,8113.82
1570.7,8033.6
1572.15,7814.98
1573.6,7561.02
1575.05,7219.94
1576.5,6770.34
1577.96,6315.41
1579.41,5888.06
1580.86,5445.48
1582.31,5031.52
1583.76,4603.78
1585.21,4205.09
1586.66,3840
1588.11,3514.39
1589.56,3237.5
1591.01,2938.42
1592.46,2708.87
1593.91,2519.32
1595.36,2351.36
1596.81,2183.42
1598.26,2048.49
1599.71,1922.17
1601.16,1810.48
1602.61,1708.74
1604.06,1606.24
1605.51,1530.45
1606.96,1461.27
1608.41,1385.61
1609.86,1308.17
1611.31,1240.44
1612.76,1158.43
1614.21,1069.96
1615.66,1029.55
1617.11,938.607
1618.56,874.601
1620.01,826.083
1621.46,767.794
1622.92,707.12
1624.37,675.129
1625.82,630.853
1627.27,598.99
1628.72,566.404
1630.17,530.161
1631.62,499.969
1633.07,493.171
1634.52,461.956
1635.97,445.632
1637.42,433.789
1638.87,416.058
1640.32,397.371
1641.77,388.526
1643.22,373.631
1644.67,354.191
1646.12,337.751
1647.57,324.729
1649.02,316.631
1650.47,316.559
1651.92,299.253
1653.37,290.061
1654.82,271.027
1656.27,280.731
1657.72,268.184
1659.17,248.335
1660.62,256.847
1662.07,248.619
1663.52,230.825
1664.97,227.257
1666.42,228.152
1667.88,221.163
1669.33,207.393
1670.78,210.937
1672.23,213.964
1673.68,204.298
1675.13,201.101
1676.58,188.244
1678.03,176.324
1679.48,180.182
1680.93,177.295
1682.38,166.396
1683.83,182.075
1685.28,162.6
1686.73,157.473
1688.18,151.896
1689.63,161.883
1691.08,156.893
1692.53,154.367
1693.98,158.541
1695.43,149.208
1696.88,135.008
1698.33,143.383
1699.78,146.082
1701.23,134.723
1702.68,130.414
1704.13,133.294
1705.58,125.686
1707.03,133.644
1708.48,140.181
1709.93,129.846
1711.39,121.012
1712.84,133.253
1714.29,114.889
1715.74,125.148
1717.19,122.472
1718.64,128.996
1720.09,125.649
1721.54,117.62
1722.99,124.585
1724.44,132.084
1725.89,130.321
1727.34,128.366
1728.79,122.421
1730.24,114.261
1731.69,115.7
1733.14,110.448
1734.59,116.27
1736.04,127.525
1737.49,111.027
1738.94,117.902
1740.39,133.821
1741.84,117.522
1743.29,97.0444
1744.74,75.4576
1746.19,78.7501
1747.64,78.9761
1749.09,96.2633
1750.54,103.131
1751.99,105.296
1753.44,106.369
1754.89,102.856
1756.35,97.3483
1757.8,101.404
1759.25,98.0091
1760.7,74.4837
1762.15,73.3675
1763.6,80.2763
1765.05,83.0077
1766.5,70.0193
1767.95,86.6098
1769.4,78.1345
1770.85,78.5655
1772.3,77.5894
1773.75,68.2199
1775.2,73.5306
1776.65,73.4127
1778.1,81.8734
1779.55,57.1729
1781,65.0267
1782.45,62.6591
1783.9,82.9281
1785.35,87.5531
1786.8,74.7093
1788.25,69.2299
1789.7,68.1442
1791.15,67.3228
1792.6,66.5402
1794.05,66.1405
1795.5,65.213
1796.95,64.1187
1798.4,73.3299
1799.85,55.287
1801.31,49.6272
1802.76,55.6497
1804.21,56.8523
1805.66,44.1738
1807.11,58.5586
1808.56,52.045
1810.01,37.6382
1811.46,58.6907
1812.91,65.3877
1814.36,56.2367
1815.81,41.4095
1817.26,46.9742
1818.71,58.0078
1820.16,54.3669
1821.61,45.8993
1823.06,38.3471
1824.51,35.1799
1825.96,34.5632
1827.41,38.8043
1828.86,50.6875
1830.31,57.0757
1831.76,52.3301
1833.21,47.6417
1834.66,44.0833
1836.11,31.6323
1837.56,55.1646
1839.01,58.7919
1840.46,62.3182
1841.91,53.7136
1843.36,34.9842
1844.82,56.5755
1846.27,70.0637
1847.72,73.6844
1849.17,60.4996
1850.62,64.9972
1852.07,54.5223
1853.52,54.3319
1854.97,41.9028
1856.42,47.0614
1857.87,74.7128
1859.32,76.132
1860.77,65.0536
1862.22,57.4506
1863.67,61.2329
1865.12,60.4284
1866.57,61.3616
1868.02,57.4471
1869.47,57.6988
1870.92,71.7864
1872.37,72.3615
1873.82,68.2845
1875.27,60.8154
1876.72,56.4356
1878.17,46.4417
1879.62,52.6493
1881.07,50.9929
1882.52,49.041
1883.97,12.7109
1885.42,56.8256
1886.87,46.9362
1888.32,52.5997
1889.78,32.1957
1891.23,34.6078
1892.68,40.5873
1894.13,40.4163
1895.58,50.4049
1897.03,30.2295
1898.48,34.5546
1899.93,25.3746
1901.38,42.8365
1902.83,34.2833
1904.28,27.3532
1905.73,24.0756
1907.18,21.6574
1908.63,15.3785
1910.08,8.23242
1911.53,28.2179
1912.98,26.0334
1914.43,12.5969
1915.88,21.855
1917.33,24.0357
1918.78,22.1264
1920.23,30.6308
1921.68,30.5414
1923.13,24.6422
1924.58,26.2384
1926.03,26.3156
1927.48,20.8279
1928.93,27.4867
1930.38,28.5861
1931.83,16.5122
1933.29,27.8375
1934.74,16.76
1936.19,25.7445
1937.64,9.05965
1939.09,7.41774
1940.54,1.66828
1941.99,10.594
1943.44,13.6212
1944.89,6.21202
1946.34,14.8277
1947.79,8.29868
1949.24,5.82391
1950.69,10.872
1952.14,17.9406
1953.59,9.17078
1955.04,28.219
1956.49,18.6898
1957.94,23.8877
1959.39,13.9524
1960.84,24.9674
1962.29,19.3893
1963.74,13.815
1965.19,9.69598
1966.64,20.964
1968.09,31.305
1969.54,12.6649
1970.99,4.75299
1972.44,11.6363
1973.89,23.4743
1975.34,29.5395
1976.79,32.5774
1978.25,30.9412
1979.7,33.8276
1981.15,40.553
1982.6,34.1824
1984.05,28.5083
1985.5,29.6064
1986.95,23.778
1988.4,29.0675
1989.85,34.6947
1991.3,22.2254
1992.75,34.4861
1994.2,33.8297
1995.65,21.8622
1997.1,26.1537
1998.55,34.2478
2000,28.0855
2001.45,27.3233
2002.9,27.0115
2004.35,17.3749
2005.8,26.9728
2007.25,25.201
2008.7,20.9459
2010.15,32.5828
2011.6,38.3335
2013.05,28.6268
2014.5,33.5873
2015.95,33.9932
2017.4,18.5225
2018.85,17.0949
2020.3,7.66006
2021.75,37.5035
2023.21,27.1072
2024.66,12.1663
2026.11,38.2523
2027.56,11.2116
2029.01,12.5686
2030.46,4.28014
2031.91,27.2092
2033.36,11.0678
2034.81,20.5616
2036.26,13.2347
2037.71,0.610565
2039.16,13.1279
2040.61,8.47054
2042.06,10.5803
2043.51,4.45204
2044.96,10.2985
2046.41,-4.74503
2047.86,8.63065
2049.31,5.17761
2050.76,-1.49588
2052.21,11.5675
2053.66,-17.3018
2055.11,-3.4351
2056.56,-5.63991
2058.01,-1.81787
2059.46,1.40697
2060.91,-1.06834
2062.36,-3.06781
2063.81,-6.24485
2065.26,5.72253
2066.72,-4.36099
2068.17,-12.3848
2069.62,1.69844
2071.07,7.61649
2072.52,6.07164
2073.97,0.513092
2075.42,-0.977882
2076.87,-10.8151
2078.32,-13.1038
2079.77,-9.61961
2081.22,-3.86147
2082.67,3.96318
2084.12,-1.91082
2085.57,-15.4651
2087.02,-10.0944
2088.47,-3.22136
2089.92,-4.24646
2091.37,-3.33318
2092.82,-11.7843
2094.27,-3.55063
2095.72,12.135
2097.17,-2.42597
2098.62,-14.3528
2100.07,-9.48417
2101.52,-7.75586
2102.97,-15.9612
2104.42,-18.1834
2105.87,-5.01027
2107.32,-5.01952
2108.77,-13.996
2110.22,-14.3254
2111.68,-11.4367
2113.13,-7.03686
2114.58,-0.584749
2116.03,-7.47137
2117.48,-12.4741
2118.93,-5.0019
2120.38,5.81116
2121.83,-1.78465
2123.28,-5.75065
2124.73,-10.4272
2126.18,-11.1379
2127.63,-3.74761
2129.08,-6.09282
2130.53,-8.47314
2131.98,-15.3447
2133.43,-16.8717
2134.88,-9.2063
2136.33,-6.00483
2137.78,-4.70541
2139.23,1.8183
2140.68,5.00485
2142.13,4.52613
2143.58,5.83139
2145.03,4.48171
2146.48,4.31419
2147.93,4.33206
2149.38,3.76708
2150.83,7.99391
2152.28,7.24503
2153.73,1.63225
2155.18,-6.79004
2156.64,0.953036
2158.09,-0.529852
2159.54,1.75239
2160.99,2.845
2162.44,8.40273
2163.89,10.3659
2165.34,1.46191
2166.79,-1.88071
2168.24,16.8232
2169.69,16.1388
2171.14,16.2435
2172.59,8.58482
2174.04,6.7161
2175.49,2.45997
2176.94,9.81653
2178.39,18.6452
2179.84,10.3619
2181.29,15.0992
2182.74,9.16749
2184.19,10.0248
2185.64,8.68179
2187.09,5.42272
2188.54,8.85022
2189.99,10.7349
2191.44,16.1362
2192.89,9.14915
2194.34,22.6147
2195.79,30.3021
2197.24,31.4587
2198.69,28.912
2200.15,22.5848
2201.6,27.7556
2203.05,26.4218
2204.5,21.1939
2205.95,38.7993
2207.4,36.0477
2208.85,43.2425
2210.3,30.4547
2211.75,35.4799
2213.2,35.6865
2214.65,19.1806
2216.1,20.0605
2217.55,12.3298
2219,27.7368
2220.45,14.9309
2221.9,44.6718
2223.35,15.3937
2224.8,53.162
2226.25,47.76
2227.7,34.029
2229.15,36.1575
2230.6,47.8881
2232.05,33.4354
2233.5,48.6489
2234.95,34.8483
2236.4,64.0247
2237.85,49.4919
2239.3,55.9742
2240.75,37.6413
2242.2,28.0368
2243.65,34.5683
2245.11,29.3585
2246.56,50.3609
2248.01,39.2965
2249.46,49.393
2250.91,44.7639
2252.36,47.3418
2253.81,50.9507
2255.26,47.5056
2256.71,52.0102
2258.16,37.2476
2259.61,35.2964
2261.06,36.5488
2262.51,47.235
2263.96,41.9523
2265.41,41.8411
2266.86,56.944
2268.31,54.4702
2269.76,40.5645
2271.21,48.3369
2272.66,48.4403
2274.11,44.487
2275.56,38.3802
2277.01,43.9755
2278.46,58.7549
2279.91,61.3406
2281.36,62.4415
2282.81,55.5002
2284.26,47.7033
2285.71,48.3175
2287.16,48.186
2288.61,49.9089
2290.07,57.4295
2291.52,68.2081
2292.97,62.4096
2294.42,69.5452
2295.87,70.7702
2297.32,69.8301
2298.77,56.613
2300.22,62.0269
2301.67,52.462
2303.12,70.2074
2304.57,83.6775
2306.02,71.3331
2307.47,65.0675
2308.92,69.9771
2310.37,57.4127
2311.82,83.061
2313.27,89.7412
2314.72,50.9137
2316.17,72.0583
2317.62,76.7519
2319.07,83.9681
2320.52,91.307
2321.97,79.2159
2323.42,82.4991
2324.87,83.3674
2326.32,83.6442
2327.77,86.04
2329.22,90.435
2330.67,92.1066
2332.12,76.5557
2333.57,75.4779
2335.03,88.927
2336.48,92.7881
2337.93,96.0948
2339.38,101.85
2340.83,101.758
2342.28,97.7089
2343.73,89.1463
2345.18,96.7228
2346.63,114.623
2348.08,119.049
2349.53,123.923
2350.98,126.365
2352.43,129.532
2353.88,141.84
2355.33,133.491
2356.78,125.263
2358.23,118.197
2359.68,140.453
2361.13,141.398
2362.58,151.354
2364.03,151.643
2365.48,159.625
2366.93,169.189
2368.38,134.19
2369.83,139.736
2371.28,172.022
2372.73,160.077
2374.18,192.444
2375.63,184.049
2377.08,194.643
2378.54,183.768
2379.99,192.635
2381.44,192.031
2382.89,199.197
2384.34,223.059
2385.79,233.63
2387.24,219.133
2388.69,236.415
2390.14,253.267
2391.59,254.663
2393.04,261.503
2394.49,267.331
2395.94,281.943
2397.39,292.577
2398.84,328.599
2400.29,324.518
2401.74,317.013
2403.19,338.755
2404.64,354.107
2406.09,331.494
2407.54,369.917
2408.99,375.1
2410.44,387.836
2411.89,403.698
2413.34,414.323
2414.79,393.926
2416.24,412.531
2417.69,426.325
2419.14,441.655
2420.59,460.406
2422.04,471.812
2423.5,458.463
2424.95,473.04
2426.4,484.97
2427.85,484.533
2429.3,478.772
2430.75,474.08
2432.2,459.612
2433.65,454.643
2435.1,475.815
2436.55,480.447
2438,469.268
2439.45,457.598
2440.9,453.474
2442.35,477.248
2443.8,479.104
2445.25,433.846
2446.7,442.329
2448.15,451.963
2449.6,439.341
2451.05,441.671
2452.5,450.231
2453.95,441.659
2455.4,430.406
2456.85,414.793
2458.3,419.638
2459.75,407.22
2461.2,402.014
2462.65,407.069
2464.1,399.876
2465.55,397.886
2467.01,395.675
2468.46,392.948
2469.91,390.685
2471.36,383.563
2472.81,376.766
2474.26,390.172
2475.71,365.298
2477.16,353.548
2478.61,362.821
2480.06,360.112
2481.51,374.911
2482.96,365.654
2484.41,359.246
2485.86,348.643
2487.31,337.406
2488.76,363.468
2490.21,380.834
2491.66,369.505
2493.11,361.315
2494.56,363.671
2496.01,353.629
2497.46,359.711
2498.91,361.976
2500.36,374.762
2501.81,354.223
2503.26,367.347
2504.71,370.394
2506.16,362.203
2507.61,373.817
2509.06,379.025
2510.51,363.252
2511.97,368.65
2513.42,380.675
2514.87,366.608
2516.32,362.749
2517.77,389.445
2519.22,383.071
2520.67,381.583
2522.12,393.947
2523.57,373.71
2525.02,391.581
2526.47,416.834
2527.92,419.766
2529.37,423.676
2530.82,445.097
2532.27,437.251
2533.72,461.013
2535.17,443.887
2536.62,454.829
2538.07,450.064
2539.52,467.956
2540.97,479.547
2542.42,478.739
2543.87,499.485
2545.32,489.999
2546.77,504.643
2548.22,512.4
2549.67,528.812
2551.12,539.857
2552.57,535.403
2554.02,555.913
2555.48,574.337
2556.93,600.914
2558.38,622.509
2559.83,608.985
2561.28,609.286
2562.73,653.068
2564.18,678.262
2565.63,678.525
2567.08,714.803
2568.53,690.369
2569.98,746.739
2571.43,767.887
2572.88,789.815
2574.33,833.632
2575.78,857.875
2577.23,883.389
2578.68,901.074
2580.13,907.489
2581.58,943.534
2583.03,979.176
2584.48,1041.91
2585.93,1065.07
2587.38,1099.17
2588.83,1143.84
2590.28,1154.19
2591.73,1235.51
2593.18,1285.21
2594.63,1297.82
2596.08,1345.74
2597.53,1404.84
2598.98,1461.44
2600.44,1519.97
2601.89,1572.06
2603.34,1647.53
2604.79,1716.82
2606.24,1783.95
2607.69,1873.67
2609.14,1966.48
2610.59,2030.46
2612.04,2126.71
2613.49,2156.57
2614.94,2269.71
2616.39,2416.23
2617.84,2491.93
2619.29,2600.26
2620.74,2690.28
2622.19,2821.98
2623.64,2987.64
2625.09,3077.25
2626.54,3177.71
2627.99,3349.37
2629.44,3459.07
2630.89,3607.57
2632.34,3779.61
2633.79,3828.12
2635.24,3991.22
2636.69,4191
2638.14,4306.64
2639.59,4472.43
2641.04,4616.79
2642.49,4739.18
2643.94,4854.04
2645.4,4967.12
2646.85,5100.38
2648.3,5226.51
2649.75,5323.7
2651.2,5470.45
2652.65,5605.76
2654.1,5688.18
2655.55,5696.49
2657,5755.26
2658.45,5781.83
2659.9,5836.63
2661.35,5875.59
2662.8,5885.35
2664.25,5815.34
2665.7,5784.19
2667.15,5775.45
2668.6,5752.29
2670.05,5646.27
2671.5,5603.8
2672.95,5494.68
2674.4,5429.82
2675.85,5337.3
2677.3,5210.59
2678.75,5002.94
2680.2,4820.06
2681.65,4726.33
2683.1,4584.96
2684.55,4434.53
2686,4292.25
2687.45,4130.19
2688.91,3952.88
2690.36,3828.92
2691.81,3688.79
2693.26,3503.45
2694.71,3432.96
2696.16,3251.39
2697.61,3142.48
2699.06,2993.81
2700.51,2872.18
2701.96,2732.56
2703.41,2615.59
2704.86,2476.91
2706.31,2342.36
2707.76,2259.58
2709.21,2129.35
2710.66,2047.64
2712.11,1932.57
2713.56,1851.93
2715.01,1734.11
2716.46,1675.98
2717.91,1607.74
2719.36,1547.1
2720.81,1461.01
2722.26,1393.32
2723.71,1353.55
2725.16,1291.21
2726.61,1222.09
2728.06,1155.77
2729.51,1133.27
2730.96,1096.04
2732.41,1045.59
2733.87,1010.53
2735.32,957.515
2736.77,893.84
2738.22,895.703
2739.67,848.693
2741.12,817.655
2742.57,781.201
2744.02,765.997
2745.47,756.591
2746.92,701.06
2748.37,700.71
2749.82,670.493
2751.27,658.199
2752.72,616.679
2754.17,608.267
2755.62,580.776
2757.07,565.945
2758.52,574.654
2759.97,558.798
2761.42,539.682
2762.87,508.473
2764.32,516.144
2765.77,495.547
2767.22,497.438
2768.67,422.964
2770.12,446.868
2771.57,431.297
2773.02,412.264
2774.47,416.875
2775.92,405.444
2777.38,404.25
2778.83,405.952
2780.28,384.958
2781.73,381.686
2783.18,392.216
2784.63,347.614
2786.08,360.423
2787.53,357
2788.98,320.606
2790.43,314.297
2791.88,331.731
2793.33,316.689
2794.78,314.422
2796.23,302.822
2797.68,297.203
2799.13,309.178
2800.58,299.667
2802.03,274.78
2803.48,291.93
2804.93,273.041
2806.38,261.988
2807.83,270.969
2809.28,262.498
2810.73,252.668
2812.18,260.885
2813.63,244.714
2815.08,253.364
2816.53,251.622
2817.98,241.457
2819.43,222.794
2820.88,233.208
2822.33,230.94
2823.79,218.612
2825.24,216.84
2826.69,233.781
2828.14,238.226
2829.59,219.229
2831.04,226.317
2832.49,213.768
2833.94,201.652
2835.39,195.871
2836.84,203.58
2838.29,209.499
2839.74,206.225
2841.19,177.353
2842.64,193.769
2844.09,186.319
2845.54,190.994
2846.99,183.266
2848.44,190.763
2849.89,178.6
2851.34,172.259
2852.79,188.931
2854.24,205.543
2855.69,193.151
2857.14,186.279
2858.59,205.721
2860.04,188.189
2861.49,186.999
2862.94,174.063
2864.39,177.352
2865.84,179.84
2867.3,180.259
2868.75,175.536
2870.2,184.972
2871.65,195.493
2873.1,184.515
2874.55,205.007
2876,191.042
2877.45,170.849
2878.9,184.612
2880.35,186.232
2881.8,178.997
2883.25,194.934
2884.7,198.531
2886.15,198.187
2887.6,205.598
2889.05,196.233
2890.5,201.408
2891.95,198.191
2893.4,191.142
2894.85,197.569
2896.3,205.423
2897.75,202.73
2899.2,196.162
2900.65,197.593
2902.1,196.863
2903.55,200.809
2905,199.396
2906.45,204.933
2907.9,194.845
2909.35,187.461
2910.8,180.894
2912.26,192.477
2913.71,179.878
2915.16,180.813
2916.61,182.484
2918.06,184.898
2919.51,185.088
2920.96,180.533
2922.41,186.247
2923.86,185.315
2925.31,177.931
2926.76,158.053
2928.21,164.9
2929.66,162.76
2931.11,167.128
2932.56,160.541
2934.01,135.811
2935.46,152.426
2936.91,139.439
2938.36,132.098
2939.81,133.855
2941.26,138.591
2942.71,125.305
2944.16,131.793
2945.61,123.439
2947.06,123.889
2948.51,109.457
2949.96,100.284
2951.41,101.85
2952.86,99.7171
2954.31,108.578
2955.77,98.0511
2957.22,105.298
2958.67,87.3104
2960.12,96.4471
2961.57,79.971
2963.02,82.6776
2964.47,83.9978
2965.92,75.4615
2967.37,61.8852
2968.82,61.0054
2970.27,78.1727
2971.72,74.4819
2973.17,67.0312
2974.62,61.0136
2976.07,51.5679
2977.52,45.3146
2978.97,41.1791
2980.42,39.07
2981.87,29.3681
2983.32,33.1253
2984.77,48.3787
2986.22,34.1952
2987.67,23.1488
2989.12,32.4071
2990.57,35.0888
2992.02,29.7348
2993.47,18.3132
2994.92,23.1323
2996.37,37.8704
2997.82,15.7236
2999.27,15.8081
3000.73,48.8734
3002.18,35.6973
3003.63,24.9372
3005.08,36.0806
3006.53,28.5949
3007.98,15.6048
3009.43,13.6973
3010.88,16.4335
3012.33,2.78019
3013.78,10.9247
3015.23,17.1115
3016.68,7.45708
3018.13,8.53107
3019.58,5.21111
3021.03,6.67819
3022.48,5.88954
3023.93,-3.23948
3025.38,1.05692
3026.83,17.1147
3028.28,-3.41156
3029.73,0.270459
3031.18,7.72874
3032.63,19.6082
3034.08,2.56837
3035.53,4.1731
3036.98,-7.59735
3038.43,-2.9509
3039.88,6.25241
3041.33,3.2891
3042.78,-5.0642
3044.23,1.00222
3045.69,10.3985
3047.14,-9.47019
3048.59,3.42208
3050.04,7.19891
3051.49,7.13584
3052.94,-6.21148
3054.39,13.5048
3055.84,4.90687
3057.29,-1.45505
3058.74,0.876517
3060.19,7.28849
3061.64,1.25668
3063.09,8.2664
3064.54,15.7671
3065.99,13.3359
3067.44,22.4686
3068.89,12.853
3070.34,27.0422
3071.79,27.8732
3073.24,26.822
3074.69,3.72203
3076.14,19.5582
3077.59,31.4779
3079.04,25.812
3080.49,16.628
3081.94,28.8839
3083.39,38.6501
3084.84,25.5914
3086.29,30.0063
3087.74,18.5625
3089.2,26.6645
3090.65,38.2759
3092.1,28.3636
3093.55,43.9159
3095,67.2953
3096.45,46.9229
3097.9,62.4862
3099.35,65.1884
3100.8,58.8241
3102.25,56.0558
3103.7,68.9536
3105.15,85.9607
3106.6,75.3405
3108.05,80.9681
3109.5,84.3353
3110.95,101.022
3112.4,107.518
3113.85,100.587
3115.3,83.9991
3116.75,122.334
3118.2,125.272
3119.65,118.66
3121.1,126.173
3122.55,121.928
3124,124.763
3125.45,148.769
3126.9,172.225
3128.35,157.775
3129.8,163.325
3131.25,148.057
3132.7,159.515
3134.16,179.41
3135.61,181.437
3137.06,194.709
3138.51,191.494
3139.96,163.581
3141.41,172.508
3142.86,183.693
3144.31,190.784
3145.76,184.694
3147.21,190.807
3148.66,211.4
3150.11,207.563
3151.56,199.473
3153.01,199.192
3154.46,192.524
3155.91,205.342
3157.36,196.342
3158.81,208.228
3160.26,211.285
3161.71,228.299
3163.16,216.338
3164.61,214.411
3166.06,224.89
3167.51,196.068
3168.96,230.751
3170.41,228.645
3171.86,225.366
3173.31,210.816
3174.76,217.309
3176.21,229.26
3177.67,235.562
3179.12,239.069
3180.57,258.452
3182.02,266.601
3183.47,258.173
3184.92,264.477
3186.37,270.077
3187.82,277.016
3189.27,270.504
3190.72,295.341
3192.17,291.685
3193.62,313.962
3195.07,329.677
3196.52,331.514
3197.97,330.828
3199.42,340.3
3200.87,347.108
3202.32,358.081
3203.77,354.357
3205.22,351.633
3206.67,344.932
3208.12,349.017
3209.57,348.552
3211.02,347.99
3212.47,318.688
3213.92,324.449
3215.37,313.306
3216.82,323.553
3218.27,306.652
3219.72,324.943
3221.17,303.695
3222.63,280.977
3224.08,268.381
3225.53,251.745
3226.98,229.53
3228.43,228.225
3229.88,215.261
3231.33,199.421
3232.78,178.571
3234.23,174.433
3235.68,162.096
3237.13,150.238
3238.58,132.699
3240.03,122.544
3241.48,104.391
3242.93,104.545
3244.38,83.9342
3245.83,73.634
3247.28,64.9309
3248.73,78.3862
3250.18,60.5908
3251.63,61.1052
3253.08,58.9021
3254.53,30.5957
3255.98,38.05
3257.43,14.7981
3258.88,25.4884
3260.33,29.7204
3261.78,29.648
3263.23,22.8955
3264.68,9.91598
3266.13,20.7776
3267.59,-2.53464
3269.04,10.2857
3270.49,12.8974
3271.94,5.05238
3273.39,-11.3558
3274.84,0.794913
3276.29,-7.47073
3277.74,-11.8127
3279.19,-2.19042
3280.64,-4.34212
3282.09,1.40459
3283.54,1.03719
3284.99,-8.24487
3286.44,3.78735
3287.89,8.06588
3289.34,-8.05337
3290.79,-7.92006
3292.24,-0.496136
3293.69,-5.34642
3295.14,-22.6763
3296.59,4.64682
3298.04,-1.48617
3299.49,10.0636
3300.94,5.84337
3302.39,-1.50575
3303.84,-6.09638
3305.29,-5.75778
3306.74,-16.1188
3308.19,-10.1245
3309.64,-6.25305
3311.09,-16.652
3312.55,-22.3447
3314,-14.5176
3315.45,-24.8965
3316.9,-16.789
3318.35,-12.6181
3319.8,-3.5721
3321.25,-21.6561
3322.7,-14.4821
3324.15,-8.85273
3325.6,-16.088
3327.05,-26.6643
3328.5,-24.2053
3329.95,-13.4088
3331.4,-11.8375
3332.85,-19.1711
3334.3,-14.242
3335.75,-14.7393
3337.2,-2.05667
3338.65,-17.2234
3340.1,-16.1735
3341.55,-7.65098
3343,-8.80543
3344.45,-12.1231
3345.9,-16.6141
3347.35,-24.3233
3348.8,-19.5821
3350.25,-4.56685
3351.7,-9.36628
3353.15,-16.6967
3354.6,-20.3046
3356.06,-9.69846
3357.51,-9.15184
3358.96,-13.5249
3360.41,-5.00355
3361.86,5.15615
3363.31,-6.53384
3364.76,-4.06772
3366.21,-20.188
3367.66,-3.02172
3369.11,-0.0775692
3370.56,-3.70164
3372.01,1.18956
3373.46,-11.0544
3374.91,-2.48215
3376.36,-4.60122
3377.81,-13.1665
3379.26,-3.75383
3380.71,7.64244
3382.16,-9.96454
3383.61,-5.37497
3385.06,-13.6964
3386.51,-13.0463
3387.96,-10.5829
3389.41,-28.5019
3390.86,-3.76463
3392.31,4.60284
3393.76,-2.93909
3395.21,-6.87301
3396.66,-20.7125
3398.11,-10.0973
3399.56,-3.17293
3401.02,-0.609992
3402.47,2.41021
3403.92,2.9852
3405.37,-6.12362
3406.82,-12.3575
3408.27,-16.9482
3409.72,-15.8067
3411.17,-7.8336
3412.62,-6.90586
3414.07,0.670045
3415.52,-9.45361
3416.97,15.8008
3418.42,5.50459
3419.87,2.34987
3421.32,19.7583
3422.77,-8.63959
3424.22,-15.0792
3425.67,-1.51681
3427.12,-2.48388
3428.57,-8.96035
3430.02,5.35561
3431.47,14.6257
3432.92,3.13455
3434.37,-1.52048
3435.82,-11.3149
3437.27,3.57996
3438.72,-6.14409
3440.17,3.96849
3441.62,7.47198
3443.07,-5.64441
3444.52,-4.51116
3445.98,-4.77694
3447.43,2.52549
3448.88,0.683824
3450.33,3.33485
3451.78,-2.5464
3453.23,-3.36879
3454.68,20.5152
3456.13,4.90493
3457.58,3.05027
3459.03,2.24036
3460.48,5.46031
3461.93,-5.83157
3463.38,-19.0454
3464.83,-10.3198
3466.28,-5.03847
3467.73,4.66637
3469.18,2.4001
3470.63,-5.33243
3472.08,-4.43149
3473.53,-6.09014
3474.98,-6.42285
3476.43,2.35744
3477.88,17.3822
3479.33,11.2053
3480.78,-8.10756
3482.23,-10.4306
3483.68,-10.1357
3485.13,13.8336
3486.58,6.76145
3488.03,-3.66941
3489.49,-5.00545
3490.94,-9.77417
3492.39,-4.33339
3493.84,3.84504
3495.29,1.15701
3496.74,10.4329
3498.19,8.58866
3499.64,-5.9459
3501.09,-11.9724
3502.54,-14.091
3503.99,-5.91008
3505.44,4.48063
3506.89,-10.0793
3508.34,0.963216
3509.79,-4.2368
3511.24,6.29757
3512.69,16.6486
3514.14,7.2327
3515.59,-10.2254
3517.04,-1.9749
3518.49,-10.0387
3519.94,-22.487
3521.39,-15.4401
3522.84,-4.46634
3524.29,-2.34303
3525.74,-2.82741
3527.19,-5.73508
3528.64,-12.7004
3530.09,-5.73955
3531.54,-7.43088
3532.99,-9.46825
3534.45,2.80207
3535.9,-4.27555
3537.35,20.9872
3538.8,-5.98532
3540.25,-7.22544
3541.7,-6.50982
3543.15,-8.61258
3544.6,-9.67954
3546.05,-3.33504
3547.5,-8.65615
3548.95,-4.97706
3550.4,-12.1197
3551.85,-4.91571
3553.3,-6.76844
3554.75,-17.7908
3556.2,2.08755
3557.65,-15.5543
3559.1,-15.312
3560.55,-1.09013
3562,-5.47661
3563.45,9.22726
3564.9,4.13207
3566.35,-12.277
3567.8,-6.66617
3569.25,10.3778
3570.7,-5.07815
3572.15,-15.7471
3573.6,-25.4853
3575.05,-7.20049
3576.5,1.76693
3577.96,4.15944
3579.41,-1.23862
3580.86,-15.7851
3582.31,-10.1479
3583.76,-15.3969
3585.21,-9.4611
3586.66,0.162941
3588.11,6.17356
3589.56,-13.8713
3591.01,-17.1559
3592.46,-14.969
3593.91,-17.3141
3595.36,-27.6322
3596.81,-27.6632
3598.26,-9.17322
3599.71,-19.3617
3601.16,-12.4754
3602.61,-7.51282
3604.06,-9.49977
3605.51,-9.2427
3606.96,-14.2703
3608.41,-4.4517
3609.86,-19.8322
3611.31,-12.2267
3612.76,-7.2046
3614.21,-12.0578
3615.66,-4.5643
3617.11,-12.0657
3618.56,-11.1313
3620.01,-7.06442
3621.46,-2.86579
3622.92,-7.56368
3624.37,-0.687222
3625.82,11.3951
3627.27,-15.7476
3628.72,-4.71768
3630.17,-1.13587
3631.62,0.367537
3633.07,-12.1112
3634.52,-14.7288
3635.97,-15.2635
3637.42,-5.94763
3638.87,-7.25769
3640.32,-1.2603
3641.77,-3.37176
3643.22,-0.931218
3644.67,-11.7166
3646.12,-6.93038
3647.57,-6.09418
3649.02,-11.4372
3650.47,-10.1647
3651.92,-10.9706
3653.37,3.60973
3654.82,-13.5849
3656.27,-5.04788
3657.72,-5.01478
3659.17,1.14573
3660.62,-14.3613
3662.07,1.33693
3663.52,-0.933433
3664.97,-7.53049
3666.43,-12.5257
3667.88,-6.17013
3669.33,-9.88382
3670.78,-1.06455
3672.23,-7.79177
3673.68,2.81686
3675.13,3.87288
3676.58,-8.9345
3678.03,-11.1434
3679.48,-8.44041
3680.93,-2.32857
3682.38,2.65225
3683.83,6.59618
3685.28,-2.25438
3686.73,-3.16668
3688.18,-17.6457
3689.63,-13.9771
3691.08,-8.56878
3692.53,-15.2747
3693.98,2.81126
3695.43,-11.6157
3696.88,-1.89042
3698.33,-3.23912
3699.78,2.2595
3701.23,-13.5241
3702.68,17.242
3704.13,-2.56149
3705.58,-3.46827
3707.03,-15.4274
3708.48,-2.63317
3709.93,-2.44037
3711.39,-5.22981
3712.84,-11.2745
3714.29,2.65655
3715.74,-9.04405
3717.19,1.89195
3718.64,-6.96344
3720.09,-5.62837
3721.54,-1.45602
3722.99,-14.7295
3724.44,-20.326
3725.89,-6.91787
3727.34,5.07834
3728.79,-2.41462
3730.24,-3.32906
3731.69,0.566924
3733.14,-14.5982
3734.59,-11.5504
3736.04,-1.23541
3737.49,4.31456
3738.94,-8.90532
3740.39,-5.85999
3741.84,6.5255
3743.29,3.51158
3744.74,-3.18146
3746.19,-8.26469
3747.64,7.43834
3749.09,4.07959
3750.54,0.911826
3751.99,-2.49382
3753.44,2.99854
3754.89,0.898644
3756.35,-4.91487
3757.8,4.80097
3759.25,-3.08124
3760.7,3.00435
3762.15,18.8663
3763.6,1.58581
3765.05,5.2773
3766.5,-2.96398
3767.95,9.82543
3769.4,-2.04259
3770.85,0.155583
3772.3,16.6076
3773.75,2.88396
3775.2,-1.15161
3776.65,-0.174961
3778.1,9.69966
3779.55,-3.15399
3781,-2.52265
3782.45,-3.59605
3783.9,4.52274
3785.35,9.25396
3786.8,5.53951
3788.25,7.85923
3789.7,-3.94751
3791.15,6.4518
3792.6,-15.1374
3794.05,12.8283
3795.5,11.3803
3796.95,6.10014
3798.4,2.60999
3799.85,3.30968
3801.31,14.3785
3802.76,5.51916
3804.21,-7.42192
3805.66,14.9361
3807.11,4.00052
3808.56,0.564413
3810.01,7.48463
3811.46,7.06653
3812.91,-0.934518
3814.36,0.76051
3815.81,17.4399
3817.26,15.4804
3818.71,8.49376
3820.16,5.95188
3821.61,7.40823
3823.06,10.1555
3824.51,12.5848
3825.96,14.7056
3827.41,7.82979
3828.86,23.562
3830.31,7.87725
3831.76,4.6819
3833.21,17.8586
3834.66,8.67336
3836.11,6.10921
3837.56,-12.0839
3839.01,16.6738
3840.46,2.06261
3841.91,8.71195
3843.36,-2.07584
3844.82,0.120682
3846.27,18.1614
3847.72,27.5582
3849.17,20.8643
3850.62,12.3161
3852.07,12.6292
3853.52,15.5737
3854.97,7.96998
3856.42,18.5498
3857.87,3.71358
3859.32,8.32557
3860.77,14.7116
3862.22,1.51037
3863.67,9.4539
3865.12,9.9909
3866.57,11.9589
3868.02,2.61326
3869.47,25.1684
3870.92,6.01198
3872.37,26.363
3873.82,-3.79788
3875.27,8.3897
3876.72,9.98365
3878.17,23.188
3879.62,7.62209
3881.07,24.822
3882.52,28.0374
3883.97,22.9013
3885.42,8.51329
3886.87,11.9047
3888.32,21.396
3889.78,13.2729
3891.23,29.1217
3892.68,23.3288
3894.13,35.8627
3895.58,44.427
3897.03,23.7147
3898.48,26.4665
3899.93,34.9207
3901.38,26.9914
3902.83,22.8783
3904.28,33.9119
3905.73,20.2649
3907.18,20.9719
3908.63,24.6841
3910.08,23.6824
3911.53,14.0038
3912.98,49.7351
3914.43,38.6221
3915.88,40.4839
3917.33,36.63
3918.78,33.2956
3920.23,41.7932
3921.68,39.3812
3923.13,42.469
3924.58,28.0203
3926.03,29.9953
3927.48,40.7275
3928.93,43.8618
3930.38,44.8282
3931.83,51.7985
3933.28,35.3102
3934.74,21.4643
3936.19,41.5456
3937.64,66.4455
3939.09,54.0503
3940.54,47.8355
3941.99,43.7742
3943.44,49.6722
3944.89,46.3142
3946.34,49.6169
3947.79,43.8365
3949.24,44.0911
3950.69,56.2479
3952.14,50.1909
3953.59,53.3955
3955.04,61.3964
3956.49,48.1022
3957.94,50.8318
3959.39,48.7204
3960.84,53.6761
3962.29,43.5506
3963.74,58.7522
3965.19,60.0852
3966.64,70.3206
3968.09,66.1398
3969.54,63.5571
3970.99,55.9854
3972.44,71.6107
3973.89,63.9643
3975.34,61.6149
3976.79,56.1056
3978.25,69.9223
3979.7,75.2649
3981.15,64.9697
3982.6,62.5914
3984.05,73.9904
3985.5,80.2223
3986.95,69.5825
3988.4,75.924
3989.85,79.4744
3991.3,78.8454
3992.75,82.2355
3994.2,85.7003
3995.65,69.5929
3997.1,79.2189
3998.55,76.932
4000,80.5255
