0,61.8186
1.45033,60.3998
2.90065,58.9808
4.35098,57.5619
5.80131,56.1431
7.25163,54.7241
8.70196,113.827
10.1523,71.4349
11.6026,60.0702
13.0529,49.2886
14.5033,42.9192
15.9536,41.0336
17.4039,41.0908
18.8542,37.9275
20.3046,32.6207
21.7549,29.6097
23.2052,29.7473
24.6555,20.9425
26.1059,24.4908
27.5562,22.1537
29.0065,16.4429
30.4569,16.092
31.9072,14.3035
33.3575,13.3474
34.8078,9.68987
36.2582,3.23732
37.7085,-1.14002
39.1588,4.71895
40.6091,8.56479
42.0595,8.50357
43.5098,4.31381
44.9601,-1.54625
46.4104,3.25768
47.8608,4.25657
49.3111,5.74421
50.7614,21.7381
52.2117,44.0245
53.6621,94.5708
55.1124,170.836
56.5627,271.398
58.0131,399.322
59.4634,540.724
60.9137,638.321
62.364,743.036
63.8144,893.676
65.2647,921.93
66.715,959.304
68.1653,989.554
69.6157,1019.13
71.066,1066.55
72.5163,1087.78
73.9666,1097
75.417,1096.21
76.8673,1096.63
78.3176,1129.38
79.7679,1152.18
81.2183,1151.32
82.6686,1157.97
84.1189,1193.03
85.5693,1205.73
87.0196,1240.16
88.4699,1209.91
89.9202,1149.49
91.3706,1131.71
92.8209,1080.81
94.2712,1030.78
95.7215,997.591
97.1719,968.053
98.6222,898.889
100.073,904.655
101.523,884.699
102.973,866.188
104.423,863.949
105.874,859.549
107.324,854.813
108.774,838.097
110.225,825.32
111.675,824.107
113.125,773.478
114.576,785.553
116.026,783.371
117.476,766.205
118.927,757.353
120.377,755.934
121.827,743.927
123.278,729.463
124.728,710.2
126.178,676.303
127.629,659.15
129.079,638.485
130.529,623.201
131.98,619.574
133.43,631.604
134.88,601.53
136.331,586.236
137.781,572.98
139.231,559.684
140.682,587.428
142.132,591.258
143.582,577.146
145.033,550.283
146.483,521.031
147.933,524.102
149.384,525.246
150.834,528.763
152.284,546.392
153.735,584.476
155.185,581.183
156.635,542.851
158.086,507.352
159.536,478.353
160.986,447.482
162.437,459.556
163.887,461.312
165.337,448.95
166.788,433.155
168.238,435.326
169.688,453.06
171.139,455.144
172.589,446.969
174.039,427.874
175.489,391.135
176.94,401.154
178.39,391.432
179.84,381.019
181.291,382.896
182.741,401.759
184.191,383.286
185.642,385.871
187.092,382.043
188.542,365.666
189.993,373.657
191.443,351.035
192.893,357.395
194.344,364.383
195.794,350.38
197.244,317.362
198.695,355.491
200.145,352.38
201.595,341.986
203.046,344.169
204.496,311.504
205.946,322.189
207.397,330.794
208.847,332.443
210.297,327.13
211.748,315.54
213.198,296.344
214.648,308.5
216.099,325.187
217.549,323.802
218.999,314.842
220.45,285.896
221.9,291.805
223.35,314.402
224.801,326.162
226.251,297.197
227.701,306.523
229.152,314.183
230.602,313.985
232.052,304.68
233.503,286.247
234.953,301.214
236.403,298.49
237.854,292.312
239.304,294.582
240.754,294.676
242.204,284.916
243.655,290.707
245.105,295.786
246.555,290.418
248.006,285.973
249.456,280.096
250.906,262.498
252.357,253.07
253.807,260.147
255.257,269.341
256.708,256.295
258.158,251.342
259.608,255.112
261.059,257.342
262.509,234.684
263.959,260.53
265.41,255.476
266.86,251.876
268.31,249.363
269.761,212.968
271.211,247.995
272.661,239.065
274.112,220.147
275.562,208.91
277.012,209.313
278.463,207.895
279.913,212.236
281.363,214.653
282.814,213.055
284.264,210.134
285.714,226.586
287.165,213.266
288.615,207.721
290.065,204.927
291.516,190.631
292.966,182.743
294.416,173.527
295.867,190.357
297.317,192.782
298.767,159.189
300.218,178.691
301.668,168.958
303.118,174.009
304.569,175.598
306.019,164.274
307.469,162.093
308.919,153.307
310.37,144.546
311.82,136.629
313.27,132.823
314.721,139.017
316.171,144.084
317.621,135.817
319.072,137.737
320.522,140.312
321.972,118.08
323.423,108.644
324.873,115.116
326.323,121.346
327.774,118.208
329.224,105.043
330.674,108.209
332.125,108.307
333.575,114.826
335.025,113.366
336.476,103.254
337.926,122.866
339.376,112.481
340.827,99.904
342.277,94.1359
343.727,99.3239
345.178,113.509
346.628,79.174
348.078,83.967
349.529,87.8554
350.979,83.1159
352.429,78.5591
353.88,73.3099
355.33,69.7175
356.78,57.8774
358.231,55.1943
359.681,70.2134
361.131,70.3279
362.582,75.1385
364.032,74.2325
365.482,77.3654
366.933,81.553
368.383,68.4934
369.833,66.3062
371.284,60.7641
372.734,63.9117
374.184,67.0182
375.635,57.2825
377.085,61.2399
378.535,57.4231
379.986,57.5567
381.436,49.4434
382.886,32.929
384.336,42.6549
385.787,19.1999
387.237,29.5822
388.687,41.4725
390.138,39.8343
391.588,31.8987
393.038,63.9464
394.489,31.5638
395.939,26.9143
397.389,40.3822
398.84,39.055
400.29,22.2371
401.74,30.2963
403.191,42.7853
404.641,39.3165
406.091,22.419
407.542,18.1518
408.992,10.1821
410.442,11.6376
411.893,21.6241
413.343,24.7757
414.793,10.393
416.244,5.88902
417.694,11.7067
419.144,3.79713
420.595,-10.177
422.045,-16.6238
423.495,-2.08359
424.946,5.37577
426.396,3.11248
427.846,-4.5972
429.297,-6.5179
430.747,3.16151
432.197,-3.59629
433.648,-8.5517
435.098,-10.9057
436.548,-13.3828
437.999,-9.8572
439.449,10.8402
440.899,-12.9303
442.35,6.00094
443.8,14.5185
445.25,8.57764
446.701,-0.222871
448.151,-5.83044
449.601,-13.2821
451.051,8.59426
452.502,1.48673
453.952,-20.6744
455.402,4.07184
456.853,0.785457
458.303,20.3593
459.753,9.89558
461.204,1.93982
462.654,12.5714
464.104,-6.18891
465.555,1.7696
467.005,-1.85201
468.455,-5.31315
469.906,-1.87214
471.356,9.26128
472.806,18.4001
474.257,-11.5781
475.707,-7.30257
477.157,3.47522
478.608,4.68736
480.058,4.24113
481.508,0.17261
482.959,2.06972
484.409,-0.974326
485.859,-2.24022
487.31,7.3212
488.76,31.1478
490.21,-12.5799
491.661,5.9549
493.111,13.8067
494.561,3.4019
496.012,0.133196
497.462,18.6231
498.912,0.493258
500.363,-11.1379
501.813,-7.57264
503.263,1.52219
504.714,-1.51546
506.164,-2.09049
507.614,-22.3747
509.065,-7.41595
510.515,11.1363
511.965,10.2769
513.416,1.52071
514.866,8.35906
516.316,-8.05791
517.766,-7.03137
519.217,0.0835357
520.667,4.50854
522.117,32.9187
523.568,0.699232
525.018,-8.46499
526.468,6.65956
527.919,9.95727
529.369,-16.3752
530.819,5.33068
532.27,9.99103
533.72,1.90197
535.17,0.400488
536.621,1.51743
538.071,-3.7939
539.521,16.344
540.972,3.14155
542.422,3.15434
543.872,10.0768
545.323,12.1876
546.773,4.15063
548.223,13.7552
549.674,12.2847
551.124,-5.51394
552.574,-15.3759
554.025,-7.83863
555.475,6.31846
556.925,8.09068
558.376,6.71118
559.826,-4.25023
561.276,-4.23234
562.727,8.52872
564.177,12.3133
565.627,3.38418
567.078,17.2686
568.528,16.2118
569.978,7.31137
571.429,6.0475
572.879,20.1344
574.329,2.23194
575.78,6.29625
577.23,3.48901
578.68,-1.41962
580.131,-3.00452
581.581,-3.39735
583.031,4.24047
584.482,0.562961
585.932,-2.92429
587.382,-2.34409
588.832,6.18659
590.283,21.946
591.733,-16.8495
593.183,-12.8263
594.634,-5.49015
596.084,-2.82645
597.534,-6.18361
598.985,-12.8331
600.435,8.60864
601.885,3.44722
603.336,-12.1382
604.786,-11.982
606.236,0.456044
607.687,-4.31262
609.137,-14.397
610.587,-24.4825
612.038,-9.94701
613.488,0.901929
614.938,0.334818
616.389,5.35002
617.839,25.254
619.289,-4.65059
620.74,-10.0749
622.19,-5.59267
623.64,0.292275
625.091,6.82114
626.541,-2.10679
627.991,-10.6482
629.442,4.67112
630.892,-3.06084
632.342,-14.7957
633.793,1.40001
635.243,2.7557
636.693,-2.16119
638.144,-1.13085
639.594,-0.987629
641.044,-0.756504
642.495,0.281698
643.945,-3.41818
645.395,7.44106
646.846,9.31273
648.296,20.5593
649.746,11.5288
651.197,-12.5187
652.647,4.64891
654.097,2.83773
655.547,-3.19989
656.998,4.64252
658.448,0.495234
659.898,-10.5947
661.349,-0.255516
662.799,3.88164
664.249,12.8881
665.7,-9.84412
667.15,-18.3101
668.6,-17.1047
670.051,-23.8639
671.501,0.922462
672.951,13.4039
674.402,30.4172
675.852,38.5013
677.302,24.1861
678.753,5.54577
680.203,33.1764
681.653,28.1749
683.104,-0.311478
684.554,-5.40385
686.004,-0.284545
687.455,3.08261
688.905,4.09463
690.355,-4.4865
691.806,-5.10288
693.256,-8.39112
694.706,-6.7788
696.157,-1.34812
697.607,7.04513
699.057,26.927
700.508,16.3328
701.958,17.9225
703.408,8.95087
704.859,2.22768
706.309,2.04712
707.759,-3.86266
709.21,-4.48741
710.66,13.4938
712.11,8.26739
713.561,-4.08078
715.011,-4.28413
716.461,7.49159
717.912,-3.89079
719.362,-4.37764
720.812,-2.50421
722.263,-2.57972
723.713,0.572744
725.163,6.05954
726.613,4.89417
728.064,-3.98267
729.514,10.1206
730.964,3.0554
732.415,5.29974
733.865,15.4989
735.315,16.0569
736.766,3.30441
738.216,9.62513
739.666,-13.9462
741.117,-12.7789
742.567,-11.3647
744.017,-14.3742
745.468,-5.21344
746.918,-15.3202
748.368,-5.01514
749.819,-7.13947
751.269,4.11989
752.719,13.9353
754.17,7.00183
755.62,-7.87614
757.07,-26.0191
758.521,-0.574184
759.971,11.898
761.421,8.34763
762.872,6.68301
764.322,11.4888
765.772,-11.7839
767.223,1.79008
768.673,4.17351
770.123,-4.32719
771.574,-15.8238
773.024,-15.3156
774.474,1.00564
775.925,-5.91736
777.375,-18.0677
778.825,-11.2422
780.276,-25.4834
781.726,-22.3053
783.176,-2.22805
784.627,-14.249
786.077,-2.65896
787.527,-0.00978675
788.978,1.36126
790.428,-6.27942
791.878,-0.00898844
793.328,15.963
794.779,-5.35743
796.229,-42.1168
797.68,-11.1703
799.13,-4.87173
800.58,-26.4108
802.03,-31.6095
803.481,-10.1118
804.931,-22.7241
806.381,-23.2111
807.832,-2.90333
809.282,-10.5077
810.732,-15.4831
812.183,-15.0341
813.633,-11.3507
815.083,15.1273
816.534,11.4089
817.984,13.935
819.434,-2.09857
820.885,-10.1847
822.335,-6.61431
823.785,-7.09988
825.236,-22.0681
826.686,-10.8274
828.136,-10.5984
829.587,10.7074
831.037,18.7972
832.487,10.4361
833.938,4.99175
835.388,11.63
836.838,2.23615
838.289,23.9277
839.739,-8.48544
841.189,-8.16086
842.64,9.96774
844.09,-2.26124
845.54,-19.4374
846.991,30.7397
848.441,7.93317
849.891,5.51188
851.342,-1.08425
852.792,-1.90327
854.242,9.35635
855.693,8.00017
857.143,25.3672
858.593,8.39669
860.044,16.553
861.494,13.8161
862.944,15.6482
864.394,19.8757
865.845,-5.22187
867.295,2.4158
868.745,-6.69305
870.196,7.55492
871.646,0.684553
873.096,-4.26193
874.547,6.22837
875.997,6.5217
877.447,-37.8892
878.898,-5.02211
880.348,3.68712
881.798,-20.683
883.249,-36.3653
884.699,-22.8198
886.149,-1.87542
887.6,-17.405
889.05,-10.1457
890.5,-6.97277
891.951,4.07567
893.401,-4.92509
894.851,-17.6992
896.302,-12.5831
897.752,-3.86232
899.202,-19.4333
900.653,-2.27067
902.103,-3.18227
903.553,-16.8415
905.004,-20.8368
906.454,-6.50281
907.904,11.4226
909.355,10.0413
910.805,6.28502
912.255,11.1321
913.706,10.6883
915.156,10.7656
916.606,3.84043
918.057,-3.86105
919.507,17.97
920.957,-10.3382
922.408,-9.82516
923.858,20.2334
925.308,32.5632
926.759,15.7619
928.209,-3.45278
929.659,7.58911
931.109,33.6526
932.56,23.7429
934.01,17.0934
935.46,5.18408
936.911,11.1074
938.361,22.7528
939.811,9.00419
941.262,-28.2652
942.712,21.2283
944.162,0.0726739
945.613,-24.9844
947.063,-21.7656
948.513,-6.33329
949.964,-7.01719
951.414,-19.8938
952.864,6.31131
954.315,-7.71205
955.765,12.4636
957.215,2.83984
958.666,6.05584
960.116,8.61911
961.566,-0.241837
963.017,-0.832076
964.467,4.25277
965.917,27.2055
967.368,15.1099
968.818,-1.10127
970.268,-9.40716
971.719,-16.2217
973.169,-19.7902
974.619,-4.96607
976.07,7.98517
977.52,0.918139
978.97,6.95383
980.421,19.5348
981.871,26.8321
983.321,15.7209
984.772,-3.65493
986.222,-2.03217
987.672,-23.9535
989.123,15.3149
990.573,-2.60244
992.023,-3.08738
993.474,4.47558
994.924,12.5115
996.374,27.7539
997.825,41.2093
999.275,2.74971
1000.73,16.2465
1002.18,8.08107
1003.63,5.70003
1005.08,4.47996
1006.53,13.4842
1007.98,32.6119
1009.43,28.9403
1010.88,17.708
1012.33,28.5182
1013.78,37.5077
1015.23,28.0264
1016.68,35.9821
1018.13,51.8101
1019.58,53.0876
1021.03,50.8205
1022.48,13.2845
1023.93,36.8042
1025.38,39.9497
1026.83,51.5718
1028.28,47.5508
1029.73,30.0035
1031.18,36.0542
1032.63,81.2173
1034.08,64.5481
1035.53,33.3928
1036.98,58.0068
1038.43,55.0937
1039.88,61.3418
1041.33,65.2783
1042.78,61.5275
1044.23,75.2372
1045.69,86.3543
1047.14,33.5767
1048.59,68.828
1050.04,105.08
1051.49,74.354
1052.94,66.0392
1054.39,91.7877
1055.84,97.7498
1057.29,120.466
1058.74,75.5179
1060.19,72.5041
1061.64,105.822
1063.09,104.626
1064.54,106.78
1065.99,117.153
1067.44,109.324
1068.89,93.4314
1070.34,142.234
1071.79,125.101
1073.24,145.68
1074.69,139.914
1076.14,131.138
1077.59,130.523
1079.04,138.842
1080.49,149.522
1081.94,143.389
1083.39,118.735
1084.84,166.295
1086.29,173.738
1087.74,183.533
1089.2,151.558
1090.65,132.188
1092.1,156.75
1093.55,155.282
1095,134.893
1096.45,153.602
1097.9,170.366
1099.35,162.856
1100.8,169.382
1102.25,174.475
1103.7,154.267
1105.15,134.536
1106.6,162.424
1108.05,139.443
1109.5,147.743
1110.95,148.504
1112.4,130.999
1113.85,129.637
1115.3,134.187
1116.75,137.519
1118.2,146.177
1119.65,150.225
1121.1,148.567
1122.55,156.45
1124,158.062
1125.45,137.3
1126.9,119.088
1128.35,116.158
1129.8,115.662
1131.25,109.37
1132.7,117.213
1134.16,101.627
1135.61,88.1463
1137.06,93.7975
1138.51,110.333
1139.96,107.928
1141.41,114.156
1142.86,129.536
1144.31,119.229
1145.76,95.8442
1147.21,108.724
1148.66,72.9361
1150.11,114.306
1151.56,124.4
1153.01,126.936
1154.46,125.348
1155.91,112.45
1157.36,98.1073
1158.81,95.8121
1160.26,76.8367
1161.71,135.27
1163.16,109.012
1164.61,94.3652
1166.06,107.568
1167.51,112.752
1168.96,105.765
1170.41,107.611
1171.86,112.102
1173.31,91.8036
1174.76,111.946
1176.21,108.946
1177.66,96.6274
1179.12,120.944
1180.57,114.114
1182.02,99.7148
1183.47,116.728
1184.92,134.421
1186.37,132.793
1187.82,128.929
1189.27,125.912
1190.72,121.403
1192.17,119.276
1193.62,119.585
1195.07,117.876
1196.52,121.975
1197.97,122.021
1199.42,96.9362
1200.87,127.096
1202.32,129.569
1203.77,119.202
1205.22,128.223
1206.67,110.631
1208.12,116.108
1209.57,148.946
1211.02,149.538
1212.47,110.57
1213.92,132.698
1215.37,140.581
1216.82,145.177
1218.27,116.808
1219.72,161.85
1221.17,188.988
1222.63,163.488
1224.08,135.741
1225.53,141.405
1226.98,152.275
1228.43,152.831
1229.88,169.383
1231.33,157.018
1232.78,165.263
1234.23,167.79
1235.68,179.338
1237.13,153.121
1238.58,140.403
1240.03,171.421
1241.48,173.031
1242.93,159.226
1244.38,156.691
1245.83,160.879
1247.28,178.473
1248.73,195.184
1250.18,212.147
1251.63,207.613
1253.08,196.367
1254.53,202.18
1255.98,219.545
1257.43,235.233
1258.88,224.203
1260.33,216.481
1261.78,233.437
1263.23,247.003
1264.68,250.291
1266.13,239.129
1267.59,241.39
1269.04,262.257
1270.49,279.915
1271.94,298.573
1273.39,301.346
1274.84,288.907
1276.29,295.248
1277.74,301.35
1279.19,328.226
1280.64,328.768
1282.09,346.544
1283.54,384.664
1284.99,401.727
1286.44,411.578
1287.89,436.688
1289.34,435.29
1290.79,471.108
1292.24,455.484
1293.69,485.847
1295.14,514.959
1296.59,513.071
1298.04,532.857
1299.49,595.971
1300.94,637.391
1302.39,631.993
1303.84,713.164
1305.29,725.51
1306.74,768.828
1308.19,828.278
1309.64,864.998
1311.09,885.835
1312.55,925.749
1314,1010.34
1315.45,1108.4
1316.9,1167.42
1318.35,1204.6
1319.8,1264.11
1321.25,1281.63
1322.7,1463.19
1324.15,1490.34
1325.6,1577.64
1327.05,1655.16
1328.5,1719.83
1329.95,1775.47
1331.4,1833.48
1332.85,1895.86
1334.3,1909.46
1335.75,1980.53
1337.2,1966.74
1338.65,1925.99
1340.1,1927.1
1341.55,1862.91
1343,1875.13
1344.45,1850.9
1345.9,1765.98
1347.35,1721.84
1348.8,1717.11
1350.25,1633.53
1351.7,1521.69
1353.15,1442.55
1354.6,1338.37
1356.06,1308.13
1357.51,1217.8
1358.96,1128.85
1360.41,1073.16
1361.86,1028.17
1363.31,975.53
1364.76,895.014
1366.21,802.466
1367.66,800.964
1369.11,757.347
1370.56,751.681
1372.01,668.986
1373.46,655.834
1374.91,608.797
1376.36,569.271
1377.81,557.935
1379.26,543.46
1380.71,511.556
1382.16,498.618
1383.61,514.686
1385.06,481.325
1386.51,472.232
1387.96,463.972
1389.41,438.364
1390.86,441.069
1392.31,424.636
1393.76,422.17
1395.21,410.267
1396.66,400.099
1398.11,393.931
1399.56,372.108
1401.02,359.118
1402.47,375.396
1403.92,385.528
1405.37,391.973
1406.82,367.906
1408.27,364.353
1409.72,362.842
1411.17,353.776
1412.62,322.225
1414.07,324.232
1415.52,351.542
1416.97,355.601
1418.42,359.827
1419.87,373.983
1421.32,380.081
1422.77,350.512
1424.22,329.617
1425.67,346.437
1427.12,342.339
1428.57,349.274
1430.02,341.89
1431.47,355.706
1432.92,371.576
1434.37,381.66
1435.82,398.592
1437.27,381.066
1438.72,378.785
1440.17,312.864
1441.62,378.945
1443.07,387.673
1444.53,382.592
1445.98,379.53
1447.43,414.557
1448.88,443.03
1450.33,427.115
1451.78,417.782
1453.23,430.268
1454.68,425.394
1456.13,439.077
1457.58,472.689
1459.03,448.075
1460.48,459.359
1461.93,487.37
1463.38,456.29
1464.83,472.034
1466.28,498.182
1467.73,490.283
1469.18,485.828
1470.63,500.809
1472.08,509.429
1473.53,524.463
1474.98,566.591
1476.43,568.012
1477.88,581.164
1479.33,637.498
1480.78,576.189
1482.23,644.389
1483.68,665.509
1485.13,673.256
1486.58,678.229
1488.03,657.373
1489.49,680.174
1490.94,733.967
1492.39,762.915
1493.84,779.886
1495.29,801.706
1496.74,855.349
1498.19,853.351
1499.64,901.432
1501.09,881.669
1502.54,926.373
1503.99,968.394
1505.44,1021.76
1506.89,1045.7
1508.34,1094.04
1509.79,1157.06
1511.24,1221.13
1512.69,1282.54
1514.14,1331.75
1515.59,1400.33
1517.04,1496.24
1518.49,1575.72
1519.94,1726.04
1521.39,1730.82
1522.84,1872.31
1524.29,1958.59
1525.74,2142.96
1527.19,2305.52
1528.64,2468.1
1530.09,2688.92
1531.54,2916.56
1532.99,3126.95
1534.45,3413.2
1535.9,3732.09
1537.35,3953.14
1538.8,4428.96
1540.25,4887.07
1541.7,5228.12
1543.15,5759.16
1544.6,6255.86
1546.05,6851.74
1547.5,7390.33
1548.95,8023.93
1550.4,8690.24
1551.85,9288.94
1553.3,9970.25
1554.75,10733.1
1556.2,11439.5
1557.65,12129.5
1559.1,12827.5
1560.55,13481.5
1562,14156
1563.45,14597.8
1564.9,15072.1
1566.35,15311.8
1567.8,16504.5
1569.25,15308.6
1570.7,15157.2
1572.15,14744.7
1573.6,14265.6
1575.05,13622
1576.5,12773.8
1577.96,11915.4
1579.41,11109.2
1580.86,10274.1
1582.31,9493.1
1583.76,8686.07
1585.21,7933.85
1586.66,7245.03
1588.11,6630.69
1589.56,6108.28
1591.01,5543.99
1592.46,5110.9
1593.91,4753.27
1595.36,4436.37
1596.81,4119.52
1598.26,3864.94
1599.71,3626.61
1601.16,3415.88
1602.61,3223.92
1604.06,3030.53
1605.51,2887.54
1606.96,2757.02
1608.41,2614.27
1609.86,2468.16
1611.31,2340.37
1612.76,2185.64
1614.21,2018.72
1615.66,1942.48
1617.11,1770.89
1618.56,1650.13
1620.01,1558.59
1621.46,1448.62
1622.92,1334.14
1624.37,1273.78
1625.82,1190.25
1627.27,1130.13
1628.72,1068.65
1630.17,1000.27
1631.62,943.305
1633.07,930.479
1634.52,871.584
1635.97,840.786
1637.42,818.441
1638.87,784.987
1640.32,749.73
1641.77,733.042
1643.22,704.939
1644.67,668.261
1646.12,637.244
1647.57,612.675
1649.02,597.396
1650.47,597.26
1651.92,564.608
1653.37,547.266
1654.82,511.354
1656.27,529.662
1657.72,505.99
1659.17,468.54
1660.62,484.6
1662.07,469.076
1663.52,435.504
1664.97,428.772
1666.42,430.46
1667.88,417.274
1669.33,391.294
1670.78,397.98
1672.23,403.691
1673.68,385.454
1675.13,379.423
1676.58,355.165
1678.03,332.675
1679.48,339.954
1680.93,334.507
1682.38,313.944
1683.83,343.526
1685.28,306.782
1686.73,297.108
1688.18,286.586
1689.63,305.429
1691.08,296.014
1692.53,291.248
1693.98,299.123
1695.43,281.515
1696.88,254.723
1698.33,270.524
1699.78,275.617
1701.23,254.185
1702.68,246.056
1704.13,251.489
1705.58,237.135
1707.03,252.15
1708.48,264.483
1709.93,244.984
1711.39,228.316
1712.84,251.412
1714.29,216.764
1715.74,236.12
1717.19,231.071
1718.64,243.38
1720.09,237.065
1721.54,221.917
1722.99,235.058
1724.44,249.206
1725.89,245.88
1727.34,242.191
1728.79,230.975
1730.24,215.579
1731.69,218.294
1733.14,208.385
1734.59,219.37
1736.04,240.605
1737.49,209.478
1738.94,222.449
1740.39,252.484
1741.84,221.732
1743.29,183.096
1744.74,142.368
1746.19,148.58
1747.64,149.006
1749.09,181.622
1750.54,194.58
1751.99,198.665
1753.44,200.689
1754.89,194.061
1756.35,183.67
1757.8,191.322
1759.25,184.916
1760.7,140.53
1762.15,138.424
1763.6,151.459
1765.05,156.613
1766.5,132.107
1767.95,163.409
1769.4,147.418
1770.85,148.232
1772.3,146.39
1773.75,128.712
1775.2,138.732
1776.65,138.51
1778.1,154.473
1779.55,107.87
1781,122.688
1782.45,118.221
1783.9,156.463
1785.35,165.189
1786.8,140.956
1788.25,130.618
1789.7,128.569
1791.15,127.02
1792.6,125.543
1794.05,124.789
1795.5,123.039
1796.95,120.974
1798.4,138.353
1799.85,104.311
1801.31,93.6329
1802.76,104.996
1804.21,107.265
1805.66,83.3439
1807.11,110.484
1808.56,98.1947
1810.01,71.013
1811.46,110.733
1812.91,123.369
1814.36,106.103
1815.81,78.1284
1817.26,88.6274
1818.71,109.445
1820.16,102.575
1821.61,86.5994
1823.06,72.3505
1824.51,66.3748
1825.96,65.2113
1827.41,73.2131
1828.86,95.6334
1830.31,107.686
1831.76,98.7326
1833.21,89.8868
1834.66,83.1731
1836.11,59.6815
1837.56,104.08
1839.01,110.924
1840.46,117.577
1841.91,101.343
1843.36,66.0056
1844.82,106.742
1846.27,132.191
1847.72,139.022
1849.17,114.146
1850.62,122.632
1852.07,102.869
1853.52,102.509
1854.97,79.0591
1856.42,88.792
1857.87,140.963
1859.32,143.64
1860.77,122.738
1862.22,108.394
1863.67,115.53
1865.12,114.012
1866.57,115.773
1868.02,108.387
1869.47,108.862
1870.92,135.441
1872.37,136.526
1873.82,128.834
1875.27,114.742
1876.72,106.479
1878.17,87.6228
1879.62,99.3348
1881.07,96.2096
1882.52,92.5269
1883.97,23.982
1885.42,107.214
1886.87,88.5558
1888.32,99.2412
1889.78,60.7445
1891.23,65.2954
1892.68,76.5771
1894.13,76.2545
1895.58,95.1002
1897.03,57.0348
1898.48,65.1951
1899.93,47.8749
1901.38,80.8207
1902.83,64.6832
1904.28,51.608
1905.73,45.4241
1907.18,40.8616
1908.63,29.015
1910.08,15.5323
1911.53,53.2394
1912.98,49.1179
1914.43,23.7669
1915.88,41.2344
1917.33,45.3488
1918.78,41.7465
1920.23,57.7919
1921.68,57.6233
1923.13,46.4931
1924.58,49.5047
1926.03,49.6503
1927.48,39.2965
1928.93,51.8599
1930.38,53.9341
1931.83,31.154
1933.29,52.5217
1934.74,31.6215
1936.19,48.5728
1937.64,17.0931
1939.09,13.9952
1940.54,3.14759
1941.99,19.988
1943.44,25.6995
1944.89,11.7204
1946.34,27.9758
1947.79,15.6573
1949.24,10.9881
1950.69,20.5125
1952.14,33.849
1953.59,17.3028
1955.04,53.2415
1956.49,35.2625
1957.94,45.0695
1959.39,26.3244
1960.84,47.1066
1962.29,36.5823
1963.74,26.0651
1965.19,18.2937
1966.64,39.5533
1968.09,59.064
1969.54,23.8952
1970.99,8.96759
1972.44,21.9545
1973.89,44.2896
1975.34,55.7329
1976.79,61.4646
1978.25,58.3776
1979.7,63.8234
1981.15,76.5124
1982.6,64.4928
1984.05,53.7874
1985.5,55.8592
1986.95,44.8626
1988.4,54.8424
1989.85,65.4594
1991.3,41.9332
1992.75,65.0658
1994.2,63.8274
1995.65,41.248
1997.1,49.3449
1998.55,64.6162
2000,52.9896
2001.45,51.5516
2002.9,50.9633
2004.35,32.7817
2005.8,50.8903
2007.25,47.5474
2008.7,39.5192
2010.15,61.4748
2011.6,72.3248
2013.05,54.0109
2014.5,63.37
2015.95,64.1359
2017.4,34.9469
2018.85,32.2534
2020.3,14.4524
2021.75,70.7588
2023.21,51.1439
2024.66,22.9545
2026.11,72.1716
2027.56,21.1532
2029.01,23.7135
2030.46,8.07545
2031.91,51.3363
2033.36,20.8819
2034.81,38.7941
2036.26,24.9703
2037.71,1.15197
2039.16,24.7688
2040.61,15.9816
2042.06,19.9621
2043.51,8.39978
2044.96,19.4304
2046.41,-8.95257
2047.86,16.2837
2049.31,9.76873
2050.76,-2.82232
2052.21,21.8247
2053.66,-32.6438
2055.11,-6.48109
2056.56,-10.641
2058.01,-3.42982
2059.46,2.65457
2060.91,-2.01566
2062.36,-5.78812
2063.81,-11.7823
2065.26,10.7968
2066.72,-8.22799
2068.17,-23.3667
2069.62,3.20449
2071.07,14.3702
2072.52,11.4555
2073.97,0.968064
2075.42,-1.845
2076.87,-20.4051
2078.32,-24.7233
2079.77,-18.1496
2081.22,-7.28554
2082.67,7.47744
2084.12,-3.60519
2085.57,-29.1784
2087.02,-19.0454
2088.47,-6.07782
2089.92,-8.01191
2091.37,-6.2888
2092.82,-22.2337
2094.27,-6.69907
2095.72,22.8954
2097.17,-4.57714
2098.62,-27.0798
2100.07,-17.894
2101.52,-14.6332
2102.97,-30.1144
2104.42,-34.3071
2105.87,-9.45301
2107.32,-9.47046
2108.77,-26.4066
2110.22,-27.0281
2111.68,-21.5779
2113.13,-13.2766
2114.58,-1.10326
2116.03,-14.0964
2117.48,-23.5352
2118.93,-9.43721
2120.38,10.9641
2121.83,-3.36715
2123.28,-10.8499
2124.73,-19.6733
2126.18,-21.0142
2127.63,-7.07071
2129.08,-11.4955
2130.53,-15.9865
2131.98,-28.9512
2133.43,-31.8323
2134.88,-17.3698
2136.33,-11.3295
2137.78,-8.87782
2139.23,3.43063
2140.68,9.44278
2142.13,8.53957
2143.58,11.0022
2145.03,8.45576
2146.48,8.13969
2147.93,8.17341
2149.38,7.10745
2150.83,15.0823
2152.28,13.6694
2153.73,3.07961
2155.18,-12.8109
2156.64,1.79812
2158.09,-0.999686
2159.54,3.30628
2160.99,5.36774
2162.44,15.8536
2163.89,19.5576
2165.34,2.75822
2166.79,-3.54838
2168.24,31.7408
2169.69,30.4495
2171.14,30.647
2172.59,16.1972
2174.04,12.6714
2175.49,4.64129
2176.94,18.5211
2178.39,35.1784
2179.84,19.5501
2181.29,28.4881
2182.74,17.2965
2184.19,18.9141
2185.64,16.3802
2187.09,10.2312
2188.54,16.6979
2189.99,20.2538
2191.44,30.4446
2192.89,17.2619
2194.34,42.6677
2195.79,57.1718
2197.24,59.354
2198.69,54.549
2200.15,42.6113
2201.6,52.3672
2203.05,49.8507
2204.5,39.9871
2205.95,73.2037
2207.4,68.0121
2208.85,81.5867
2210.3,57.4597
2211.75,66.9408
2213.2,67.3307
2214.65,36.1885
2216.1,37.8487
2217.55,23.263
2219,52.3317
2220.45,28.1705
2221.9,84.2834
2223.35,29.0437
2224.8,100.302
2226.25,90.11
2227.7,64.2034
2229.15,68.2193
2230.6,90.3517
2232.05,63.0834
2233.5,91.7871
2234.95,65.7492
2236.4,120.797
2237.85,93.3777
2239.3,105.608
2240.75,71.0188
2242.2,52.8978
2243.65,65.2209
2245.11,55.3914
2246.56,95.0172
2248.01,74.1417
2249.46,93.1911
2250.91,84.4572
2252.36,89.321
2253.81,96.13
2255.26,89.6301
2256.71,98.129
2258.16,70.276
2259.61,66.5946
2261.06,68.9576
2262.51,89.1195
2263.96,79.1525
2265.41,78.9427
2266.86,107.438
2268.31,102.77
2269.76,76.5341
2271.21,91.1985
2272.66,91.3936
2274.11,83.9348
2275.56,72.4129
2277.01,82.9697
2278.46,110.854
2279.91,115.733
2281.36,117.81
2282.81,104.714
2284.26,90.0031
2285.71,91.1619
2287.16,90.9138
2288.61,94.1644
2290.07,108.354
2291.52,128.69
2292.97,117.75
2294.42,131.213
2295.87,133.524
2297.32,131.75
2298.77,106.813
2300.22,117.028
2301.67,98.9814
2303.12,132.462
2304.57,157.877
2306.02,134.586
2307.47,122.765
2308.92,132.028
2310.37,108.322
2311.82,156.713
2313.27,169.317
2314.72,96.0602
2316.17,135.954
2317.62,144.81
2319.07,158.425
2320.52,172.271
2321.97,149.459
2323.42,155.653
2324.87,157.291
2326.32,157.814
2327.77,162.334
2329.22,170.626
2330.67,173.78
2332.12,144.44
2333.57,142.406
2335.03,167.781
2336.48,175.066
2337.93,181.305
2339.38,192.163
2340.83,191.989
2342.28,184.35
2343.73,168.195
2345.18,182.489
2346.63,216.262
2348.08,224.613
2349.53,233.809
2350.98,238.416
2352.43,244.391
2353.88,267.613
2355.33,251.861
2356.78,236.337
2358.23,223.005
2359.68,264.996
2361.13,266.779
2362.58,285.564
2364.03,286.109
2365.48,301.169
2366.93,319.213
2368.38,253.18
2369.83,263.644
2371.28,324.558
2372.73,302.021
2374.18,363.089
2375.63,347.25
2377.08,367.238
2378.54,346.72
2379.99,363.449
2381.44,362.31
2382.89,375.83
2384.34,420.851
2385.79,440.796
2387.24,413.444
2388.69,446.05
2390.14,477.845
2391.59,480.479
2393.04,493.384
2394.49,504.38
2395.94,531.949
2397.39,552.013
2398.84,619.976
2400.29,612.277
2401.74,598.117
2403.19,639.138
2404.64,668.103
2406.09,625.438
2407.54,697.932
2408.99,707.711
2410.44,731.74
2411.89,761.668
2413.34,781.714
2414.79,743.23
2416.24,778.333
2417.69,804.359
2419.14,833.282
2420.59,868.66
2422.04,890.18
2423.5,864.994
2424.95,892.497
2426.4,915.005
2427.85,914.181
2429.3,903.312
2430.75,894.459
2432.2,867.162
2433.65,857.787
2435.1,897.733
2436.55,906.472
2438,885.38
2439.45,863.362
2440.9,855.581
2442.35,900.436
2443.8,903.938
2445.25,818.549
2446.7,834.554
2448.15,852.73
2449.6,828.916
2451.05,833.312
2452.5,849.463
2453.95,833.29
2455.4,812.058
2456.85,782.601
2458.3,791.742
2459.75,768.313
2461.2,758.49
2462.65,768.028
2464.1,754.456
2465.55,750.702
2467.01,746.53
2468.46,741.385
2469.91,737.116
2471.36,723.678
2472.81,710.854
2474.26,736.148
2475.71,689.217
2477.16,667.048
2478.61,684.544
2480.06,679.433
2481.51,707.354
2482.96,689.889
2484.41,677.799
2485.86,657.794
2487.31,636.593
2488.76,685.765
2490.21,718.529
2491.66,697.155
2493.11,681.702
2494.56,686.148
2496.01,667.201
2497.46,678.676
2498.91,682.95
2500.36,707.073
2501.81,668.322
2503.26,693.083
2504.71,698.832
2506.16,683.378
2507.61,705.29
2509.06,715.116
2510.51,685.357
2511.97,695.542
2513.42,718.229
2514.87,691.689
2516.32,684.408
2517.77,734.776
2519.22,722.75
2520.67,719.943
2522.12,743.27
2523.57,705.088
2525.02,738.806
2526.47,786.452
2527.92,791.983
2529.37,799.361
2530.82,839.776
2532.27,824.973
2533.72,869.805
2535.17,837.493
2536.62,858.138
2538.07,849.147
2539.52,882.905
2540.97,904.774
2542.42,903.249
2543.87,942.391
2545.32,924.494
2546.77,952.123
2548.22,966.758
2549.67,997.723
2551.12,1018.56
2552.57,1010.16
2554.02,1048.86
2555.48,1083.62
2556.93,1133.76
2558.38,1174.5
2559.83,1148.99
2561.28,1149.56
2562.73,1232.16
2564.18,1279.69
2565.63,1280.19
2567.08,1348.64
2568.53,1302.54
2569.98,1408.89
2571.43,1448.79
2572.88,1490.16
2574.33,1572.84
2575.78,1618.58
2577.23,1666.71
2578.68,1700.08
2580.13,1712.18
2581.58,1780.19
2583.03,1847.44
2584.48,1965.8
2585.93,2009.5
2587.38,2073.83
2588.83,2158.11
2590.28,2177.64
2591.73,2331.07
2593.18,2424.84
2594.63,2448.63
2596.08,2539.04
2597.53,2650.55
2598.98,2757.34
2600.44,2867.77
2601.89,2966.05
2603.34,3108.44
2604.79,3239.17
2606.24,3365.82
2607.69,3535.1
2609.14,3710.21
2610.59,3830.92
2612.04,4012.52
2613.49,4068.86
2614.94,4282.32
2616.39,4558.76
2617.84,4701.59
2619.29,4905.98
2620.74,5075.82
2622.19,5324.3
2623.64,5636.86
2625.09,5805.93
2626.54,5995.47
2627.99,6319.34
2629.44,6526.32
2630.89,6806.5
2632.34,7131.09
2633.79,7222.61
2635.24,7530.34
2636.69,7907.27
2638.14,8125.45
2639.59,8438.25
2641.04,8710.62
2642.49,8941.54
2643.94,9158.24
2645.4,9371.59
2646.85,9623.02
2648.3,9860.99
2649.75,10044.4
2651.2,10321.2
2652.65,10576.5
2654.1,10732
2655.55,10747.7
2657,10858.6
2658.45,10908.7
2659.9,11012.1
2661.35,11085.6
2662.8,11104
2664.25,10972
2665.7,10913.2
2667.15,10896.7
2668.6,10853
2670.05,10653
2671.5,10572.8
2672.95,10367
2674.4,10244.6
2675.85,10070
2677.3,9830.96
2678.75,9439.18
2680.2,9094.13
2681.65,8917.29
2683.1,8650.56
2684.55,8366.74
2686,8098.3
2687.45,7792.54
2688.91,7458
2690.36,7224.12
2691.81,6959.74
2693.26,6610.05
2694.71,6477.06
2696.16,6134.48
2697.61,5929
2699.06,5648.5
2700.51,5419.02
2701.96,5155.59
2703.41,4934.9
2704.86,4673.25
2706.31,4419.39
2707.76,4263.21
2709.21,4017.5
2710.66,3863.34
2712.11,3646.23
2713.56,3494.08
2715.01,3271.79
2716.46,3162.11
2717.91,3033.36
2719.36,2918.95
2720.81,2756.53
2722.26,2628.81
2723.71,2553.78
2725.16,2436.16
2726.61,2305.75
2728.06,2180.62
2729.51,2138.17
2730.96,2067.93
2732.41,1972.74
2733.87,1906.59
2735.32,1806.57
2736.77,1686.43
2738.22,1689.95
2739.67,1601.25
2741.12,1542.69
2742.57,1473.91
2744.02,1445.23
2745.47,1427.48
2746.92,1322.71
2748.37,1322.05
2749.82,1265.04
2751.27,1241.84
2752.72,1163.5
2754.17,1147.63
2755.62,1095.77
2757.07,1067.78
2758.52,1084.21
2759.97,1054.3
2761.42,1018.23
2762.87,959.349
2764.32,973.822
2765.77,934.961
2767.22,938.529
2768.67,798.017
2770.12,843.117
2771.57,813.739
2773.02,777.829
2774.47,786.529
2775.92,764.962
2777.38,762.709
2778.83,765.92
2780.28,726.31
2781.73,720.137
2783.18,740.004
2784.63,655.852
2786.08,680.019
2787.53,673.561
2788.98,604.896
2790.43,592.992
2791.88,625.886
2793.33,597.505
2794.78,593.228
2796.23,571.342
2797.68,560.741
2799.13,583.334
2800.58,565.39
2802.03,518.435
2803.48,550.792
2804.93,515.154
2806.38,494.3
2807.83,511.244
2809.28,495.262
2810.73,476.715
2812.18,492.219
2813.63,461.708
2815.08,478.028
2816.53,474.742
2817.98,455.563
2819.43,420.351
2820.88,440
2822.33,435.721
2823.79,412.461
2825.24,409.118
2826.69,441.081
2828.14,449.467
2829.59,413.625
2831.04,426.998
2832.49,403.322
2833.94,380.462
2835.39,369.555
2836.84,384.1
2838.29,395.267
2839.74,389.09
2841.19,334.617
2842.64,365.589
2844.09,351.533
2845.54,360.353
2846.99,345.773
2848.44,359.918
2849.89,336.969
2851.34,325.006
2852.79,356.461
2854.24,387.803
2855.69,364.423
2857.14,351.457
2858.59,388.139
2860.04,355.061
2861.49,352.816
2862.94,328.409
2864.39,334.615
2865.84,339.309
2867.3,340.099
2868.75,331.188
2870.2,348.991
2871.65,368.842
2873.1,348.129
2874.55,386.792
2876,360.444
2877.45,322.345
2878.9,348.312
2880.35,351.369
2881.8,337.718
2883.25,367.787
2884.7,374.574
2886.15,373.925
2887.6,387.907
2889.05,370.238
2890.5,380.002
2891.95,373.932
2893.4,360.633
2894.85,372.759
2896.3,387.577
2897.75,382.496
2899.2,370.104
2900.65,372.804
2902.1,371.427
2903.55,378.872
2905,376.206
2906.45,386.652
2907.9,367.619
2909.35,353.688
2910.8,341.297
2912.26,363.151
2913.71,339.381
2915.16,341.145
2916.61,344.297
2918.06,348.852
2919.51,349.21
2920.96,340.616
2922.41,351.397
2923.86,349.639
2925.31,335.707
2926.76,298.203
2928.21,311.121
2929.66,307.084
2931.11,315.325
2932.56,302.897
2934.01,256.238
2935.46,287.586
2936.91,263.083
2938.36,249.233
2939.81,252.548
2941.26,261.483
2942.71,236.416
2944.16,248.657
2945.61,232.896
2947.06,233.745
2948.51,206.515
2949.96,189.208
2951.41,192.163
2952.86,188.139
2954.31,204.857
2955.77,184.996
2957.22,198.668
2958.67,164.731
2960.12,181.969
2961.57,150.883
2963.02,155.99
2964.47,158.481
2965.92,142.375
2967.37,116.76
2968.82,115.1
2970.27,147.49
2971.72,140.527
2973.17,126.47
2974.62,115.116
2976.07,97.2945
2977.52,85.4962
2978.97,77.6937
2980.42,73.7144
2981.87,55.4096
2983.32,62.4984
2984.77,91.2774
2986.22,64.517
2987.67,43.6754
2989.12,61.1433
2990.57,66.203
2992.02,56.1014
2993.47,34.552
2994.92,43.6443
2996.37,71.4511
2997.82,29.6661
2999.27,29.8256
3000.73,92.2107
3002.18,67.351
3003.63,47.0497
3005.08,68.0742
3006.53,53.9507
3007.98,29.442
3009.43,25.8431
3010.88,31.0055
3012.33,5.24546
3013.78,20.6119
3015.23,32.2847
3016.68,14.0695
3018.13,16.0958
3019.58,9.83194
3021.03,12.5999
3022.48,11.1119
3023.93,-6.11201
3025.38,1.99412
3026.83,32.2908
3028.28,-6.43668
3029.73,0.510282
3031.18,14.582
3032.63,36.9953
3034.08,4.84581
3035.53,7.8735
3036.98,-14.3341
3038.43,-5.56754
3039.88,11.7966
3041.33,6.20563
3042.78,-9.55476
3044.23,1.89091
3045.69,19.6191
3047.14,-17.8677
3048.59,6.45653
3050.04,13.5824
3051.49,13.4634
3052.94,-11.7194
3054.39,25.4799
3055.84,9.25792
3057.29,-2.74528
3058.74,1.65375
3060.19,13.7514
3061.64,2.37101
3063.09,15.5964
3064.54,29.7482
3065.99,25.1612
3067.44,42.3921
3068.89,24.2501
3070.34,51.0212
3071.79,52.5891
3073.24,50.6058
3074.69,7.02245
3076.14,36.901
3077.59,59.3902
3079.04,48.7002
3080.49,31.3725
3081.94,54.496
3083.39,72.9222
3084.84,48.284
3086.29,56.6137
3087.74,35.0224
3089.2,50.3086
3090.65,72.2161
3092.1,53.5143
3093.55,82.8573
3095,126.968
3096.45,88.5307
3097.9,117.894
3099.35,122.993
3100.8,110.985
3102.25,105.762
3103.7,130.097
3105.15,162.184
3106.6,142.147
3108.05,152.765
3109.5,159.118
3110.95,190.601
3112.4,202.857
3113.85,189.78
3115.3,158.483
3116.75,230.811
3118.2,236.354
3119.65,223.879
3121.1,238.054
3122.55,230.045
3124,235.394
3125.45,280.686
3126.9,324.941
3128.35,297.678
3129.8,308.15
3131.25,279.343
3132.7,300.961
3134.16,338.497
3135.61,342.322
3137.06,367.363
3138.51,361.297
3139.96,308.633
3141.41,325.475
3142.86,346.578
3144.31,359.957
3145.76,348.467
3147.21,360.001
3148.66,398.854
3150.11,391.615
3151.56,376.351
3153.01,375.821
3154.46,363.24
3155.91,387.424
3157.36,370.444
3158.81,392.869
3160.26,398.637
3161.71,430.738
3163.16,408.171
3164.61,404.535
3166.06,424.306
3167.51,369.927
3168.96,435.364
3170.41,431.391
3171.86,425.204
3173.31,397.752
3174.76,410.003
3176.21,432.551
3177.67,444.441
3179.12,451.058
3180.57,487.628
3182.02,503.003
3183.47,487.102
3184.92,498.996
3186.37,509.561
3187.82,522.653
3189.27,510.367
3190.72,557.228
3192.17,550.33
3193.62,592.36
3195.07,622.01
3196.52,625.476
3197.97,624.182
3199.42,642.053
3200.87,654.898
3202.32,675.601
3203.77,668.575
3205.22,663.435
3206.67,650.792
3208.12,658.5
3209.57,657.622
3211.02,656.562
3212.47,601.277
3213.92,612.146
3215.37,591.123
3216.82,610.456
3218.27,578.568
3219.72,613.078
3221.17,572.989
3222.63,530.127
3224.08,506.361
3225.53,474.974
3226.98,433.06
3228.43,430.598
3229.88,406.139
3231.33,376.253
3232.78,336.915
3234.23,329.107
3235.68,305.831
3237.13,283.458
3238.58,250.367
3240.03,231.207
3241.48,196.957
3242.93,197.248
3244.38,158.361
3245.83,138.927
3247.28,122.507
3248.73,147.893
3250.18,114.318
3251.63,115.289
3253.08,111.132
3254.53,57.7257
3255.98,71.7899
3257.43,27.92
3258.88,48.0896
3260.33,56.0743
3261.78,55.9377
3263.23,43.1975
3264.68,18.7087
3266.13,39.2016
3267.59,-4.78217
3269.04,19.4063
3270.49,24.3339
3271.94,9.53246
3273.39,-21.4253
3274.84,1.49978
3276.29,-14.0952
3277.74,-22.2873
3279.19,-4.13272
3280.64,-8.19239
3282.09,2.65008
3283.54,1.95689
3284.99,-15.5558
3286.44,7.14569
3287.89,15.2181
3289.34,-15.1945
3290.79,-14.943
3292.24,-0.936073
3293.69,-10.0872
3295.14,-42.784
3296.59,8.76728
3298.04,-2.804
3299.49,18.9873
3300.94,11.0248
3302.39,-2.84094
3303.84,-11.5022
3305.29,-10.8634
3306.74,-30.4118
3308.19,-19.1022
3309.64,-11.7978
3311.09,-31.4178
3312.55,-42.1583
3314,-27.3907
3315.45,-46.9729
3316.9,-31.6762
3318.35,-23.8069
3319.8,-6.73957
3321.25,-40.8591
3322.7,-27.3238
3324.15,-16.7027
3325.6,-30.3536
3327.05,-50.3082
3328.5,-45.6688
3329.95,-25.2987
3331.4,-22.3341
3332.85,-36.1706
3334.3,-26.8708
3335.75,-27.809
3337.2,-3.88037
3338.65,-32.4958
3340.1,-30.515
3341.55,-14.4353
3343,-16.6134
3344.45,-22.873
3345.9,-31.3463
3347.35,-45.8914
3348.8,-36.9461
3350.25,-8.61639
3351.7,-17.6716
3353.15,-31.5021
3354.6,-38.3092
3356.06,-18.2983
3357.51,-17.267
3358.96,-25.5178
3360.41,-9.44033
3361.86,9.72824
3363.31,-12.3276
3364.76,-7.67467
3366.21,-38.0892
3367.66,-5.70116
3369.11,-0.146352
3370.56,-6.98398
3372.01,2.24437
3373.46,-20.8566
3374.91,-4.68314
3376.36,-8.68124
3377.81,-24.8416
3379.26,-7.08245
3380.71,14.4192
3382.16,-18.8004
3383.61,-10.1411
3385.06,-25.8414
3386.51,-24.6148
3387.96,-19.967
3389.41,-53.7753
3390.86,-7.10283
3392.31,8.6843
3393.76,-5.54526
3395.21,-12.9675
3396.66,-39.0788
3398.11,-19.0508
3399.56,-5.98645
3401.02,-1.15089
3402.47,4.54741
3403.92,5.63225
3405.37,-11.5536
3406.82,-23.3152
3408.27,-31.9766
3409.72,-29.8229
3411.17,-14.7799
3412.62,-13.0295
3414.07,1.26419
3415.52,-17.8364
3416.97,29.8118
3418.42,10.3857
3419.87,4.43356
3421.32,37.2785
3422.77,-16.3005
3424.22,-28.4503
3425.67,-2.8618
3427.12,-4.6864
3428.57,-16.9057
3430.02,10.1046
3431.47,27.5947
3432.92,5.91404
3434.37,-2.86873
3435.82,-21.3481
3437.27,6.7544
3438.72,-11.5922
3440.17,7.48745
3441.62,14.0976
3443.07,-10.6495
3444.52,-8.51132
3445.98,-9.01278
3447.43,4.76491
3448.88,1.29019
3450.33,6.29195
3451.78,-4.80436
3453.23,-6.35598
3454.68,38.7066
3456.13,9.25426
3457.58,5.75502
3459.03,4.22695
3460.48,10.3021
3461.93,-11.0026
3463.38,-35.9335
3464.83,-19.4706
3466.28,-9.50621
3467.73,8.80416
3469.18,4.52833
3470.63,-10.0608
3472.08,-8.36101
3473.53,-11.4904
3474.98,-12.1182
3476.43,4.44784
3477.88,32.7954
3479.33,21.1413
3480.78,-15.2967
3482.23,-19.6797
3483.68,-19.1233
3485.13,26.1002
3486.58,12.757
3488.03,-6.92317
3489.49,-9.44391
3490.94,-18.4412
3492.39,-8.17592
3493.84,7.25454
3495.29,2.18296
3496.74,19.684
3498.19,16.2044
3499.64,-11.2183
3501.09,-22.5886
3502.54,-26.5859
3503.99,-11.1507
3505.44,8.45372
3506.89,-19.0169
3508.34,1.81732
3509.79,-7.99368
3511.24,11.8818
3512.69,31.4113
3514.14,13.6461
3515.59,-19.2925
3517.04,-3.7261
3518.49,-18.9403
3519.94,-42.4268
3521.39,-29.1312
3522.84,-8.42676
3524.29,-4.42066
3525.74,-5.33455
3527.19,-10.8205
3528.64,-23.9622
3530.09,-10.829
3531.54,-14.02
3532.99,-17.864
3534.45,5.28674
3535.9,-8.06679
3537.35,39.5971
3538.8,-11.2927
3540.25,-13.6324
3541.7,-12.2822
3543.15,-16.2496
3544.6,-18.2626
3546.05,-6.29231
3547.5,-16.3318
3548.95,-9.39035
3550.4,-22.8666
3551.85,-9.2746
3553.3,-12.7702
3554.75,-33.5664
3556.2,3.93864
3557.65,-29.3467
3559.1,-28.8895
3560.55,-2.05678
3562,-10.3329
3563.45,17.4093
3564.9,7.79608
3566.35,-23.1633
3567.8,-12.5772
3569.25,19.5801
3570.7,-9.58108
3572.15,-29.7105
3573.6,-48.0838
3575.05,-13.5854
3576.5,3.33371
3577.96,7.84772
3579.41,-2.33694
3580.86,-29.7822
3582.31,-19.1463
3583.76,-29.0497
3585.21,-17.8505
3586.66,0.307425
3588.11,11.6478
3589.56,-26.1713
3591.01,-32.3685
3592.46,-28.2424
3593.91,-32.667
3595.36,-52.1344
3596.81,-52.1929
3598.26,-17.3074
3599.71,-36.5302
3601.16,-23.5377
3602.61,-14.1746
3604.06,-17.9235
3605.51,-17.4384
3606.96,-26.9241
3608.41,-8.39914
3609.86,-37.4179
3611.31,-23.0684
3612.76,-13.5931
3614.21,-22.7498
3615.66,-8.61158
3617.11,-22.7647
3618.56,-21.0017
3620.01,-13.3286
3621.46,-5.40696
3622.92,-14.2706
3624.37,-1.2966
3625.82,21.4994
3627.27,-29.7114
3628.72,-8.90097
3630.17,-2.14308
3631.62,0.693442
3633.07,-22.8505
3634.52,-27.7892
3635.97,-28.798
3637.42,-11.2215
3638.87,-13.6933
3640.32,-2.37784
3641.77,-6.36159
3643.22,-1.75695
3644.67,-22.106
3646.12,-13.0757
3647.57,-11.498
3649.02,-21.5789
3650.47,-19.178
3651.92,-20.6985
3653.37,6.81057
3654.82,-25.631
3656.27,-9.52397
3657.72,-9.46152
3659.17,2.16168
3660.62,-27.0958
3662.07,2.52242
3663.52,-1.76113
3664.97,-14.208
3666.43,-23.6326
3667.88,-11.6413
3669.33,-18.6481
3670.78,-2.00851
3672.23,-14.7009
3673.68,5.31464
3675.13,7.30706
3676.58,-16.857
3678.03,-21.0245
3679.48,-15.9247
3680.93,-4.39337
3682.38,5.00407
3683.83,12.4452
3685.28,-4.2534
3686.73,-5.97466
3688.18,-33.2926
3689.63,-26.371
3691.08,-16.1669
3692.53,-28.8192
3693.98,5.30408
3695.43,-21.9156
3696.88,-3.5667
3698.33,-6.11133
3699.78,4.26306
3701.23,-25.5163
3702.68,32.5309
3704.13,-4.83283
3705.58,-6.54368
3707.03,-29.1073
3708.48,-4.96807
3709.93,-4.60431
3711.39,-9.86722
3712.84,-21.2719
3714.29,5.01218
3715.74,-17.0636
3717.19,3.56959
3718.64,-13.1381
3720.09,-10.6192
3721.54,-2.74711
3722.99,-27.7905
3724.44,-38.3496
3725.89,-13.0521
3727.34,9.58144
3728.79,-4.55573
3730.24,-6.28102
3731.69,1.06963
3733.14,-27.5428
3734.59,-21.7924
3736.04,-2.33088
3737.49,8.14039
3738.94,-16.8019
3740.39,-11.0562
3741.84,12.3118
3743.29,6.62539
3744.74,-6.00254
3746.19,-15.5932
3747.64,14.0341
3749.09,7.69707
3750.54,1.72037
3751.99,-4.70516
3753.44,5.65742
3754.89,1.6955
3756.35,-9.27301
3757.8,9.05812
3759.25,-5.81346
3760.7,5.66839
3762.15,35.5955
3763.6,2.99199
3765.05,9.95682
3766.5,-5.59222
3767.95,18.5379
3769.4,-3.85381
3770.85,0.293543
3772.3,31.334
3773.75,5.44124
3775.2,-2.17277
3776.65,-0.330104
3778.1,18.3006
3779.55,-5.95072
3781,-4.75955
3782.45,-6.78476
3783.9,8.53317
3785.35,17.4597
3786.8,10.4515
3788.25,14.8282
3789.7,-7.44787
3791.15,12.1728
3792.6,-28.5601
3794.05,24.2035
3795.5,21.4715
3796.95,11.5093
3798.4,4.92434
3799.85,6.24446
3801.31,27.1283
3802.76,10.4131
3804.21,-14.0031
3805.66,28.1803
3807.11,7.54789
3808.56,1.06489
3810.01,14.1214
3811.46,13.3326
3812.91,-1.76318
3814.36,1.43487
3815.81,32.9043
3817.26,29.2073
3818.71,16.0254
3820.16,11.2296
3821.61,13.9773
3823.06,19.1606
3824.51,23.7441
3825.96,27.7454
3827.41,14.7727
3828.86,44.455
3830.31,14.8622
3831.76,8.83346
3833.21,33.6943
3834.66,16.3643
3836.11,11.5264
3837.56,-22.799
3839.01,31.4589
3840.46,3.89158
3841.91,16.4371
3843.36,-3.91654
3844.82,0.227694
3846.27,34.2656
3847.72,51.9948
3849.17,39.3652
3850.62,23.2371
3852.07,23.8278
3853.52,29.3833
3854.97,15.0372
3856.42,34.9984
3857.87,7.00651
3859.32,15.7081
3860.77,27.7568
3862.22,2.84965
3863.67,17.8369
3865.12,18.8501
3866.57,22.5632
3868.02,4.93051
3869.47,47.4859
3870.92,11.343
3872.37,49.7398
3873.82,-7.16556
3875.27,15.8291
3876.72,18.8364
3878.17,43.7494
3879.62,14.3808
3881.07,46.8323
3882.52,52.8989
3883.97,43.2085
3885.42,16.0622
3886.87,22.4609
3888.32,40.3684
3889.78,25.0423
3891.23,54.9447
3892.68,44.0151
3894.13,67.6631
3895.58,83.8216
3897.03,44.7431
3898.48,49.935
3899.93,65.8858
3901.38,50.9254
3902.83,43.1651
3904.28,63.9825
3905.73,38.2343
3907.18,39.5682
3908.63,46.5721
3910.08,44.6822
3911.53,26.4213
3912.98,93.8365
3914.43,72.8693
3915.88,76.382
3917.33,69.1108
3918.78,62.8197
3920.23,78.8523
3921.68,74.3015
3923.13,80.1274
3924.58,52.8666
3926.03,56.5929
3927.48,76.8416
3928.93,82.7552
3930.38,84.5785
3931.83,97.7296
3933.28,66.6207
3934.74,40.4973
3936.19,78.3852
3937.64,125.364
3939.09,101.978
3940.54,90.2525
3941.99,82.5899
3943.44,93.7178
3944.89,87.3822
3946.34,93.6135
3947.79,82.7075
3949.24,83.1878
3950.69,106.124
3952.14,94.6965
3953.59,100.743
3955.04,115.838
3956.49,90.7557
3957.94,95.9057
3959.39,91.9221
3960.84,101.272
3962.29,82.168
3963.74,110.849
3965.19,113.364
3966.64,132.676
3968.09,124.788
3969.54,119.915
3970.99,105.629
3972.44,135.11
3973.89,120.683
3975.34,116.25
3976.79,105.856
3978.25,131.924
3979.7,142.004
3981.15,122.58
3982.6,118.093
3984.05,139.6
3985.5,151.357
3986.95,131.283
3988.4,143.248
3989.85,149.946
3991.3,148.76
3992.75,155.156
3994.2,161.693
3995.65,131.303
3997.1,149.464
3998.55,145.15
4000,151.93
