0.1,48.1654
1.45033,48.1654
2.90065,48.1654
4.35098,48.1654
5.80131,48.1654
7.25163,39.7364
8.70196,89.6609
10.1523,61.7458
11.6026,48.3358
13.0529,41.9445
14.5033,36.9966
15.9536,32.3798
17.4039,29.4664
18.8542,27.3373
20.3046,28.2559
21.7549,28.1789
23.2052,24.8031
24.6555,21.5635
26.1059,22.075
27.5562,21.4214
29.0065,19.2798
30.4569,16.691
31.9072,14.2595
33.3575,14.871
34.8078,15.6465
36.2582,15.3558
37.7085,14.5448
39.1588,14.931
40.6091,12.6868
42.0595,10.163
43.5098,10.0247
44.9601,13.109
46.4104,14.9909
47.8608,19.0216
49.3111,24.9412
50.7614,30.6421
52.2117,49.1624
53.6621,90.2303
55.1124,153.239
56.5627,239.931
58.0131,360.221
59.4634,470.058
60.9137,573.164
62.364,664.11
63.8144,738.857
65.2647,807.998
66.715,845.831
68.1653,868.547
69.6157,885.487
71.066,904.926
72.5163,906.06
73.9666,906.126
75.417,903.61
76.8673,898.587
78.3176,893.704
79.7679,913.657
81.2183,939.609
82.6686,968.324
84.1189,996.593
85.5693,1012.9
87.0196,1023.82
88.4699,1017.54
89.9202,1005.1
91.3706,1003.66
92.8209,966.297
94.2712,948.397
95.7215,931.192
97.1719,906.101
98.6222,871.328
100.073,854.645
101.523,846.311
102.973,831.292
104.423,802.193
105.874,766.738
107.324,770.219
108.774,758.26
110.225,739.721
111.675,729.325
113.125,726.055
114.576,717.669
116.026,705.404
117.476,692.453
118.927,681.601
120.377,651.455
121.827,644.425
123.278,646.095
124.728,641.964
126.178,614.946
127.629,595.924
129.079,583.413
130.529,572.17
131.98,561.834
133.43,559.54
134.88,551.503
136.331,547.857
137.781,542.496
139.231,534.33
140.682,539.086
142.132,518.722
143.582,501.782
145.033,494.977
146.483,497.342
147.933,486.837
149.384,477.177
150.834,458.81
152.284,442.68
153.735,443.503
155.185,455.658
156.635,429.391
158.086,428.776
159.536,436.838
160.986,405.378
162.437,407.35
163.887,409.713
165.337,416.188
166.788,418.716
168.238,401.433
169.688,406.868
171.139,405.941
172.589,401.168
174.039,396.306
175.489,396.801
176.94,386.235
178.39,380.469
179.84,383.485
181.291,388.502
182.741,373.346
184.191,361.035
185.642,355.977
187.092,349.784
188.542,342.432
189.993,349.86
191.443,351.35
192.893,349.992
194.344,347.95
195.794,347.198
197.244,349.673
198.695,353.227
200.145,347.224
201.595,342.209
203.046,343.455
204.496,338.831
205.946,353.081
207.397,353.348
208.847,349.637
210.297,348.925
211.748,337.192
213.198,338.611
214.648,334.777
216.099,328.485
217.549,323.03
218.999,315.918
220.45,309.855
221.9,301.923
223.35,301.8
224.801,313.87
226.251,324.133
227.701,320.474
229.152,318.59
230.602,315.908
232.052,309.108
233.503,298.163
234.953,315.598
236.403,312.646
237.854,307.141
239.304,310.227
240.754,299.107
242.204,295.395
243.655,300.861
245.105,296.702
246.555,283.447
248.006,306.341
249.456,299.02
250.906,299.275
252.357,298.858
253.807,293.401
255.257,290.575
256.708,300.062
258.158,300.14
259.608,299.771
261.059,302.126
262.509,300.628
263.959,284.41
265.41,283.323
266.86,292.689
268.31,301.522
269.761,293.793
271.211,295.458
272.661,286.78
274.112,284.74
275.562,292.038
277.012,299.633
278.463,285.468
279.913,286.729
281.363,282.523
282.814,274.8
284.264,275.4
285.714,273.065
287.165,271.425
288.615,272.098
290.065,270.799
291.516,263.595
292.966,260.091
294.416,267.937
295.867,266.893
297.317,262.801
298.767,261.741
300.218,251.23
301.668,259.041
303.118,261.333
304.569,264.337
306.019,267.674
307.469,250.957
308.919,257.735
310.37,255.609
311.82,252.933
313.27,250.052
314.721,236.597
316.171,230.405
317.621,226.163
319.072,233.697
320.522,240.527
321.972,225.529
323.423,231.892
324.873,234.209
326.323,233.713
327.774,231.203
329.224,229.434
330.674,240.829
332.125,236.373
333.575,232.65
335.025,232.791
336.476,234.973
337.926,231.451
339.376,233.384
340.827,231.561
342.277,226.723
343.727,227.346
345.178,247.084
346.628,224.588
348.078,220.318
349.529,221.858
350.979,222.388
352.429,220.449
353.88,230.193
355.33,222.489
356.78,221.556
358.231,225.552
359.681,226.599
361.131,217.352
362.582,219.668
364.032,223.892
365.482,227.306
366.933,226.27
368.383,216.445
369.833,218.297
371.284,209.313
372.734,210.864
374.184,217.203
375.635,213.664
377.085,217.033
378.535,219.512
379.986,221.322
381.436,222.338
382.886,222.675
384.336,223.012
385.787,220.241
387.237,220.759
388.687,218.525
390.138,213.796
391.588,212.176
393.038,214.031
394.489,215.605
395.939,216.402
397.389,219.812
398.84,224.836
400.29,213.016
401.74,213.214
403.191,212.544
404.641,220.824
406.091,229.101
407.542,210.087
408.992,217.862
410.442,217.093
411.893,213.386
413.343,213.357
414.793,220.034
416.244,222.232
417.694,212.098
419.144,210.052
420.595,205.676
422.045,202.185
423.495,220.513
424.946,225.761
426.396,210.222
427.846,202.422
429.297,205.403
430.747,211.91
432.197,217.847
433.648,207.078
435.098,202.374
436.548,209.631
437.999,218.353
439.449,206.727
440.899,216.055
442.35,209.189
443.8,209.381
445.25,210.312
446.701,205.105
448.151,213.941
449.601,210.927
451.051,205.228
452.502,206.632
453.952,213.192
455.402,214.676
456.853,213.825
458.303,202.95
459.753,208.567
461.204,214.941
462.654,209.818
464.104,205.246
465.555,213.24
467.005,210.407
468.455,208.503
469.906,206.99
471.356,202.659
472.806,209.474
474.257,206.999
475.707,207.388
477.157,207.237
478.608,210.572
480.058,226.048
481.508,212.59
482.959,212.792
484.409,207.386
485.859,206.44
487.31,213.993
488.76,208.547
490.21,212.64
491.661,203.409
493.111,203.992
494.561,211.418
496.012,212.595
497.462,207.987
498.912,206.588
500.363,198.905
501.813,199.291
503.263,208.001
504.714,212.441
506.164,205.779
507.614,198.958
509.065,196.748
510.515,198.187
511.965,201.177
513.416,203.599
514.866,199.834
516.316,198.944
517.766,207.233
519.217,208.24
520.667,196.078
522.117,197.809
523.568,203.121
525.018,206.383
526.468,207.506
527.919,205.214
529.369,199.364
530.819,194.22
532.27,197.71
533.72,197.697
535.17,201.733
536.621,208.65
538.071,210.134
539.521,193.847
540.972,202.627
542.422,208.704
543.872,207.832
545.323,203.381
546.773,201.973
548.223,204.207
549.674,202.836
551.124,205.864
552.574,208.94
554.025,210.402
555.475,211.57
556.925,204.348
558.376,207.723
559.826,206.193
561.276,202.815
562.727,202.122
564.177,205.564
565.627,207.113
567.078,204.876
568.528,197.217
569.978,201.842
571.429,211.596
572.879,194.303
574.329,197.576
575.78,198.14
577.23,198.312
578.68,200.679
580.131,203.494
581.581,201.464
583.031,206.637
584.482,199.779
585.932,202.525
587.382,205.415
588.832,203.777
590.283,206.008
591.733,208.08
593.183,215.757
594.634,209.909
596.084,204.698
597.534,205.749
598.985,202.851
600.435,204.061
601.885,210.952
603.336,210.312
604.786,204.109
606.236,200.309
607.687,205.093
609.137,195.581
610.587,201.57
612.038,198.505
613.488,201.108
614.938,208.212
616.389,204.811
617.839,203.08
619.289,191.549
620.74,203.499
622.19,211.786
623.64,207.037
625.091,200.557
626.541,209.405
627.991,205.8
629.442,203.625
630.892,205.723
632.342,209.794
633.793,211.068
635.243,205.692
636.693,210.631
638.144,205.962
639.594,213.066
641.044,214.167
642.495,200.424
643.945,209.391
645.395,216.51
646.846,212.094
648.296,214.415
649.746,217.065
651.197,215.723
652.647,217.753
654.097,219.144
655.547,218.063
656.998,212.537
658.448,208.777
659.898,206.311
661.349,202.295
662.799,217.779
664.249,219.334
665.7,216.88
667.15,219.602
668.6,222.03
670.051,216.109
671.501,210.224
672.951,222.069
674.402,223.413
675.852,218.101
677.302,221.4
678.753,230.019
680.203,214.552
681.653,223.978
683.104,229.089
684.554,227.196
686.004,222.395
687.455,220.677
688.905,225.102
690.355,226.673
691.806,229.412
693.256,223.61
694.706,222.986
696.157,224.66
697.607,222.648
699.057,224.784
700.508,228.106
701.958,237.658
703.408,235.76
704.859,229.902
706.309,228.412
707.759,229.778
709.21,220.335
710.66,217.588
712.11,224.391
713.561,222.624
715.011,221.29
716.461,230.227
717.912,223.151
719.362,219.996
720.812,223.35
722.263,224.187
723.713,230.246
725.163,237.449
726.613,230.183
728.064,226.153
729.514,230.383
730.964,229.231
732.415,227.578
733.865,227.303
735.315,226.821
736.766,224.315
738.216,238.716
739.666,234.358
741.117,226.551
742.567,227.374
744.017,228.297
745.468,216.963
746.918,229.798
748.368,228.336
749.819,222.206
751.269,226.658
752.719,228.688
754.17,222.165
755.62,224.541
757.07,235.981
758.521,233.159
759.971,222.294
761.421,223.43
762.872,229.983
764.322,227.799
765.772,224.578
767.223,231.626
768.673,238.208
770.123,228.676
771.574,224.149
773.024,230.363
774.474,233.095
775.925,221.992
777.375,228.695
778.825,232.478
780.276,231.38
781.726,230.408
783.176,229.376
784.627,224.577
786.077,232.875
787.527,232.649
788.978,228.475
790.428,236.864
791.878,240.97
793.328,235.476
794.779,242.422
796.229,232.523
797.68,237.557
799.13,236.103
800.58,234.608
802.03,236.047
803.481,241.328
804.931,250.054
806.381,237.667
807.832,243.518
809.282,237.784
810.732,234.089
812.183,235.559
813.633,237.688
815.083,239.31
816.534,241.258
817.984,241.597
819.434,245.061
820.885,242.439
822.335,241.469
823.785,246.805
825.236,240.112
826.686,236.21
828.136,245.994
829.587,240.858
831.037,243.312
832.487,254.976
833.938,258.691
835.388,242.592
836.838,252.004
838.289,258.658
839.739,249.085
841.189,249.01
842.64,256.508
844.09,259.476
845.54,260.404
846.991,252.938
848.441,252.895
849.891,254.789
851.342,255.283
852.792,259.638
854.242,264.27
855.693,251.985
857.143,235.433
858.593,254.929
860.044,261.683
861.494,261.628
862.944,257.691
864.394,255.394
865.845,261.478
867.295,261.3
868.745,259.723
870.196,263.091
871.646,255.774
873.096,250.697
874.547,250.385
875.997,245.665
877.447,251.699
878.898,247.774
880.348,260.61
881.798,263.346
883.249,260.571
884.699,259.638
886.149,260.812
887.6,257.909
889.05,244.497
890.5,255.498
891.951,258.142
893.401,256.717
894.851,258.135
896.302,261.17
897.752,258.016
899.202,256.586
900.653,267.096
902.103,263.499
903.553,266.946
905.004,267.506
906.454,268.417
907.904,283.552
909.355,287.284
910.805,284.775
912.255,279.438
913.706,265.037
915.156,264.082
916.606,269.908
918.057,271.123
919.507,279.934
920.957,258.399
922.408,266.924
923.858,281.559
925.308,282.062
926.759,276.377
928.209,279.722
929.659,292.016
931.109,286.123
932.56,286.123
934.01,288.342
935.46,292.17
936.911,281.187
938.361,276.291
939.811,287.649
941.262,283.583
942.712,296.341
944.162,289.84
945.613,290.235
947.063,277.312
948.513,273.831
949.964,283.778
951.414,286.763
952.864,277.108
954.315,283.765
955.765,291.098
957.215,290.225
958.666,288.114
960.116,285.981
961.566,284.054
963.017,282.502
964.467,274.669
965.917,284.409
967.368,284.381
968.818,285.656
970.268,280.223
971.719,275.298
973.169,278.384
974.619,283.586
976.07,288.563
977.52,282.791
978.97,295.662
980.421,292.698
981.871,292.306
983.321,291.106
984.772,285.566
986.222,294.849
987.672,281.29
989.123,292.069
990.573,287.818
992.023,288.879
993.474,289.571
994.924,287.744
996.374,288.462
997.825,292.585
999.275,286.43
1000.73,295.76
1002.18,293.797
1003.63,300.369
1005.08,306.067
1006.53,308.383
1007.98,309.686
1009.43,304.319
1010.88,299.424
1012.33,302.587
1013.78,320.127
1015.23,315.813
1016.68,311.754
1018.13,315.05
1019.58,316.434
1021.03,314.878
1022.48,310.592
1023.93,328.201
1025.38,326.526
1026.83,336.798
1028.28,333.134
1029.73,326.595
1031.18,329.914
1032.63,325.467
1034.08,326.974
1035.53,330.247
1036.98,351.341
1038.43,355.578
1039.88,350.891
1041.33,352.612
1042.78,355.103
1044.23,347.711
1045.69,361.32
1047.14,356.587
1048.59,353.548
1050.04,359.018
1051.49,357.684
1052.94,360.985
1054.39,370.998
1055.84,375.368
1057.29,372.965
1058.74,381.531
1060.19,385.276
1061.64,380.913
1063.09,391.005
1064.54,398.363
1065.99,400.198
1067.44,404.617
1068.89,412.419
1070.34,425.333
1071.79,419.492
1073.24,414.146
1074.69,406.162
1076.14,408.751
1077.59,417.514
1079.04,423.492
1080.49,424.692
1081.94,422.885
1083.39,408.082
1084.84,435.152
1086.29,432.757
1087.74,421.089
1089.2,425.059
1090.65,429.849
1092.1,422.133
1093.55,417.49
1095,416.123
1096.45,410.815
1097.9,409.094
1099.35,411.6
1100.8,410.272
1102.25,415.377
1103.7,406.613
1105.15,390.493
1106.6,423.862
1108.05,420.502
1109.5,402.334
1110.95,401.191
1112.4,399.375
1113.85,402.246
1115.3,405.651
1116.75,403.179
1118.2,397.124
1119.65,395.41
1121.1,385.368
1122.55,402.257
1124,388.856
1125.45,384.6
1126.9,391.424
1128.35,390.882
1129.8,387.878
1131.25,391.798
1132.7,377.568
1134.16,390.615
1135.61,396.314
1137.06,380.702
1138.51,380.414
1139.96,376.512
1141.41,375.305
1142.86,375.642
1144.31,370.961
1145.76,380.931
1147.21,376.661
1148.66,368.735
1150.11,380.426
1151.56,374.756
1153.01,364.145
1154.46,365.296
1155.91,370.429
1157.36,370.722
1158.81,381.242
1160.26,378.958
1161.71,357.546
1163.16,377.139
1164.61,373.083
1166.06,372.008
1167.51,376.88
1168.96,376.81
1170.41,371.339
1171.86,370.151
1173.31,366.959
1174.76,363.081
1176.21,370.938
1177.66,368.256
1179.12,367.858
1180.57,369.993
1182.02,373.02
1183.47,373.523
1184.92,372.794
1186.37,383.22
1187.82,373.222
1189.27,379.696
1190.72,377.524
1192.17,374.331
1193.62,373.222
1195.07,366.74
1196.52,367.079
1197.97,381.604
1199.42,385.694
1200.87,381.907
1202.32,385.06
1203.77,365.157
1205.22,377.39
1206.67,378.88
1208.12,369.811
1209.57,370.878
1211.02,377.629
1212.47,376.422
1213.92,385.382
1215.37,374.178
1216.82,385.696
1218.27,382.587
1219.72,391.541
1221.17,390.372
1222.63,382.806
1224.08,383.491
1225.53,386.826
1226.98,376.904
1228.43,371.97
1229.88,394.749
1231.33,378.374
1232.78,397.653
1234.23,390.877
1235.68,397.119
1237.13,402.258
1238.58,403.279
1240.03,404.757
1241.48,402.567
1242.93,416.463
1244.38,402.877
1245.83,390.762
1247.28,398.806
1248.73,418.946
1250.18,416.904
1251.63,406.491
1253.08,408.752
1254.53,416.191
1255.98,415.598
1257.43,427.387
1258.88,434.142
1260.33,422.941
1261.78,432.012
1263.23,436.473
1264.68,431.041
1266.13,434.784
1267.59,447.115
1269.04,458.02
1270.49,461.062
1271.94,455.14
1273.39,475.478
1274.84,469.674
1276.29,469.602
1277.74,482.519
1279.19,482.347
1280.64,493.659
1282.09,502.654
1283.54,511.198
1284.99,525.903
1286.44,528.109
1287.89,535.211
1289.34,519.411
1290.79,553.507
1292.24,566.4
1293.69,569.723
1295.14,585.227
1296.59,605.122
1298.04,614.381
1299.49,624.372
1300.94,649.087
1302.39,665.55
1303.84,667.537
1305.29,679.359
1306.74,702.562
1308.19,714.695
1309.64,739.758
1311.09,772.336
1312.55,800.847
1314,821.996
1315.45,847.644
1316.9,879.14
1318.35,894.4
1319.8,932.268
1321.25,945.054
1322.7,954.57
1324.15,1001.22
1325.6,1000.47
1327.05,995.923
1328.5,995.492
1329.95,1001.94
1331.4,1017.55
1332.85,1026.01
1334.3,1018.8
1335.75,1020
1337.2,985.719
1338.65,977.783
1340.1,947.52
1341.55,944.284
1343,923.372
1344.45,890.345
1345.9,875.606
1347.35,868.092
1348.8,837.026
1350.25,795.785
1351.7,767.279
1353.15,760.99
1354.6,767.029
1356.06,743.699
1357.51,695.67
1358.96,670.123
1360.41,667.61
1361.86,661.812
1363.31,651.349
1364.76,645.7
1366.21,630.686
1367.66,598.571
1369.11,592.094
1370.56,601.747
1372.01,586.613
1373.46,585.488
1374.91,573.68
1376.36,578.617
1377.81,572.242
1379.26,557.051
1380.71,549.135
1382.16,549.649
1383.61,555.063
1385.06,541.238
1386.51,522.234
1387.96,541.178
1389.41,542.946
1390.86,553.399
1392.31,551.272
1393.76,534.142
1395.21,539.903
1396.66,537.807
1398.11,532.067
1399.56,552.5
1401.02,556.068
1402.47,553.028
1403.92,549.497
1405.37,557.288
1406.82,561.956
1408.27,561.69
1409.72,549.66
1411.17,565.625
1412.62,570.724
1414.07,553.292
1415.52,550.608
1416.97,566.536
1418.42,569.949
1419.87,583.004
1421.32,583.402
1422.77,587.962
1424.22,571.582
1425.67,580.103
1427.12,607.842
1428.57,593.298
1430.02,592.411
1431.47,602.093
1432.92,604.217
1434.37,607.867
1435.82,617.484
1437.27,627.911
1438.72,651.821
1440.17,636.171
1441.62,629.301
1443.07,641.626
1444.53,630.394
1445.98,648.536
1447.43,666.56
1448.88,673.926
1450.33,666.203
1451.78,664.416
1453.23,684.187
1454.68,703.41
1456.13,703.554
1457.58,709.246
1459.03,718.399
1460.48,732.551
1461.93,716.052
1463.38,750.941
1464.83,763.728
1466.28,763.497
1467.73,772.782
1469.18,785.416
1470.63,805.928
1472.08,832.119
1473.53,847.205
1474.98,852.907
1476.43,862.068
1477.88,881.829
1479.33,870.856
1480.78,909.436
1482.23,927.791
1483.68,942.546
1485.13,979.132
1486.58,991.537
1488.03,999.68
1489.49,1034.17
1490.94,1063.27
1492.39,1073.09
1493.84,1092.22
1495.29,1118.79
1496.74,1169.09
1498.19,1190.54
1499.64,1236.1
1501.09,1230.91
1502.54,1311.63
1503.99,1366.38
1505.44,1407.06
1506.89,1466.3
1508.34,1525.48
1509.79,1583.62
1511.24,1650.68
1512.69,1729.72
1514.14,1820.63
1515.59,1917.42
1517.04,2014.47
1518.49,2119.44
1519.94,2236.16
1521.39,2402.37
1522.84,2583.55
1524.29,2735.77
1525.74,2903.68
1527.19,3164.13
1528.64,3406.05
1530.09,3637.94
1531.54,3918.21
1532.99,4238.69
1534.45,4595.45
1535.9,4981.94
1537.35,5345.92
1538.8,5774.15
1540.25,6155.11
1541.7,6650.78
1543.15,7152.23
1544.6,7741.23
1546.05,8161.31
1547.5,8617.7
1548.95,9106.11
1550.4,9647
1551.85,10090.7
1553.3,10106.8
1554.75,10123.3
1556.2,10152.3
1557.65,10177.1
1559.1,10195.3
1560.55,10259.9
1562,10228.4
1563.45,10220.4
1564.9,10215.8
1566.35,10196.6
1567.8,10117.7
1569.25,9616.96
1570.7,9057.95
1572.15,8491.33
1573.6,7935.31
1575.05,7392.7
1576.5,6835.89
1577.96,6289.2
1579.41,5805.82
1580.86,5373.36
1582.31,4944.05
1583.76,4524.98
1585.21,4223.97
1586.66,3901.48
1588.11,3653.44
1589.56,3394.19
1591.01,3174.12
1592.46,2953.39
1593.91,2793.13
1595.36,2611.67
1596.81,2473.43
1598.26,2350.28
1599.71,2216.7
1601.16,2105.48
1602.61,2002.46
1604.06,1896.84
1605.51,1804.94
1606.96,1723.38
1608.41,1635.89
1609.86,1588.49
1611.31,1516.48
1612.76,1440.69
1614.21,1407.96
1615.66,1350.53
1617.11,1294.88
1618.56,1249.11
1620.01,1214.19
1621.46,1185.53
1622.92,1144.22
1624.37,1101.88
1625.82,1063.18
1627.27,1045.85
1628.72,1028.4
1630.17,986.331
1631.62,963.798
1633.07,965.444
1634.52,935.222
1635.97,935.446
1637.42,919.541
1638.87,881.316
1640.32,871.551
1641.77,866.048
1643.22,852.716
1644.67,834.999
1646.12,819.108
1647.57,813.386
1649.02,799.493
1650.47,784.804
1651.92,777.503
1653.37,777.694
1654.82,770.308
1656.27,775.552
1657.72,754.603
1659.17,750.602
1660.62,728.381
1662.07,718.607
1663.52,705.68
1664.97,712.824
1666.42,692.872
1667.88,693.722
1669.33,676.186
1670.78,665.12
1672.23,679.36
1673.68,679.931
1675.13,673.916
1676.58,664.169
1678.03,663.71
1679.48,668.983
1680.93,657.054
1682.38,640.306
1683.83,650.199
1685.28,632.309
1686.73,622.227
1688.18,610.868
1689.63,616.256
1691.08,631.46
1692.53,628.241
1693.98,611.015
1695.43,613.749
1696.88,622.326
1698.33,618.947
1699.78,614.617
1701.23,611.965
1702.68,616.332
1704.13,606.099
1705.58,613.859
1707.03,604.556
1708.48,615.871
1709.93,585.275
1711.39,591.266
1712.84,614.104
1714.29,597.717
1715.74,588.979
1717.19,596.362
1718.64,605.433
1720.09,597.708
1721.54,603.414
1722.99,603.918
1724.44,591.264
1725.89,596.884
1727.34,599.852
1728.79,586.29
1730.24,592.48
1731.69,591.275
1733.14,588.547
1734.59,576.951
1736.04,600.604
1737.49,582.848
1738.94,567.535
1740.39,562.417
1741.84,556.523
1743.29,555.711
1744.74,566.532
1746.19,566.903
1747.64,569.485
1749.09,554.89
1750.54,564.243
1751.99,556.084
1753.44,536.378
1754.89,542.391
1756.35,549.134
1757.8,538.398
1759.25,542.143
1760.7,547.296
1762.15,528.009
1763.6,535.703
1765.05,532.828
1766.5,536.587
1767.95,525.517
1769.4,522.261
1770.85,518.076
1772.3,532.14
1773.75,511.458
1775.2,526.13
1776.65,509.939
1778.1,508.124
1779.55,513.21
1781,507.126
1782.45,513.363
1783.9,515.969
1785.35,514.538
1786.8,513.944
1788.25,521.732
1789.7,514.691
1791.15,506.543
1792.6,511.087
1794.05,498.844
1795.5,500.383
1796.95,506.459
1798.4,518.766
1799.85,521.728
1801.31,507.091
1802.76,493.529
1804.21,497.306
1805.66,507.031
1807.11,506.435
1808.56,488.737
1810.01,494.299
1811.46,482.385
1812.91,479.844
1814.36,498.707
1815.81,499.932
1817.26,499.146
1818.71,486.929
1820.16,485.076
1821.61,491.642
1823.06,490.516
1824.51,495.321
1825.96,499.319
1827.41,499.147
1828.86,501.425
1830.31,499.501
1831.76,506.208
1833.21,507.946
1834.66,495.062
1836.11,508.1
1837.56,497.991
1839.01,498.962
1840.46,507.594
1841.91,505.432
1843.36,521.901
1844.82,512.561
1846.27,506.574
1847.72,503.5
1849.17,517.949
1850.62,509.344
1852.07,526.081
1853.52,508.807
1854.97,511.861
1856.42,517.331
1857.87,521.914
1859.32,523.941
1860.77,519.208
1862.22,506.609
1863.67,509.421
1865.12,514.238
1866.57,519.114
1868.02,518.518
1869.47,507.914
1870.92,510.822
1872.37,517.918
1873.82,519.56
1875.27,524.214
1876.72,510.891
1878.17,502.493
1879.62,504.162
1881.07,509.171
1882.52,512.676
1883.97,503.041
1885.42,507.941
1886.87,494.308
1888.32,504.307
1889.78,512.948
1891.23,480.807
1892.68,487.428
1894.13,487.421
1895.58,491.452
1897.03,489.083
1898.48,493.985
1899.93,483.358
1901.38,477.664
1902.83,478.855
1904.28,481.022
1905.73,475.993
1907.18,485.806
1908.63,483.072
1910.08,492.263
1911.53,485.033
1912.98,472.141
1914.43,479.29
1915.88,481.132
1917.33,477.091
1918.78,477.65
1920.23,478.307
1921.68,477.332
1923.13,471.485
1924.58,473.854
1926.03,477.096
1927.48,473.954
1928.93,481.704
1930.38,472.475
1931.83,485.552
1933.29,466.158
1934.74,474.087
1936.19,473.388
1937.64,466.301
1939.09,470.286
1940.54,468.494
1941.99,481.329
1943.44,470.157
1944.89,474.375
1946.34,476.195
1947.79,478.414
1949.24,464.248
1950.69,480.92
1952.14,484.653
1953.59,492.517
1955.04,497.66
1956.49,479.231
1957.94,483.11
1959.39,479.675
1960.84,468.101
1962.29,489.042
1963.74,481.305
1965.19,490.019
1966.64,492.668
1968.09,478.976
1969.54,477.589
1970.99,475.868
1972.44,478.848
1973.89,484.856
1975.34,492.558
1976.79,502.225
1978.25,503.351
1979.7,497.35
1981.15,495.643
1982.6,500.056
1984.05,501.527
1985.5,491.689
1986.95,489.272
1988.4,496.851
1989.85,491.496
1991.3,496.441
1992.75,497.352
1994.2,487.294
1995.65,499.688
1997.1,483.18
1998.55,487.355
2000,484.027
2001.45,494.628
2002.9,496.746
2004.35,508.286
2005.8,500.091
2007.25,489.302
2008.7,493.33
2010.15,488.839
2011.6,481.362
2013.05,476.323
2014.5,478.308
2015.95,487.681
2017.4,482.344
2018.85,477.983
2020.3,490.72
2021.75,498.022
2023.21,499.613
2024.66,493.188
2026.11,469.51
2027.56,504.051
2029.01,474.803
2030.46,481.339
2031.91,468.981
2033.36,486.857
2034.81,463.983
2036.26,500.087
2037.71,473.35
2039.16,481.502
2040.61,478.82
2042.06,462.771
2043.51,480.618
2044.96,480.18
2046.41,460.244
2047.86,460.508
2049.31,482.824
2050.76,457.308
2052.21,460.065
2053.66,452.435
2055.11,459.577
2056.56,469.365
2058.01,469.253
2059.46,466.228
2060.91,454.226
2062.36,451.877
2063.81,455.132
2065.26,455.406
2066.72,461.584
2068.17,459.566
2069.62,453.858
2071.07,462.175
2072.52,451.217
2073.97,452.158
2075.42,455.047
2076.87,456.131
2078.32,466.97
2079.77,462.795
2081.22,456.008
2082.67,447.116
2084.12,450.29
2085.57,451.819
2087.02,444.712
2088.47,451.332
2089.92,452.077
2091.37,452.6
2092.82,449.769
2094.27,454.337
2095.72,456.797
2097.17,452.442
2098.62,454.692
2100.07,445.374
2101.52,456.587
2102.97,458.147
2104.42,451.962
2105.87,457.437
2107.32,460.293
2108.77,461.574
2110.22,465.605
2111.68,468.562
2113.13,467.086
2114.58,458.977
2116.03,455.055
2117.48,455.215
2118.93,460.469
2120.38,466.319
2121.83,463.356
2123.28,466.06
2124.73,470.838
2126.18,471.948
2127.63,469.359
2129.08,467.506
2130.53,472.333
2131.98,474.265
2133.43,461.018
2134.88,463.327
2136.33,474.021
2137.78,467.495
2139.23,465.722
2140.68,468.097
2142.13,469.998
2143.58,482.429
2145.03,477.578
2146.48,475.005
2147.93,475.053
2149.38,474.665
2150.83,483.473
2152.28,480.286
2153.73,481.004
2155.18,485.734
2156.64,485.616
2158.09,480.216
2159.54,491.3
2160.99,489.938
2162.44,487.149
2163.89,498.033
2165.34,493.834
2166.79,491.366
2168.24,488.973
2169.69,490.603
2171.14,494.559
2172.59,489.319
2174.04,493.306
2175.49,506.488
2176.94,500.352
2178.39,504.755
2179.84,507.244
2181.29,502.356
2182.74,497.033
2184.19,502.591
2185.64,496.024
2187.09,496.089
2188.54,495.021
2189.99,497.543
2191.44,497.649
2192.89,499.25
2194.34,504.956
2195.79,514.176
2197.24,503.339
2198.69,508.008
2200.15,504.248
2201.6,505.484
2203.05,496.299
2204.5,498.328
2205.95,507.45
2207.4,511.009
2208.85,505.379
2210.3,508.502
2211.75,517.563
2213.2,529.303
2214.65,509.31
2216.1,521.914
2217.55,520.13
2219,508.878
2220.45,520.755
2221.9,518.986
2223.35,522.231
2224.8,529.664
2226.25,539.549
2227.7,519.863
2229.15,528.619
2230.6,537.669
2232.05,522.695
2233.5,517.154
2234.95,510.344
2236.4,534.593
2237.85,541.522
2239.3,526.74
2240.75,531.296
2242.2,535.704
2243.65,520.875
2245.11,536.551
2246.56,544.881
2248.01,538.881
2249.46,531.713
2250.91,545.237
2252.36,545.387
2253.81,561.152
2255.26,546.491
2256.71,536.768
2258.16,546.075
2259.61,559.241
2261.06,550.005
2262.51,535.729
2263.96,547.364
2265.41,561.552
2266.86,552.913
2268.31,563.282
2269.76,557.732
2271.21,549.944
2272.66,564.283
2274.11,561.699
2275.56,552.714
2277.01,558.438
2278.46,559.788
2279.91,559.788
2281.36,556.948
2282.81,569.903
2284.26,574.635
2285.71,568.653
2287.16,560.959
2288.61,573.669
2290.07,580.176
2291.52,589.961
2292.97,585.374
2294.42,587.834
2295.87,587.189
2297.32,577.216
2298.77,579.857
2300.22,582.318
2301.67,569.854
2303.12,593.86
2304.57,596.316
2306.02,595.261
2307.47,580.154
2308.92,587.019
2310.37,607.696
2311.82,603.711
2313.27,596.287
2314.72,586.49
2316.17,597.731
2317.62,598.826
2319.07,632.892
2320.52,619.722
2321.97,612.808
2323.42,633.124
2324.87,619.749
2326.32,626.312
2327.77,632.67
2329.22,628.29
2330.67,627.919
2332.12,642.114
2333.57,642.806
2335.03,652.597
2336.48,627.214
2337.93,639.167
2339.38,651.353
2340.83,650.425
2342.28,660.68
2343.73,662.621
2345.18,659.01
2346.63,671.618
2348.08,661.49
2349.53,661.892
2350.98,686.389
2352.43,687.689
2353.88,697.557
2355.33,695.522
2356.78,698.645
2358.23,714.351
2359.68,713.131
2361.13,705.091
2362.58,707.641
2364.03,730.989
2365.48,733.558
2366.93,769.054
2368.38,730.89
2369.83,748.413
2371.28,745.677
2372.73,772.99
2374.18,777.529
2375.63,787.215
2377.08,800.41
2378.54,804.28
2379.99,814.528
2381.44,827.365
2382.89,833.799
2384.34,839.037
2385.79,839.782
2387.24,856.341
2388.69,863.715
2390.14,880.969
2391.59,902.65
2393.04,900.466
2394.49,887.316
2395.94,898.397
2397.39,930.39
2398.84,962.672
2400.29,944.938
2401.74,967.083
2403.19,968.672
2404.64,997.578
2406.09,1010.58
2407.54,991.272
2408.99,999.464
2410.44,1008.92
2411.89,998.331
2413.34,1027.68
2414.79,1043.47
2416.24,1028.25
2417.69,1018.33
2419.14,1030.59
2420.59,1027.68
2422.04,1000.11
2423.5,1019.2
2424.95,1029.49
2426.4,1012.94
2427.85,1001.93
2429.3,1007.88
2430.75,1017.35
2432.2,1016.48
2433.65,1004.21
2435.1,982.235
2436.55,1004.09
2438,987.234
2439.45,987.308
2440.9,996.097
2442.35,982.326
2443.8,984.296
2445.25,969.077
2446.7,984.552
2448.15,971.502
2449.6,963.764
2451.05,950.54
2452.5,956.598
2453.95,937.556
2455.4,959.974
2456.85,940.295
2458.3,940.792
2459.75,949.746
2461.2,953.793
2462.65,943.928
2464.1,943.688
2465.55,936.24
2467.01,935.173
2468.46,940.171
2469.91,940.32
2471.36,935.479
2472.81,939.691
2474.26,944.342
2475.71,934.445
2477.16,951.186
2478.61,956.027
2480.06,968.457
2481.51,963.74
2482.96,964.567
2484.41,945.153
2485.86,968.357
2487.31,979.57
2488.76,975.367
2490.21,970.699
2491.66,967.894
2493.11,966.611
2494.56,976.451
2496.01,960.107
2497.46,958.303
2498.91,968.357
2500.36,970.923
2501.81,965.064
2503.26,992.91
2504.71,996.039
2506.16,1007.19
2507.61,1027.32
2509.06,989.997
2510.51,1038.19
2511.97,1020.34
2513.42,1031.1
2514.87,1045.64
2516.32,1059.47
2517.77,1058.24
2519.22,1065.3
2520.67,1084.68
2522.12,1093.95
2523.57,1110.67
2525.02,1107.94
2526.47,1120.21
2527.92,1126
2529.37,1108.16
2530.82,1135.45
2532.27,1159.11
2533.72,1152.58
2535.17,1161.26
2536.62,1180.84
2538.07,1211.43
2539.52,1194.4
2540.97,1229.51
2542.42,1233.59
2543.87,1288.53
2545.32,1297.91
2546.77,1292.37
2548.22,1321.59
2549.67,1338.72
2551.12,1351.69
2552.57,1353.98
2554.02,1384.76
2555.48,1414.04
2556.93,1450.39
2558.38,1467.96
2559.83,1484.28
2561.28,1508.19
2562.73,1563.71
2564.18,1580.67
2565.63,1610.39
2567.08,1649.95
2568.53,1671.3
2569.98,1718.9
2571.43,1782.36
2572.88,1816.09
2574.33,1814.89
2575.78,1871.91
2577.23,1921.25
2578.68,1960.42
2580.13,2015.92
2581.58,2061.06
2583.03,2098.16
2584.48,2158.79
2585.93,2211.01
2587.38,2255.3
2588.83,2344.49
2590.28,2433.14
2591.73,2524.8
2593.18,2555.67
2594.63,2623.24
2596.08,2717.35
2597.53,2789.78
2598.98,2912.46
2600.44,2995.32
2601.89,3104.89
2603.34,3216.09
2604.79,3309.71
2606.24,3435.45
2607.69,3521.86
2609.14,3666.89
2610.59,3741.06
2612.04,3895.78
2613.49,3999.37
2614.94,4158.99
2616.39,4285.38
2617.84,4381.74
2619.29,4518.5
2620.74,4647.12
2622.19,4777.08
2623.64,4942.15
2625.09,5022.7
2626.54,5149.72
2627.99,5278.31
2629.44,5430.62
2630.89,5572.24
2632.34,5703.7
2633.79,5801.17
2635.24,5973.66
2636.69,6012.02
2638.14,6105.87
2639.59,6229.71
2641.04,6266.85
2642.49,6345.93
2643.94,6391.8
2645.4,6410.27
2646.85,6437.33
2648.3,6451.23
2649.75,6407.08
2651.2,6416.11
2652.65,6336.65
2654.1,6367.45
2655.55,6276.24
2657,6221.08
2658.45,6115.08
2659.9,6008.24
2661.35,5897.3
2662.8,5800.45
2664.25,5665.69
2665.7,5584.71
2667.15,5486.15
2668.6,5315.12
2670.05,5206.09
2671.5,5084.9
2672.95,4869.58
2674.4,4783.63
2675.85,4636.37
2677.3,4468.19
2678.75,4345.94
2680.2,4250.63
2681.65,4052.63
2683.1,3940.6
2684.55,3807.93
2686,3708.58
2687.45,3572.23
2688.91,3426.52
2690.36,3304.54
2691.81,3204.5
2693.26,3099.01
2694.71,2941.39
2696.16,2851.4
2697.61,2813.93
2699.06,2670.65
2700.51,2602.47
2701.96,2558.39
2703.41,2464.38
2704.86,2350.97
2706.31,2286.32
2707.76,2190.76
2709.21,2159.92
2710.66,2091.14
2712.11,2014.85
2713.56,1963.92
2715.01,1930.55
2716.46,1869.11
2717.91,1824.78
2719.36,1767.54
2720.81,1740.36
2722.26,1706.37
2723.71,1648.8
2725.16,1597.22
2726.61,1566.43
2728.06,1545.33
2729.51,1523.04
2730.96,1483.73
2732.41,1432.68
2733.87,1433.39
2735.32,1384.56
2736.77,1370.15
2738.22,1345.12
2739.67,1327.97
2741.12,1309.89
2742.57,1268.13
2744.02,1256.68
2745.47,1255.08
2746.92,1216.78
2748.37,1217.39
2749.82,1185.64
2751.27,1188.93
2752.72,1156.18
2754.17,1160.17
2755.62,1131.01
2757.07,1101.82
2758.52,1094.12
2759.97,1089.51
2761.42,1062.73
2762.87,1054.89
2764.32,1059.41
2765.77,1042.32
2767.22,1004.95
2768.67,1043.4
2770.12,1017.64
2771.57,1010.78
2773.02,996.427
2774.47,998.397
2775.92,993.085
2777.38,976.649
2778.83,975.755
2780.28,962.597
2781.73,954.67
2783.18,940.552
2784.63,941.81
2786.08,933.534
2787.53,903.825
2788.98,918.879
2790.43,928.743
2791.88,915.362
2793.33,902.832
2794.78,888.723
2796.23,886.282
2797.68,895.145
2799.13,883.137
2800.58,884.105
2802.03,872.669
2803.48,866.056
2804.93,874.803
2806.38,860.785
2807.83,843.762
2809.28,850.201
2810.73,840.27
2812.18,847.784
2813.63,848.364
2815.08,855.249
2816.53,832.574
2817.98,839.211
2819.43,848.356
2820.88,832.971
2822.33,820.229
2823.79,827.515
2825.24,817.46
2826.69,810.148
2828.14,804.715
2829.59,806.454
2831.04,818.361
2832.49,824.315
2833.94,787.018
2835.39,784.927
2836.84,787.35
2838.29,780.459
2839.74,780.463
2841.19,785.295
2842.64,799.13
2844.09,796.191
2845.54,787.159
2846.99,782.61
2848.44,780.453
2849.89,768.796
2851.34,781.501
2852.79,773.023
2854.24,764.438
2855.69,775.34
2857.14,794.218
2858.59,773.384
2860.04,762.94
2861.49,773.862
2862.94,758.545
2864.39,760.423
2865.84,777.047
2867.3,773.104
2868.75,771.58
2870.2,771.407
2871.65,757.563
2873.1,762.84
2874.55,778.589
2876,770.843
2877.45,773.222
2878.9,775.021
2880.35,770.527
2881.8,753.251
2883.25,759.597
2884.7,760.912
2886.15,760.771
2887.6,758.682
2889.05,751.587
2890.5,763.934
2891.95,771.141
2893.4,764.085
2894.85,768.703
2896.3,768.35
2897.75,757.422
2899.2,755.73
2900.65,754.634
2902.1,749.831
2903.55,746.658
2905,747.505
2906.45,749.749
2907.9,751.861
2909.35,745.367
2910.8,732.056
2912.26,731.465
2913.71,738.826
2915.16,713.391
2916.61,743.019
2918.06,732.403
2919.51,715.872
2920.96,731.921
2922.41,728.525
2923.86,726.701
2925.31,720.309
2926.76,709.116
2928.21,704.08
2929.66,702.344
2931.11,698.356
2932.56,690.656
2934.01,706.211
2935.46,691.748
2936.91,691.743
2938.36,688.901
2939.81,680.82
2941.26,673.337
2942.71,679.685
2944.16,682.747
2945.61,680.353
2947.06,679.266
2948.51,681.74
2949.96,666.785
2951.41,664.876
2952.86,675.697
2954.31,664.154
2955.77,659.716
2957.22,668.198
2958.67,660.592
2960.12,649.832
2961.57,680.276
2963.02,658.99
2964.47,655.949
2965.92,653.402
2967.37,657.34
2968.82,655.544
2970.27,661.534
2971.72,645.377
2973.17,647.21
2974.62,646.463
2976.07,639.133
2977.52,639.742
2978.97,645.074
2980.42,638.658
2981.87,648.981
2983.32,654.537
2984.77,647.038
2986.22,636.403
2987.67,643.633
2989.12,648.931
2990.57,652.251
2992.02,645.727
2993.47,635.11
2994.92,640.804
2996.37,651.849
2997.82,648.926
2999.27,655.061
3000.73,632.13
3002.18,646.34
3003.63,633.971
3005.08,642.312
3006.53,639.109
3007.98,623.682
3009.43,620.592
3010.88,628.987
3012.33,639.88
3013.78,653.5
3015.23,624.793
3016.68,635.993
3018.13,626.731
3019.58,635.561
3021.03,636.936
3022.48,625.902
3023.93,639.303
3025.38,651.604
3026.83,632.576
3028.28,641.101
3029.73,657.799
3031.18,659.5
3032.63,648.435
3034.08,660.141
3035.53,663.625
3036.98,624.583
3038.43,652.421
3039.88,655.955
3041.33,651.008
3042.78,649.79
3044.23,640.456
3045.69,640.298
3047.14,636.25
3048.59,649.844
3050.04,658.694
3051.49,640.238
3052.94,638.421
3054.39,651.616
3055.84,662.685
3057.29,659.171
3058.74,648.893
3060.19,665.089
3061.64,673.154
3063.09,678.198
3064.54,682.179
3065.99,679.134
3067.44,661.979
3068.89,676.291
3070.34,688.971
3071.79,708.941
3073.24,678.76
3074.69,694.246
3076.14,693.035
3077.59,697.638
3079.04,718.417
3080.49,717.325
3081.94,732.281
3083.39,726.467
3084.84,744.24
3086.29,733.226
3087.74,740.267
3089.2,743.957
3090.65,756.482
3092.1,761.042
3093.55,764.39
3095,761.755
3096.45,766.95
3097.9,779.021
3099.35,797.281
3100.8,804.925
3102.25,796.886
3103.7,821.294
3105.15,826.295
3106.6,817.227
3108.05,837.879
3109.5,821.649
3110.95,837.647
3112.4,841.991
3113.85,866.925
3115.3,863.069
3116.75,872.826
3118.2,866.272
3119.65,880.199
3121.1,886.472
3122.55,888.541
3124,893.25
3125.45,889.666
3126.9,898.877
3128.35,912.912
3129.8,900.383
3131.25,901.947
3132.7,915.875
3134.16,909.022
3135.61,908.725
3137.06,924.82
3138.51,901.897
3139.96,916.561
3141.41,922.073
3142.86,911.389
3144.31,928.453
3145.76,928.743
3147.21,931.763
3148.66,918.217
3150.11,917.05
3151.56,903.263
3153.01,912.2
3154.46,928.478
3155.91,934.345
3157.36,944.077
3158.81,954.628
3160.26,926.21
3161.71,943.862
3163.16,953.784
3164.61,951.401
3166.06,941.859
3167.51,969.756
3168.96,962.275
3170.41,961.513
3171.86,976.177
3173.31,984.023
3174.76,989.344
3176.21,972.462
3177.67,988.301
3179.12,981.838
3180.57,995.939
3182.02,1019.3
3183.47,1005.96
3184.92,984.875
3186.37,999.82
3187.82,995.41
3189.27,979.107
3190.72,1001.14
3192.17,982.781
3193.62,976.31
3195.07,971.436
3196.52,969.648
3197.97,946.634
3199.42,908.145
3200.87,926.914
3202.32,919.334
3203.77,905.224
3205.22,904.123
3206.67,890.626
3208.12,880.571
3209.57,862.018
3211.02,840.85
3212.47,859.809
3213.92,830.663
3215.37,807.463
3216.82,808.609
3218.27,792.201
3219.72,776.864
3221.17,778.609
3222.63,772.71
3224.08,771.005
3225.53,757.702
3226.98,752.006
3228.43,716.112
3229.88,738.788
3231.33,720.593
3232.78,701.849
3234.23,686.913
3235.68,693.135
3237.13,689.733
3238.58,687.379
3240.03,666.792
3241.48,657.623
3242.93,662.523
3244.38,670.907
3245.83,666.778
3247.28,668.446
3248.73,652.19
3250.18,658.478
3251.63,655.753
3253.08,655.025
3254.53,646.293
3255.98,622.658
3257.43,636.075
3258.88,635.771
3260.33,629.396
3261.78,628.817
3263.23,625.993
3264.68,640.577
3266.13,631.533
3267.59,616.84
3269.04,625.551
3270.49,636.65
3271.94,631.595
3273.39,614.315
3274.84,625.597
3276.29,619.453
3277.74,615.147
3279.19,630.721
3280.64,613.073
3282.09,621.37
3283.54,614.759
3284.99,623.198
3286.44,619.044
3287.89,613.342
3289.34,627.518
3290.79,627.606
3292.24,606.227
3293.69,632.259
3295.14,631.366
3296.59,620.79
3298.04,615.61
3299.49,614.063
3300.94,608.919
3302.39,617.834
3303.84,603.63
3305.29,612.787
3306.74,628.466
3308.19,616.754
3309.64,605.601
3311.09,610.934
3312.55,622.928
3314,618.855
3315.45,598.126
3316.9,607.921
3318.35,623.144
3319.8,600.708
3321.25,621.328
3322.7,609.297
3324.15,613.478
3325.6,621.261
3327.05,623.215
3328.5,606.839
3329.95,620.069
3331.4,627.042
3332.85,606.943
3334.3,601.655
3335.75,608.351
3337.2,612.853
3338.65,610.284
3340.1,612.352
3341.55,618.665
3343,617.83
3344.45,609.349
3345.9,616.269
3347.35,606.617
3348.8,596.917
3350.25,618.01
3351.7,611.186
3353.15,609.143
3354.6,617.678
3356.06,608.606
3357.51,614.001
3358.96,613.839
3360.41,608.906
3361.86,610.522
3363.31,605.808
3364.76,606.583
3366.21,612.219
3367.66,615.379
3369.11,616.103
3370.56,629.732
3372.01,624.901
3373.46,645.018
3374.91,618.271
3376.36,616.387
3377.81,611.283
3379.26,618.162
3380.71,603.773
3382.16,619.9
3383.61,614.767
3385.06,629.666
3386.51,619.389
3387.96,609.686
3389.41,595.428
3390.86,613.905
3392.31,618.909
3393.76,609.055
3395.21,618.131
3396.66,617.899
3398.11,633.678
3399.56,626.131
3401.02,627.262
3402.47,622.468
3403.92,610.288
3405.37,599.348
3406.82,625.222
3408.27,605.854
3409.72,610.383
3411.17,618.869
3412.62,621.307
3414.07,619.192
3415.52,623.358
3416.97,609.648
3418.42,624.374
3419.87,610.878
3421.32,614.497
3422.77,620.071
3424.22,628.413
3425.67,632.875
3427.12,636.037
3428.57,632.033
3430.02,618.922
3431.47,626.807
3432.92,632.856
3434.37,612.692
3435.82,623.629
3437.27,625.603
3438.72,623.879
3440.17,626.876
3441.62,615.572
3443.07,617.33
3444.52,624.324
3445.98,594.853
3447.43,629.857
3448.88,628.309
3450.33,623.549
3451.78,621.368
3453.23,627.04
3454.68,627.289
3456.13,624.426
3457.58,624.671
3459.03,618.635
3460.48,614.358
3461.93,639.749
3463.38,628.798
3464.83,634.937
3466.28,641.675
3467.73,642.148
3469.18,633.644
3470.63,623.95
3472.08,633.208
3473.53,643.935
3474.98,637.806
3476.43,613.697
3477.88,643.019
3479.33,639.531
3480.78,639.876
3482.23,631.103
3483.68,647.913
3485.13,608.075
3486.58,634.183
3488.03,645.927
3489.49,640.267
3490.94,622.141
3492.39,624.233
3493.84,632.48
3495.29,644.736
3496.74,644.492
3498.19,627.16
3499.64,638.084
3501.09,636.95
3502.54,646.779
3503.99,633.941
3505.44,637.107
3506.89,643.831
3508.34,648.943
3509.79,637.963
3511.24,641.915
3512.69,641.765
3514.14,637.746
3515.59,665.142
3517.04,646.071
3518.49,650.186
3519.94,648.904
3521.39,641.82
3522.84,651.905
3524.29,649.583
3525.74,647.405
3527.19,658.205
3528.64,636.829
3530.09,646.994
3531.54,652.691
3532.99,661.931
3534.45,657.468
3535.9,629.858
3537.35,651.285
3538.8,649.589
3540.25,645.943
3541.7,646.749
3543.15,642.111
3544.6,660.099
3546.05,643.772
3547.5,644.23
3548.95,651.231
3550.4,658.922
3551.85,653.51
3553.3,647.184
3554.75,638.205
3556.2,636.429
3557.65,653.363
3559.1,640.159
3560.55,648.501
3562,649.245
3563.45,650.007
3564.9,641.163
3566.35,652.98
3567.8,665.618
3569.25,656.966
3570.7,662.65
3572.15,658.385
3573.6,648.662
3575.05,645.101
3576.5,649.549
3577.96,654.701
3579.41,667.238
3580.86,651.18
3582.31,661.161
3583.76,663.434
3585.21,655.258
3586.66,647.06
3588.11,657.765
3589.56,660.541
3591.01,655.158
3592.46,680.18
3593.91,637.197
3595.36,639.445
3596.81,650.379
3598.26,663.932
3599.71,660.171
3601.16,657.117
3602.61,657.603
3604.06,664.384
3605.51,659.555
3606.96,671.909
3608.41,661.864
3609.86,677.813
3611.31,670.275
3612.76,662.241
3614.21,667.617
3615.66,668.496
3617.11,676.942
3618.56,657.855
3620.01,672.736
3621.46,688.134
3622.92,685.899
3624.37,672.806
3625.82,658.741
3627.27,671.715
3628.72,674.805
3630.17,666.509
3631.62,670.506
3633.07,661.491
3634.52,681.324
3635.97,660.363
3637.42,676.102
3638.87,678.337
3640.32,699.605
3641.77,674.439
3643.22,663.19
3644.67,687.914
3646.12,670.439
3647.57,686.25
3649.02,682.239
3650.47,677.015
3651.92,693.107
3653.37,684.988
3654.82,679.275
3656.27,677.87
3657.72,676.103
3659.17,675.444
3660.62,686.525
3662.07,686.039
3663.52,686.344
3664.97,677.393
3666.43,684.428
3667.88,705.072
3669.33,690.586
3670.78,689.384
3672.23,688.906
3673.68,695.382
3675.13,689.569
3676.58,684.948
3678.03,679.605
3679.48,681.341
3680.93,696.612
3682.38,691.591
3683.83,692.188
3685.28,679.263
3686.73,704.311
3688.18,692.526
3689.63,696.199
3691.08,687.662
3692.53,690.739
3693.98,694.094
3695.43,675.781
3696.88,699.943
3698.33,721.167
3699.78,700.984
3701.23,697.357
3702.68,695.522
3704.13,687.065
3705.58,686.23
3707.03,696.525
3708.48,687.955
3709.93,694.931
3711.39,699.543
3712.84,696.511
3714.29,714.124
3715.74,705.703
3717.19,703.67
3718.64,695.479
3720.09,702.502
3721.54,702.371
3722.99,707.04
3724.44,717.432
3725.89,711.526
3727.34,726.826
3728.79,722.933
3730.24,707.303
3731.69,699.757
3733.14,702.297
3734.59,698.768
3736.04,709.496
3737.49,699.517
3738.94,703.232
3740.39,703.942
3741.84,724.945
3743.29,726.854
3744.74,708.093
3746.19,714.304
3747.64,718.668
3749.09,713.448
3750.54,724.613
3751.99,722.073
3753.44,709.404
3754.89,718.232
3756.35,714.093
3757.8,712.648
3759.25,715.934
3760.7,709.618
3762.15,742.319
3763.6,727.403
3765.05,730.224
3766.5,728.863
3767.95,712.781
3769.4,725.97
3770.85,710.585
3772.3,723.486
3773.75,723.394
3775.2,728.357
3776.65,733.203
3778.1,736.965
3779.55,719.386
3781,719.645
3782.45,745.842
3783.9,733.52
3785.35,732.878
3786.8,736.459
3788.25,735.469
3789.7,758.609
3791.15,745.165
3792.6,727.27
3794.05,726.196
3795.5,742.612
3796.95,746.447
3798.4,722.548
3799.85,741.923
3801.31,745.002
3802.76,734.82
3804.21,734.862
3805.66,742.898
3807.11,742.864
3808.56,731.451
3810.01,728.191
3811.46,749.222
3812.91,733.743
3814.36,738.131
3815.81,761.809
3817.26,747.419
3818.71,752.692
3820.16,760.616
3821.61,752.479
3823.06,752.093
3824.51,748.073
3825.96,747.467
3827.41,746.273
3828.86,758.943
3830.31,756.882
3831.76,758.245
3833.21,771.273
3834.66,744.073
3836.11,742.325
3837.56,738.187
3839.01,751.175
3840.46,753.152
3841.91,759.233
3843.36,766.387
3844.82,758.039
3846.27,770.738
3847.72,768.718
3849.17,768.721
3850.62,770.974
3852.07,765.061
3853.52,762.074
3854.97,769.354
3856.42,750.801
3857.87,785.735
3859.32,774.869
3860.77,784.529
3862.22,768.441
3863.67,770.49
3865.12,756.76
3866.57,781.53
3868.02,776.31
3869.47,775.825
3870.92,788.622
3872.37,763.291
3873.82,787.368
3875.27,783.197
3876.72,790.704
3878.17,788.782
3879.62,772.402
3881.07,777.631
3882.52,796.813
3883.97,784.365
3885.42,794.538
3886.87,788.963
3888.32,788.011
3889.78,795.992
3891.23,796.296
3892.68,780.367
3894.13,780.367
3895.58,781.166
3897.03,800.809
3898.48,804.256
3899.93,808.132
3901.38,798.066
3902.83,809.462
3904.28,816.258
3905.73,801.635
3907.18,812.169
3908.63,806.492
3910.08,792.29
3911.53,801.846
3912.98,823.586
3914.43,809.101
3915.88,819.992
3917.33,815.598
3918.78,820.177
3920.23,807.528
3921.68,830.249
3923.13,810.008
3924.58,815.599
3926.03,832.177
3927.48,834.362
3928.93,812.293
3930.38,825.543
3931.83,851.401
3933.28,821.974
3934.74,842.265
3936.19,851.244
3937.64,844.085
3939.09,833.642
3940.54,818.599
3941.99,839.443
3943.44,847.983
3944.89,830.075
3946.34,830.952
3947.79,837.63
3949.24,827.041
3950.69,864.087
3952.14,848.744
3953.59,831.391
3955.04,855.745
3956.49,866.909
3957.94,853.917
3959.39,861.571
3960.84,887.084
3962.29,846.022
3963.74,873.951
3965.19,841.172
3966.64,879.396
3968.09,881.391
3969.54,870.136
3970.99,865.99
3972.44,862.614
3973.89,869.027
3975.34,882.21
3976.79,843.862
3978.25,882.905
3979.7,891.429
3981.15,872.586
3982.6,892.273
3984.05,896.287
3985.5,865.436
3986.95,894.549
3988.4,916.843
3989.85,889.368
3991.3,889.302
3992.75,892.786
3994.2,880.621
3995.65,896.055
3997.1,879.885
3998.55,904.347
4000,889.228
