0.5,58.1682
1.45033,58.1682
2.90065,58.1682
4.35098,58.1682
5.80131,58.1682
7.25163,47.9887
8.70196,108.281
10.1523,74.5691
11.6026,58.374
13.0529,50.6554
14.5033,44.68
15.9536,39.1043
17.4039,35.5859
18.8542,33.0146
20.3046,34.1241
21.7549,34.031
23.2052,29.9542
24.6555,26.0418
26.1059,26.6594
27.5562,25.8702
29.0065,23.2838
30.4569,20.1574
31.9072,17.2208
33.3575,17.9594
34.8078,18.8959
36.2582,18.5448
37.7085,17.5654
39.1588,18.0319
40.6091,15.3216
42.0595,12.2736
43.5098,12.1066
44.9601,15.8315
46.4104,18.1042
47.8608,22.9719
49.3111,30.1209
50.7614,37.0058
52.2117,59.3723
53.6621,108.969
55.1124,185.063
56.5627,289.759
58.0131,435.031
59.4634,567.679
60.9137,692.197
62.364,802.031
63.8144,892.301
65.2647,975.8
66.715,1021.49
68.1653,1048.93
69.6157,1069.38
71.066,1092.86
72.5163,1094.23
73.9666,1094.31
75.417,1091.27
76.8673,1085.2
78.3176,1079.31
79.7679,1103.4
81.2183,1134.74
82.6686,1169.42
84.1189,1203.56
85.5693,1223.25
87.0196,1236.44
88.4699,1228.86
89.9202,1213.84
91.3706,1212.1
92.8209,1166.97
94.2712,1145.36
95.7215,1124.58
97.1719,1094.28
98.6222,1052.28
100.073,1032.14
101.523,1022.07
102.973,1003.93
104.423,968.791
105.874,925.972
107.324,930.177
108.774,915.733
110.225,893.345
111.675,880.789
113.125,876.84
114.576,866.713
116.026,851.9
117.476,836.259
118.927,823.154
120.377,786.747
121.827,778.257
123.278,780.274
124.728,775.285
126.178,742.656
127.629,719.684
129.079,704.575
130.529,690.997
131.98,678.515
133.43,675.744
134.88,666.038
136.331,661.635
137.781,655.16
139.231,645.298
140.682,651.042
142.132,626.449
143.582,605.991
145.033,597.773
146.483,600.628
147.933,587.942
149.384,576.276
150.834,554.095
152.284,534.614
153.735,535.609
155.185,550.288
156.635,518.566
158.086,517.823
159.536,527.56
160.986,489.565
162.437,491.948
163.887,494.801
165.337,502.621
166.788,505.674
168.238,484.801
169.688,491.365
171.139,490.246
172.589,484.481
174.039,478.61
175.489,479.207
176.94,466.447
178.39,459.484
179.84,463.126
181.291,469.185
182.741,450.881
184.191,436.013
185.642,429.905
187.092,422.426
188.542,413.548
189.993,422.518
191.443,424.317
192.893,422.677
194.344,420.212
195.794,419.303
197.244,422.293
198.695,426.585
200.145,419.335
201.595,413.278
203.046,414.783
204.496,409.199
205.946,426.408
207.397,426.731
208.847,422.248
210.297,421.389
211.748,407.219
213.198,408.932
214.648,404.302
216.099,396.704
217.549,390.116
218.999,381.527
220.45,374.205
221.9,364.626
223.35,364.477
224.801,379.054
226.251,391.448
227.701,387.029
229.152,384.754
230.602,381.515
232.052,373.303
233.503,360.084
234.953,381.141
236.403,377.575
237.854,370.927
239.304,374.654
240.754,361.225
242.204,356.742
243.655,363.343
245.105,358.32
246.555,342.312
248.006,369.961
249.456,361.12
250.906,361.428
252.357,360.924
253.807,354.334
255.257,350.921
256.708,362.378
258.158,362.472
259.608,362.026
261.059,364.871
262.509,363.062
263.959,343.475
265.41,342.162
266.86,353.473
268.31,364.141
269.761,354.807
271.211,356.818
272.661,346.338
274.112,343.874
275.562,352.688
277.012,361.86
278.463,344.754
279.913,346.276
281.363,341.197
282.814,331.87
284.264,332.595
285.714,329.775
287.165,327.794
288.615,328.607
290.065,327.038
291.516,318.338
292.966,314.106
294.416,323.581
295.867,322.321
297.317,317.379
298.767,316.099
300.218,303.404
301.668,312.838
303.118,315.606
304.569,319.234
306.019,323.263
307.469,303.075
308.919,311.261
310.37,308.693
311.82,305.461
313.27,301.982
314.721,285.733
316.171,278.255
317.621,273.132
319.072,282.231
320.522,290.479
321.972,272.366
323.423,280.051
324.873,282.849
326.323,282.25
327.774,279.219
329.224,277.082
330.674,290.844
332.125,285.462
333.575,280.967
335.025,281.136
336.476,283.772
337.926,279.518
339.376,281.853
340.827,279.65
342.277,273.809
343.727,274.56
345.178,298.398
346.628,271.23
348.078,266.073
349.529,267.932
350.979,268.573
352.429,266.231
353.88,277.999
355.33,268.695
356.78,267.569
358.231,272.394
359.681,273.659
361.131,262.491
362.582,265.288
364.032,270.39
365.482,274.512
366.933,273.261
368.383,261.395
369.833,263.633
371.284,252.782
372.734,254.656
374.184,262.311
375.635,258.037
377.085,262.106
378.535,265.1
379.986,267.286
381.436,268.513
382.886,268.92
384.336,269.326
385.787,265.98
387.237,266.606
388.687,263.908
390.138,258.196
391.588,256.24
393.038,258.481
394.489,260.382
395.939,261.344
397.389,265.462
398.84,271.529
400.29,257.255
401.74,257.494
403.191,256.685
404.641,266.684
406.091,276.68
407.542,253.718
408.992,263.107
410.442,262.179
411.893,257.701
413.343,257.667
414.793,265.73
416.244,268.385
417.694,256.146
419.144,253.675
420.595,248.39
422.045,244.175
423.495,266.308
424.946,272.647
426.396,253.881
427.846,244.46
429.297,248.06
430.747,255.919
432.197,263.089
433.648,250.083
435.098,244.402
436.548,253.167
437.999,263.7
439.449,249.659
440.899,260.925
442.35,252.632
443.8,252.864
445.25,253.989
446.701,247.7
448.151,258.372
449.601,254.731
451.051,247.849
452.502,249.544
453.952,257.467
455.402,259.259
456.853,258.232
458.303,245.098
459.753,251.882
461.204,259.579
462.654,253.392
464.104,247.871
465.555,257.525
467.005,254.104
468.455,251.804
469.906,249.977
471.356,244.746
472.806,252.977
474.257,249.988
475.707,250.458
477.157,250.276
478.608,254.302
480.058,272.993
481.508,256.74
482.959,256.984
484.409,250.456
485.859,249.313
487.31,258.435
488.76,251.858
490.21,256.801
491.661,245.653
493.111,246.356
494.561,255.325
496.012,256.746
497.462,251.181
498.912,249.491
500.363,240.213
501.813,240.68
503.263,251.198
504.714,256.56
506.164,248.515
507.614,240.277
509.065,237.608
510.515,239.346
511.965,242.957
513.416,245.882
514.866,241.335
516.316,240.26
517.766,250.271
519.217,251.487
520.667,236.799
522.117,238.89
523.568,245.305
525.018,249.245
526.468,250.601
527.919,247.832
529.369,240.768
530.819,234.555
532.27,238.77
533.72,238.754
535.17,243.628
536.621,251.982
538.071,253.774
539.521,234.105
540.972,244.708
542.422,252.047
543.872,250.993
545.323,245.619
546.773,243.919
548.223,246.616
549.674,244.96
551.124,248.617
552.574,252.333
554.025,254.098
555.475,255.509
556.925,246.786
558.376,250.863
559.826,249.015
561.276,244.935
562.727,244.099
564.177,248.255
565.627,250.126
567.078,247.424
568.528,238.174
569.978,243.76
571.429,255.54
572.879,234.655
574.329,238.608
575.78,239.289
577.23,239.497
578.68,242.356
580.131,245.756
581.581,243.303
583.031,249.551
584.482,241.268
585.932,244.585
587.382,248.075
588.832,246.097
590.283,248.792
591.733,251.293
593.183,260.565
594.634,253.503
596.084,247.21
597.534,248.478
598.985,244.979
600.435,246.44
601.885,254.762
603.336,253.989
604.786,246.498
606.236,241.909
607.687,247.686
609.137,236.198
610.587,243.431
612.038,239.73
613.488,242.873
614.938,251.453
616.389,247.346
617.839,245.255
619.289,231.329
620.74,245.761
622.19,255.77
623.64,250.034
625.091,242.208
626.541,252.893
627.991,248.54
629.442,245.913
630.892,248.447
632.342,253.363
633.793,254.902
635.243,248.409
636.693,254.374
638.144,248.736
639.594,257.315
641.044,258.645
642.495,242.048
643.945,252.876
645.395,261.474
646.846,256.141
648.296,258.944
649.746,262.145
651.197,260.524
652.647,262.975
654.097,264.655
655.547,263.35
656.998,256.676
658.448,252.136
659.898,249.158
661.349,244.307
662.799,263.007
664.249,264.885
665.7,261.921
667.15,265.209
668.6,268.141
670.051,260.991
671.501,253.883
672.951,268.187
674.402,269.81
675.852,263.395
677.302,267.38
678.753,277.788
680.203,259.11
681.653,270.493
683.104,276.666
684.554,274.379
686.004,268.581
687.455,266.507
688.905,271.851
690.355,273.748
691.806,277.056
693.256,270.049
694.706,269.295
696.157,271.316
697.607,268.887
699.057,271.466
700.508,275.479
701.958,287.014
703.408,284.722
704.859,277.648
706.309,275.848
707.759,277.498
709.21,266.093
710.66,262.776
712.11,270.993
713.561,268.858
715.011,267.247
716.461,278.04
717.912,269.494
719.362,265.685
720.812,269.735
722.263,270.746
723.713,278.062
725.163,286.761
726.613,277.986
728.064,273.119
729.514,278.228
730.964,276.837
732.415,274.841
733.865,274.508
735.315,273.927
736.766,270.9
738.216,288.292
739.666,283.029
741.117,273.601
742.567,274.594
744.017,275.709
745.468,262.022
746.918,277.522
748.368,275.756
749.819,268.353
751.269,273.73
752.719,276.181
754.17,268.303
755.62,271.173
757.07,284.989
758.521,281.581
759.971,268.459
761.421,269.831
762.872,277.745
764.322,275.108
765.772,271.217
767.223,279.729
768.673,287.678
770.123,276.166
771.574,270.7
773.024,278.204
774.474,281.503
775.925,268.094
777.375,276.189
778.825,280.759
780.276,279.432
781.726,278.258
783.176,277.012
784.627,271.216
786.077,281.238
787.527,280.965
788.978,275.925
790.428,286.056
791.878,291.015
793.328,284.379
794.779,292.768
796.229,280.813
797.68,286.892
799.13,285.136
800.58,283.331
802.03,285.068
803.481,291.446
804.931,301.985
806.381,287.025
807.832,294.091
809.282,287.167
810.732,282.705
812.183,284.479
813.633,287.051
815.083,289.009
816.534,291.362
817.984,291.771
819.434,295.955
820.885,292.788
822.335,291.616
823.785,298.061
825.236,289.978
826.686,285.265
828.136,297.081
829.587,290.879
831.037,293.842
832.487,307.928
833.938,312.416
835.388,292.973
836.838,304.34
838.289,312.375
839.739,300.814
841.189,300.724
842.64,309.779
844.09,313.363
845.54,314.484
846.991,305.467
848.441,305.416
849.891,307.703
851.342,308.299
852.792,313.559
854.242,319.153
855.693,304.317
857.143,284.328
858.593,307.871
860.044,316.029
861.494,315.962
862.944,311.208
864.394,308.433
865.845,315.781
867.295,315.566
868.745,313.661
870.196,317.729
871.646,308.892
873.096,302.762
874.547,302.385
875.997,296.684
877.447,303.971
878.898,299.231
880.348,314.732
881.798,318.036
883.249,314.685
884.699,313.559
886.149,314.977
887.6,311.47
889.05,295.274
890.5,308.559
891.951,311.752
893.401,310.031
894.851,311.743
896.302,315.409
897.752,311.6
899.202,309.873
900.653,322.566
902.103,318.222
903.553,322.385
905.004,323.061
906.454,324.161
907.904,342.439
909.355,346.946
910.805,343.916
912.255,337.471
913.706,320.079
915.156,318.926
916.606,325.962
918.057,327.429
919.507,338.07
920.957,312.063
922.408,322.358
923.858,340.032
925.308,340.64
926.759,333.774
928.209,337.814
929.659,352.661
931.109,345.544
932.56,345.544
934.01,348.224
935.46,352.847
936.911,339.583
938.361,333.67
939.811,347.387
941.262,342.477
942.712,357.885
944.162,350.033
945.613,350.51
947.063,334.903
948.513,330.7
949.964,342.713
951.414,346.318
952.864,334.658
954.315,342.697
955.765,351.552
957.215,350.498
958.666,347.949
960.116,345.373
961.566,343.046
963.017,341.171
964.467,331.711
965.917,343.474
967.368,343.44
968.818,344.98
970.268,338.419
971.719,332.471
973.169,336.198
974.619,342.481
976.07,348.491
977.52,341.52
978.97,357.064
980.421,353.484
981.871,353.012
983.321,351.563
984.772,344.871
986.222,356.083
987.672,339.708
989.123,352.725
990.573,347.591
992.023,348.873
993.474,349.709
994.924,347.502
996.374,348.369
997.825,353.348
999.275,345.915
1000.73,357.182
1002.18,354.812
1003.63,362.749
1005.08,369.631
1006.53,372.427
1007.98,374.001
1009.43,367.519
1010.88,361.607
1012.33,365.427
1013.78,386.61
1015.23,381.4
1016.68,376.498
1018.13,380.479
1019.58,382.15
1021.03,380.27
1022.48,375.094
1023.93,396.361
1025.38,394.338
1026.83,406.744
1028.28,402.318
1029.73,394.421
1031.18,398.43
1032.63,393.06
1034.08,394.88
1035.53,398.831
1036.98,424.306
1038.43,429.423
1039.88,423.763
1041.33,425.841
1042.78,428.849
1044.23,419.923
1045.69,436.358
1047.14,430.642
1048.59,426.972
1050.04,433.578
1051.49,431.967
1052.94,435.953
1054.39,448.046
1055.84,453.323
1057.29,450.422
1058.74,460.766
1060.19,465.289
1061.64,460.02
1063.09,472.208
1064.54,481.094
1065.99,483.31
1067.44,488.647
1068.89,498.069
1070.34,513.665
1071.79,506.611
1073.24,500.155
1074.69,490.513
1076.14,493.639
1077.59,504.223
1079.04,511.441
1080.49,512.89
1081.94,510.709
1083.39,492.831
1084.84,525.524
1086.29,522.631
1087.74,508.54
1089.2,513.334
1090.65,519.119
1092.1,509.8
1093.55,504.193
1095,502.542
1096.45,496.132
1097.9,494.054
1099.35,497.08
1100.8,495.476
1102.25,501.641
1103.7,491.057
1105.15,471.59
1106.6,511.889
1108.05,507.83
1109.5,485.889
1110.95,484.509
1112.4,482.316
1113.85,485.784
1115.3,489.896
1116.75,486.91
1118.2,479.598
1119.65,477.527
1121.1,465.401
1122.55,485.796
1124,469.613
1125.45,464.473
1126.9,472.714
1128.35,472.06
1129.8,468.431
1131.25,473.166
1132.7,455.98
1134.16,471.737
1135.61,478.62
1137.06,459.765
1138.51,459.417
1139.96,454.705
1141.41,453.248
1142.86,453.655
1144.31,448.001
1145.76,460.042
1147.21,454.885
1148.66,445.313
1150.11,459.432
1151.56,452.584
1153.01,439.77
1154.46,441.16
1155.91,447.358
1157.36,447.713
1158.81,460.418
1160.26,457.659
1161.71,431.8
1163.16,455.463
1164.61,450.563
1166.06,449.266
1167.51,455.15
1168.96,455.065
1170.41,448.458
1171.86,447.023
1173.31,443.168
1174.76,438.485
1176.21,447.973
1177.66,444.734
1179.12,444.253
1180.57,446.832
1182.02,450.488
1183.47,451.095
1184.92,450.215
1186.37,462.806
1187.82,450.731
1189.27,458.55
1190.72,455.927
1192.17,452.071
1193.62,450.731
1195.07,442.904
1196.52,443.313
1197.97,460.854
1199.42,465.794
1200.87,461.22
1202.32,465.028
1203.77,440.992
1205.22,455.765
1206.67,457.564
1208.12,446.612
1209.57,447.901
1211.02,456.054
1212.47,454.596
1213.92,465.417
1215.37,451.887
1216.82,465.796
1218.27,462.042
1219.72,472.855
1221.17,471.443
1222.63,462.306
1224.08,463.134
1225.53,467.161
1226.98,455.179
1228.43,449.219
1229.88,476.729
1231.33,456.954
1232.78,480.237
1234.23,472.054
1235.68,479.592
1237.13,485.798
1238.58,487.031
1240.03,488.816
1241.48,486.171
1242.93,502.952
1244.38,486.545
1245.83,471.915
1247.28,481.629
1248.73,505.952
1250.18,503.485
1251.63,490.91
1253.08,493.641
1254.53,502.625
1255.98,501.908
1257.43,516.145
1258.88,524.304
1260.33,510.777
1261.78,521.731
1263.23,527.119
1264.68,520.559
1266.13,525.079
1267.59,539.971
1269.04,553.14
1270.49,556.814
1271.94,549.663
1273.39,574.224
1274.84,567.215
1276.29,567.128
1277.74,582.728
1279.19,582.52
1280.64,596.181
1282.09,607.044
1283.54,617.362
1284.99,635.122
1286.44,637.785
1287.89,646.363
1289.34,627.281
1290.79,668.458
1292.24,684.028
1293.69,688.042
1295.14,706.765
1296.59,730.792
1298.04,741.974
1299.49,754.04
1300.94,783.887
1302.39,803.77
1303.84,806.17
1305.29,820.446
1306.74,848.468
1308.19,863.121
1309.64,893.39
1311.09,932.732
1312.55,967.165
1314,992.706
1315.45,1023.68
1316.9,1061.72
1318.35,1080.15
1319.8,1125.88
1321.25,1141.32
1322.7,1152.81
1324.15,1209.15
1325.6,1208.24
1327.05,1202.75
1328.5,1202.23
1329.95,1210.02
1331.4,1228.87
1332.85,1239.09
1334.3,1230.39
1335.75,1231.83
1337.2,1190.43
1338.65,1180.85
1340.1,1144.3
1341.55,1140.39
1343,1115.14
1344.45,1075.25
1345.9,1057.45
1347.35,1048.38
1348.8,1010.86
1350.25,961.051
1351.7,926.625
1353.15,919.03
1354.6,926.324
1356.06,898.148
1357.51,840.145
1358.96,809.293
1360.41,806.258
1361.86,799.255
1363.31,786.619
1364.76,779.797
1366.21,761.665
1367.66,722.88
1369.11,715.059
1370.56,726.716
1372.01,708.439
1373.46,707.081
1374.91,692.82
1376.36,698.783
1377.81,691.083
1379.26,672.738
1380.71,663.178
1382.16,663.798
1383.61,670.337
1385.06,653.641
1386.51,630.69
1387.96,653.568
1389.41,655.703
1390.86,668.328
1392.31,665.758
1393.76,645.072
1395.21,652.028
1396.66,649.497
1398.11,642.565
1399.56,667.241
1401.02,671.551
1402.47,667.879
1403.92,663.615
1405.37,673.024
1406.82,678.662
1408.27,678.34
1409.72,663.811
1411.17,683.093
1412.62,689.25
1414.07,668.198
1415.52,664.957
1416.97,684.192
1418.42,688.315
1419.87,704.08
1421.32,704.561
1422.77,710.068
1424.22,690.287
1425.67,700.577
1427.12,734.078
1428.57,716.513
1430.02,715.442
1431.47,727.134
1432.92,729.699
1434.37,734.107
1435.82,745.722
1437.27,758.314
1438.72,787.19
1440.17,768.289
1441.62,759.992
1443.07,774.877
1444.53,761.312
1445.98,783.222
1447.43,804.989
1448.88,813.885
1450.33,804.559
1451.78,802.4
1453.23,826.277
1454.68,849.492
1456.13,849.666
1457.58,856.541
1459.03,867.594
1460.48,884.685
1461.93,864.76
1463.38,906.895
1464.83,922.337
1466.28,922.057
1467.73,933.272
1469.18,948.529
1470.63,973.301
1472.08,1004.93
1473.53,1023.15
1474.98,1030.04
1476.43,1041.1
1477.88,1064.97
1479.33,1051.71
1480.78,1098.31
1482.23,1120.47
1483.68,1138.29
1485.13,1182.48
1486.58,1197.46
1488.03,1207.29
1489.49,1248.95
1490.94,1284.08
1492.39,1295.95
1493.84,1319.05
1495.29,1351.13
1496.74,1411.89
1498.19,1437.79
1499.64,1492.81
1501.09,1486.54
1502.54,1584.03
1503.99,1650.15
1505.44,1699.28
1506.89,1770.81
1508.34,1842.28
1509.79,1912.5
1511.24,1993.49
1512.69,2088.94
1514.14,2198.73
1515.59,2315.62
1517.04,2432.83
1518.49,2559.59
1519.94,2700.56
1521.39,2901.29
1522.84,3120.1
1524.29,3303.93
1525.74,3506.71
1527.19,3821.24
1528.64,4113.41
1530.09,4393.46
1531.54,4731.93
1532.99,5118.97
1534.45,5549.82
1535.9,6016.58
1537.35,6456.14
1538.8,6973.3
1540.25,7433.39
1541.7,8031.99
1543.15,8637.58
1544.6,9348.91
1546.05,9856.23
1547.5,10407.4
1548.95,10997.2
1550.4,11650.5
1551.85,12186.3
1553.3,12205.7
1554.75,12225.7
1556.2,12260.7
1557.65,12290.7
1559.1,12312.7
1560.55,12390.6
1562,12352.6
1563.45,12342.9
1564.9,12337.4
1566.35,12314.3
1567.8,12218.9
1569.25,11614.2
1570.7,10939.1
1572.15,10254.8
1573.6,9583.29
1575.05,8927.99
1576.5,8255.55
1577.96,7595.32
1579.41,7011.56
1580.86,6489.28
1582.31,5970.82
1583.76,5464.72
1585.21,5101.19
1586.66,4711.73
1588.11,4412.18
1589.56,4099.09
1591.01,3833.32
1592.46,3566.74
1593.91,3373.2
1595.36,3154.05
1596.81,2987.11
1598.26,2838.38
1599.71,2677.05
1601.16,2542.74
1602.61,2418.33
1604.06,2290.77
1605.51,2179.78
1606.96,2081.29
1608.41,1975.62
1609.86,1918.39
1611.31,1831.42
1612.76,1739.89
1614.21,1700.36
1615.66,1631.01
1617.11,1563.8
1618.56,1508.52
1620.01,1466.35
1621.46,1431.74
1622.92,1381.85
1624.37,1330.72
1625.82,1283.97
1627.27,1263.05
1628.72,1241.98
1630.17,1191.17
1631.62,1163.96
1633.07,1165.95
1634.52,1129.45
1635.97,1129.72
1637.42,1110.51
1638.87,1064.35
1640.32,1052.55
1641.77,1045.91
1643.22,1029.81
1644.67,1008.41
1646.12,989.219
1647.57,982.308
1649.02,965.53
1650.47,947.789
1651.92,938.972
1653.37,939.203
1654.82,930.284
1656.27,936.617
1657.72,911.317
1659.17,906.485
1660.62,879.65
1662.07,867.845
1663.52,852.234
1664.97,860.861
1666.42,836.766
1667.88,837.792
1669.33,816.614
1670.78,803.25
1672.23,820.447
1673.68,821.137
1675.13,813.873
1676.58,802.102
1678.03,801.547
1679.48,807.916
1680.93,793.509
1682.38,773.283
1683.83,785.231
1685.28,763.625
1686.73,751.449
1688.18,737.731
1689.63,744.239
1691.08,762.6
1692.53,758.713
1693.98,737.909
1695.43,741.211
1696.88,751.569
1698.33,747.489
1699.78,742.259
1701.23,739.057
1702.68,744.331
1704.13,731.972
1705.58,741.343
1707.03,730.109
1708.48,743.774
1709.93,706.823
1711.39,714.059
1712.84,741.64
1714.29,721.849
1715.74,711.296
1717.19,720.213
1718.64,731.168
1720.09,721.839
1721.54,728.729
1722.99,729.338
1724.44,714.056
1725.89,720.844
1727.34,724.427
1728.79,708.049
1730.24,715.524
1731.69,714.069
1733.14,710.775
1734.59,696.771
1736.04,725.336
1737.49,703.893
1738.94,685.399
1740.39,679.218
1741.84,672.1
1743.29,671.119
1744.74,684.188
1746.19,684.636
1747.64,687.754
1749.09,670.128
1750.54,681.423
1751.99,671.57
1753.44,647.772
1754.89,655.033
1756.35,663.177
1757.8,650.211
1759.25,654.734
1760.7,660.957
1762.15,637.664
1763.6,646.956
1765.05,643.484
1766.5,648.024
1767.95,634.655
1769.4,630.723
1770.85,625.669
1772.3,642.653
1773.75,617.676
1775.2,635.395
1776.65,615.842
1778.1,613.65
1779.55,619.792
1781,612.445
1782.45,619.976
1783.9,623.124
1785.35,621.396
1786.8,620.678
1788.25,630.084
1789.7,621.581
1791.15,611.74
1792.6,617.228
1794.05,602.442
1795.5,604.301
1796.95,611.639
1798.4,626.502
1799.85,630.08
1801.31,612.402
1802.76,596.024
1804.21,600.585
1805.66,612.33
1807.11,611.611
1808.56,590.236
1810.01,596.953
1811.46,582.566
1812.91,579.497
1814.36,602.277
1815.81,603.756
1817.26,602.807
1818.71,588.053
1820.16,585.815
1821.61,593.745
1823.06,592.385
1824.51,598.188
1825.96,603.016
1827.41,602.809
1828.86,605.559
1830.31,603.236
1831.76,611.336
1833.21,613.435
1834.66,597.876
1836.11,613.621
1837.56,601.413
1839.01,602.585
1840.46,613.01
1841.91,610.398
1843.36,630.288
1844.82,619.008
1846.27,611.777
1847.72,608.066
1849.17,625.515
1850.62,615.123
1852.07,635.336
1853.52,614.475
1854.97,618.163
1856.42,624.769
1857.87,630.303
1859.32,632.752
1860.77,627.035
1862.22,611.82
1863.67,615.216
1865.12,621.034
1866.57,626.922
1868.02,626.202
1869.47,613.396
1870.92,616.908
1872.37,625.478
1873.82,627.461
1875.27,633.081
1876.72,616.991
1878.17,606.849
1879.62,608.865
1881.07,614.915
1882.52,619.147
1883.97,607.511
1885.42,613.429
1886.87,596.964
1888.32,609.04
1889.78,619.476
1891.23,580.66
1892.68,588.656
1894.13,588.647
1895.58,593.515
1897.03,590.654
1898.48,596.575
1899.93,583.74
1901.38,576.864
1902.83,578.302
1904.28,580.92
1905.73,574.846
1907.18,586.696
1908.63,583.395
1910.08,594.495
1911.53,585.764
1912.98,570.194
1914.43,578.828
1915.88,581.053
1917.33,576.172
1918.78,576.847
1920.23,577.641
1921.68,576.463
1923.13,569.402
1924.58,572.263
1926.03,576.179
1927.48,572.384
1928.93,581.743
1930.38,570.597
1931.83,586.39
1933.29,562.969
1934.74,572.544
1936.19,571.7
1937.64,563.141
1939.09,567.954
1940.54,565.79
1941.99,581.291
1943.44,567.798
1944.89,572.892
1946.34,575.089
1947.79,577.77
1949.24,560.662
1950.69,580.796
1952.14,585.304
1953.59,594.802
1955.04,601.013
1956.49,578.756
1957.94,583.441
1959.39,579.293
1960.84,565.315
1962.29,590.605
1963.74,581.262
1965.19,591.785
1966.64,594.983
1968.09,578.448
1969.54,576.773
1970.99,574.696
1972.44,578.294
1973.89,585.549
1975.34,594.851
1976.79,606.526
1978.25,607.886
1979.7,600.638
1981.15,598.577
1982.6,603.906
1984.05,605.683
1985.5,593.802
1986.95,590.883
1988.4,600.035
1989.85,593.568
1991.3,599.541
1992.75,600.641
1994.2,588.493
1995.65,603.462
1997.1,583.525
1998.55,588.567
2000,584.549
2001.45,597.351
2002.9,599.909
2004.35,613.845
2005.8,603.949
2007.25,590.919
2008.7,595.783
2010.15,590.36
2011.6,581.33
2013.05,575.244
2014.5,577.642
2015.95,588.961
2017.4,582.516
2018.85,577.249
2020.3,592.632
2021.75,601.45
2023.21,603.372
2024.66,595.612
2026.11,567.017
2027.56,608.731
2029.01,573.409
2030.46,581.302
2031.91,566.377
2033.36,587.966
2034.81,560.342
2036.26,603.944
2037.71,571.654
2039.16,581.5
2040.61,578.26
2042.06,558.878
2043.51,580.432
2044.96,579.902
2046.41,555.827
2047.86,556.145
2049.31,583.096
2050.76,552.28
2052.21,555.61
2053.66,546.395
2055.11,555.02
2056.56,566.841
2058.01,566.706
2059.46,563.052
2060.91,548.558
2062.36,545.722
2063.81,549.652
2065.26,549.983
2066.72,557.445
2068.17,555.007
2069.62,548.113
2071.07,558.158
2072.52,544.924
2073.97,546.061
2075.42,549.55
2076.87,550.859
2078.32,563.949
2079.77,558.907
2081.22,550.711
2082.67,539.972
2084.12,543.805
2085.57,545.652
2087.02,537.069
2088.47,545.063
2089.92,545.964
2091.37,546.595
2092.82,543.175
2094.27,548.692
2095.72,551.663
2097.17,546.404
2098.62,549.121
2100.07,537.869
2101.52,551.409
2102.97,553.294
2104.42,545.824
2105.87,552.436
2107.32,555.885
2108.77,557.433
2110.22,562.301
2111.68,565.872
2113.13,564.089
2114.58,554.296
2116.03,549.56
2117.48,549.752
2118.93,556.098
2120.38,563.163
2121.83,559.585
2123.28,562.85
2124.73,568.62
2126.18,569.961
2127.63,566.834
2129.08,564.596
2130.53,570.426
2131.98,572.759
2133.43,556.761
2134.88,559.55
2136.33,572.465
2137.78,564.583
2139.23,562.442
2140.68,565.31
2142.13,567.606
2143.58,582.619
2145.03,576.76
2146.48,573.652
2147.93,573.711
2149.38,573.242
2150.83,583.88
2152.28,580.03
2153.73,580.898
2155.18,586.61
2156.64,586.468
2158.09,579.946
2159.54,593.331
2160.99,591.687
2162.44,588.319
2163.89,601.463
2165.34,596.392
2166.79,593.411
2168.24,590.521
2169.69,592.49
2171.14,597.267
2172.59,590.939
2174.04,595.754
2175.49,611.675
2176.94,604.264
2178.39,609.581
2179.84,612.587
2181.29,606.684
2182.74,600.255
2184.19,606.967
2185.64,599.037
2187.09,599.116
2188.54,597.826
2189.99,600.871
2191.44,601
2192.89,602.933
2194.34,609.824
2195.79,620.959
2197.24,607.871
2198.69,613.509
2200.15,608.969
2201.6,610.461
2203.05,599.369
2204.5,601.819
2205.95,612.836
2207.4,617.134
2208.85,610.334
2210.3,614.106
2211.75,625.049
2213.2,639.227
2214.65,615.082
2216.1,630.303
2217.55,628.15
2219,614.561
2220.45,628.904
2221.9,626.768
2223.35,630.686
2224.8,639.663
2226.25,651.601
2227.7,627.827
2229.15,638.401
2230.6,649.33
2232.05,631.247
2233.5,624.555
2234.95,616.331
2236.4,645.616
2237.85,653.984
2239.3,636.132
2240.75,641.635
2242.2,646.957
2243.65,629.049
2245.11,647.98
2246.56,658.041
2248.01,650.794
2249.46,642.137
2250.91,658.471
2252.36,658.651
2253.81,677.691
2255.26,659.985
2256.71,648.243
2258.16,659.483
2259.61,675.382
2261.06,664.229
2262.51,646.987
2263.96,661.039
2265.41,678.174
2266.86,667.74
2268.31,680.263
2269.76,673.561
2271.21,664.155
2272.66,681.472
2274.11,678.351
2275.56,667.5
2277.01,674.413
2278.46,676.043
2279.91,676.043
2281.36,672.613
2282.81,688.259
2284.26,693.974
2285.71,686.75
2287.16,677.457
2288.61,692.807
2290.07,700.665
2291.52,712.482
2292.97,706.943
2294.42,709.914
2295.87,709.135
2297.32,697.091
2298.77,700.28
2300.22,703.253
2301.67,688.2
2303.12,717.192
2304.57,720.157
2306.02,718.884
2307.47,700.639
2308.92,708.93
2310.37,733.901
2311.82,729.088
2313.27,720.122
2314.72,708.291
2316.17,721.866
2317.62,723.188
2319.07,764.329
2320.52,748.424
2321.97,740.074
2323.42,764.609
2324.87,748.457
2326.32,756.382
2327.77,764.061
2329.22,758.772
2330.67,758.324
2332.12,775.467
2333.57,776.302
2335.03,788.126
2336.48,757.473
2337.93,771.907
2339.38,786.624
2340.83,785.504
2342.28,797.888
2343.73,800.232
2345.18,795.871
2346.63,811.097
2348.08,798.866
2349.53,799.352
2350.98,828.936
2352.43,830.506
2353.88,842.424
2355.33,839.966
2356.78,843.738
2358.23,862.706
2359.68,861.233
2361.13,851.523
2362.58,854.603
2364.03,882.799
2365.48,885.901
2366.93,928.769
2368.38,882.679
2369.83,903.841
2371.28,900.537
2372.73,933.523
2374.18,939.004
2375.63,950.701
2377.08,966.637
2378.54,971.31
2379.99,983.687
2381.44,999.19
2382.89,1006.96
2384.34,1013.29
2385.79,1014.19
2387.24,1034.18
2388.69,1043.09
2390.14,1063.93
2391.59,1090.11
2393.04,1087.47
2394.49,1071.59
2395.94,1084.97
2397.39,1123.61
2398.84,1162.6
2400.29,1141.18
2401.74,1167.92
2403.19,1169.84
2404.64,1204.75
2406.09,1220.45
2407.54,1197.14
2408.99,1207.03
2410.44,1218.45
2411.89,1205.66
2413.34,1241.1
2414.79,1260.18
2416.24,1241.79
2417.69,1229.82
2419.14,1244.62
2420.59,1241.11
2422.04,1207.81
2423.5,1230.87
2424.95,1243.29
2426.4,1223.3
2427.85,1210.01
2429.3,1217.19
2430.75,1228.63
2432.2,1227.58
2433.65,1212.77
2435.1,1186.22
2436.55,1212.62
2438,1192.26
2439.45,1192.35
2440.9,1202.96
2442.35,1186.33
2443.8,1188.71
2445.25,1170.33
2446.7,1189.02
2448.15,1173.26
2449.6,1163.92
2451.05,1147.95
2452.5,1155.26
2453.95,1132.27
2455.4,1159.34
2456.85,1135.57
2458.3,1136.17
2459.75,1146.99
2461.2,1151.87
2462.65,1139.96
2464.1,1139.67
2465.55,1130.68
2467.01,1129.39
2468.46,1135.42
2469.91,1135.6
2471.36,1129.76
2472.81,1134.84
2474.26,1140.46
2475.71,1128.51
2477.16,1148.73
2478.61,1154.57
2480.06,1169.58
2481.51,1163.89
2482.96,1164.89
2484.41,1141.44
2485.86,1169.46
2487.31,1183.01
2488.76,1177.93
2490.21,1172.29
2491.66,1168.9
2493.11,1167.35
2494.56,1179.24
2496.01,1159.5
2497.46,1157.32
2498.91,1169.46
2500.36,1172.56
2501.81,1165.49
2503.26,1199.12
2504.71,1202.89
2506.16,1216.36
2507.61,1240.67
2509.06,1195.6
2510.51,1253.8
2511.97,1232.25
2513.42,1245.24
2514.87,1262.8
2516.32,1279.5
2517.77,1278.02
2519.22,1286.53
2520.67,1309.94
2522.12,1321.13
2523.57,1341.33
2525.02,1338.03
2526.47,1352.85
2527.92,1359.84
2529.37,1338.3
2530.82,1371.25
2532.27,1399.83
2533.72,1391.95
2535.17,1402.42
2536.62,1426.07
2538.07,1463.02
2539.52,1442.45
2540.97,1484.86
2542.42,1489.78
2543.87,1556.12
2545.32,1567.46
2546.77,1560.77
2548.22,1596.05
2549.67,1616.75
2551.12,1632.41
2552.57,1635.18
2554.02,1672.34
2555.48,1707.7
2556.93,1751.61
2558.38,1772.82
2559.83,1792.53
2561.28,1821.4
2562.73,1888.45
2564.18,1908.94
2565.63,1944.83
2567.08,1992.6
2568.53,2018.4
2569.98,2075.87
2571.43,2152.52
2572.88,2193.25
2574.33,2191.8
2575.78,2260.66
2577.23,2320.25
2578.68,2367.56
2580.13,2434.58
2581.58,2489.1
2583.03,2533.9
2584.48,2607.13
2585.93,2670.19
2587.38,2723.68
2588.83,2831.39
2590.28,2938.45
2591.73,3049.14
2593.18,3086.42
2594.63,3168.03
2596.08,3281.68
2597.53,3369.15
2598.98,3517.31
2600.44,3617.37
2601.89,3749.71
2603.34,3884
2604.79,3997.07
2606.24,4148.92
2607.69,4253.26
2609.14,4428.42
2610.59,4517.99
2612.04,4704.85
2613.49,4829.95
2614.94,5022.72
2616.39,5175.36
2617.84,5291.73
2619.29,5456.89
2620.74,5612.22
2622.19,5769.17
2623.64,5968.52
2625.09,6065.8
2626.54,6219.2
2627.99,6374.49
2629.44,6558.43
2630.89,6729.47
2632.34,6888.23
2633.79,7005.95
2635.24,7214.25
2636.69,7260.58
2638.14,7373.93
2639.59,7523.48
2641.04,7568.33
2642.49,7663.83
2643.94,7719.23
2645.4,7741.54
2646.85,7774.22
2648.3,7791.01
2649.75,7737.68
2651.2,7748.59
2652.65,7652.63
2654.1,7689.83
2655.55,7579.67
2657,7513.05
2658.45,7385.05
2659.9,7256.02
2661.35,7122.03
2662.8,7005.07
2664.25,6842.32
2665.7,6744.53
2667.15,6625.5
2668.6,6418.95
2670.05,6287.27
2671.5,6140.92
2672.95,5880.88
2674.4,5777.09
2675.85,5599.24
2677.3,5396.13
2678.75,5248.49
2680.2,5133.39
2681.65,4894.27
2683.1,4758.97
2684.55,4598.75
2686,4478.77
2687.45,4314.1
2688.91,4138.13
2690.36,3990.82
2691.81,3870
2693.26,3742.61
2694.71,3552.24
2696.16,3443.57
2697.61,3398.33
2699.06,3225.29
2700.51,3142.95
2701.96,3089.71
2703.41,2976.18
2704.86,2839.21
2706.31,2761.13
2707.76,2645.73
2709.21,2608.49
2710.66,2525.42
2712.11,2433.29
2713.56,2371.79
2715.01,2331.48
2716.46,2257.28
2717.91,2203.75
2719.36,2134.62
2720.81,2101.8
2722.26,2060.74
2723.71,1991.22
2725.16,1928.93
2726.61,1891.74
2728.06,1866.26
2729.51,1839.34
2730.96,1791.86
2732.41,1730.22
2733.87,1731.07
2735.32,1672.1
2736.77,1654.69
2738.22,1624.47
2739.67,1603.75
2741.12,1581.93
2742.57,1531.5
2744.02,1517.67
2745.47,1515.73
2746.92,1469.47
2748.37,1470.21
2749.82,1431.87
2751.27,1435.84
2752.72,1396.29
2754.17,1401.12
2755.62,1365.9
2757.07,1330.65
2758.52,1321.34
2759.97,1315.78
2761.42,1283.44
2762.87,1273.97
2764.32,1279.43
2765.77,1258.79
2767.22,1213.66
2768.67,1260.09
2770.12,1228.98
2771.57,1220.69
2773.02,1203.36
2774.47,1205.74
2775.92,1199.33
2777.38,1179.48
2778.83,1178.4
2780.28,1162.51
2781.73,1152.93
2783.18,1135.88
2784.63,1137.4
2786.08,1127.41
2787.53,1091.53
2788.98,1109.71
2790.43,1121.62
2791.88,1105.46
2793.33,1090.33
2794.78,1073.29
2796.23,1070.34
2797.68,1081.05
2799.13,1066.54
2800.58,1067.71
2802.03,1053.9
2803.48,1045.92
2804.93,1056.48
2806.38,1039.55
2807.83,1018.99
2809.28,1026.77
2810.73,1014.78
2812.18,1023.85
2813.63,1024.55
2815.08,1032.86
2816.53,1005.48
2817.98,1013.5
2819.43,1024.54
2820.88,1005.96
2822.33,990.572
2823.79,999.371
2825.24,987.228
2826.69,978.397
2828.14,971.836
2829.59,973.937
2831.04,988.316
2832.49,995.507
2833.94,950.464
2835.39,947.938
2836.84,950.865
2838.29,942.543
2839.74,942.547
2841.19,948.383
2842.64,965.091
2844.09,961.542
2845.54,950.633
2846.99,945.141
2848.44,942.535
2849.89,928.457
2851.34,943.801
2852.79,933.563
2854.24,923.194
2855.69,936.361
2857.14,959.159
2858.59,933.998
2860.04,921.385
2861.49,934.576
2862.94,916.077
2864.39,918.346
2865.84,938.422
2867.3,933.661
2868.75,931.82
2870.2,931.611
2871.65,914.892
2873.1,921.265
2874.55,940.285
2876,930.93
2877.45,933.803
2878.9,935.975
2880.35,930.549
2881.8,909.684
2883.25,917.348
2884.7,918.936
2886.15,918.766
2887.6,916.243
2889.05,907.675
2890.5,922.586
2891.95,931.289
2893.4,922.768
2894.85,928.346
2896.3,927.919
2897.75,914.721
2899.2,912.678
2900.65,911.355
2902.1,905.553
2903.55,901.722
2905,902.745
2906.45,905.455
2907.9,908.006
2909.35,900.162
2910.8,884.087
2912.26,883.374
2913.71,892.263
2915.16,861.546
2916.61,897.327
2918.06,884.506
2919.51,864.543
2920.96,883.924
2922.41,879.823
2923.86,877.62
2925.31,869.901
2926.76,856.383
2928.21,850.301
2929.66,848.205
2931.11,843.388
2932.56,834.089
2934.01,852.875
2935.46,835.408
2936.91,835.402
2938.36,831.97
2939.81,822.211
2941.26,813.173
2942.71,820.841
2944.16,824.539
2945.61,821.647
2947.06,820.334
2948.51,823.322
2949.96,805.261
2951.41,802.956
2952.86,816.024
2954.31,802.084
2955.77,796.723
2957.22,806.968
2958.67,797.782
2960.12,784.787
2961.57,821.554
2963.02,795.848
2964.47,792.175
2965.92,789.099
2967.37,793.854
2968.82,791.686
2970.27,798.92
2971.72,779.408
2973.17,781.621
2974.62,780.719
2976.07,771.866
2977.52,772.602
2978.97,779.041
2980.42,771.293
2981.87,783.76
2983.32,790.47
2984.77,781.413
2986.22,768.569
2987.67,777.301
2989.12,783.699
2990.57,787.709
2992.02,779.83
2993.47,767.008
2994.92,773.885
2996.37,787.224
2997.82,783.693
2999.27,791.102
3000.73,763.409
3002.18,780.571
3003.63,765.633
3005.08,775.706
3006.53,771.838
3007.98,753.206
3009.43,749.474
3010.88,759.613
3012.33,772.768
3013.78,789.217
3015.23,754.548
3016.68,768.074
3018.13,756.889
3019.58,767.553
3021.03,769.213
3022.48,755.888
3023.93,772.072
3025.38,786.928
3026.83,763.948
3028.28,774.243
3029.73,794.41
3031.18,796.463
3032.63,783.1
3034.08,797.238
3035.53,801.445
3036.98,754.294
3038.43,787.914
3039.88,792.182
3041.33,786.208
3042.78,784.736
3044.23,773.464
3045.69,773.273
3047.14,768.385
3048.59,784.802
3050.04,795.49
3051.49,773.201
3052.94,771.006
3054.39,786.942
3055.84,800.309
3057.29,796.065
3058.74,783.653
3060.19,803.212
3061.64,812.953
3063.09,819.045
3064.54,823.852
3065.99,820.175
3067.44,799.457
3068.89,816.741
3070.34,832.055
3071.79,856.172
3073.24,819.723
3074.69,838.425
3076.14,836.963
3077.59,842.522
3079.04,867.616
3080.49,866.297
3081.94,884.359
3083.39,877.338
3084.84,898.802
3086.29,885.5
3087.74,894.004
3089.2,898.46
3090.65,913.586
3092.1,919.093
3093.55,923.136
3095,919.955
3096.45,926.228
3097.9,940.805
3099.35,962.858
3100.8,972.09
3102.25,962.382
3103.7,991.858
3105.15,997.898
3106.6,986.947
3108.05,1011.89
3109.5,992.287
3110.95,1011.61
3112.4,1016.85
3113.85,1046.97
3115.3,1042.31
3116.75,1054.09
3118.2,1046.18
3119.65,1063
3121.1,1070.57
3122.55,1073.07
3124,1078.76
3125.45,1074.43
3126.9,1085.55
3128.35,1102.5
3129.8,1087.37
3131.25,1089.26
3132.7,1106.08
3134.16,1097.81
3135.61,1097.45
3137.06,1116.88
3138.51,1089.2
3139.96,1106.91
3141.41,1113.57
3142.86,1100.66
3144.31,1121.27
3145.76,1121.62
3147.21,1125.27
3148.66,1108.91
3150.11,1107.5
3151.56,1090.85
3153.01,1101.64
3154.46,1121.3
3155.91,1128.39
3157.36,1140.14
3158.81,1152.88
3160.26,1118.56
3161.71,1139.88
3163.16,1151.86
3164.61,1148.99
3166.06,1137.46
3167.51,1171.15
3168.96,1162.12
3170.41,1161.2
3171.86,1178.91
3173.31,1188.38
3174.76,1194.81
3176.21,1174.42
3177.67,1193.55
3179.12,1185.74
3180.57,1202.77
3182.02,1230.99
3183.47,1214.88
3184.92,1189.41
3186.37,1207.46
3187.82,1202.13
3189.27,1182.45
3190.72,1209.06
3192.17,1186.88
3193.62,1179.07
3195.07,1173.18
3196.52,1171.02
3197.97,1143.23
3199.42,1096.75
3200.87,1119.41
3202.32,1110.26
3203.77,1093.22
3205.22,1091.89
3206.67,1075.59
3208.12,1063.45
3209.57,1041.04
3211.02,1015.47
3212.47,1038.37
3213.92,1003.17
3215.37,975.155
3216.82,976.539
3218.27,956.723
3219.72,938.201
3221.17,940.309
3222.63,933.184
3224.08,931.125
3225.53,915.06
3226.98,908.181
3228.43,864.833
3229.88,892.217
3231.33,870.244
3232.78,847.607
3234.23,829.57
3235.68,837.083
3237.13,832.975
3238.58,830.132
3240.03,805.27
3241.48,794.197
3242.93,800.114
3244.38,810.239
3245.83,805.252
3247.28,807.267
3248.73,787.636
3250.18,795.229
3251.63,791.938
3253.08,791.059
3254.53,780.514
3255.98,751.97
3257.43,768.173
3258.88,767.806
3260.33,760.107
3261.78,759.408
3263.23,755.997
3264.68,773.61
3266.13,762.688
3267.59,744.943
3269.04,755.464
3270.49,768.868
3271.94,762.763
3273.39,741.895
3274.84,755.519
3276.29,748.099
3277.74,742.899
3279.19,761.707
3280.64,740.394
3282.09,750.415
3283.54,742.431
3284.99,752.622
3286.44,747.606
3287.89,740.719
3289.34,757.839
3290.79,757.945
3292.24,732.127
3293.69,763.565
3295.14,762.486
3296.59,749.714
3298.04,743.458
3299.49,741.59
3300.94,735.378
3302.39,746.144
3303.84,728.991
3305.29,740.049
3306.74,758.984
3308.19,744.84
3309.64,731.371
3311.09,737.811
3312.55,752.296
3314,747.377
3315.45,722.344
3316.9,734.172
3318.35,752.557
3319.8,725.462
3321.25,750.364
3322.7,735.835
3324.15,740.884
3325.6,750.283
3327.05,752.643
3328.5,732.865
3329.95,748.844
3331.4,757.265
3332.85,732.991
3334.3,726.605
3335.75,734.692
3337.2,740.129
3338.65,737.026
3340.1,739.523
3341.55,747.148
3343,746.139
3344.45,735.898
3345.9,744.255
3347.35,732.598
3348.8,720.883
3350.25,746.356
3351.7,738.115
3353.15,735.648
3354.6,745.956
3356.06,735
3357.51,741.515
3358.96,741.319
3360.41,735.362
3361.86,737.314
3363.31,731.62
3364.76,732.556
3366.21,739.363
3367.66,743.179
3369.11,744.054
3370.56,760.513
3372.01,754.678
3373.46,778.974
3374.91,746.672
3376.36,744.396
3377.81,738.233
3379.26,746.54
3380.71,729.163
3382.16,748.639
3383.61,742.44
3385.06,760.433
3386.51,748.022
3387.96,736.304
3389.41,719.085
3390.86,741.399
3392.31,747.443
3393.76,735.542
3395.21,746.503
3396.66,746.222
3398.11,765.279
3399.56,756.164
3401.02,757.53
3402.47,751.741
3403.92,737.031
3405.37,723.819
3406.82,755.066
3408.27,731.676
3409.72,737.146
3411.17,747.395
3412.62,750.339
3414.07,747.784
3415.52,752.815
3416.97,736.258
3418.42,754.043
3419.87,737.743
3421.32,742.114
3422.77,748.846
3424.22,758.92
3425.67,764.309
3427.12,768.127
3428.57,763.292
3430.02,747.458
3431.47,756.98
3432.92,764.286
3434.37,739.934
3435.82,753.143
3437.27,755.527
3438.72,753.445
3440.17,757.064
3441.62,743.412
3443.07,745.536
3444.52,753.982
3445.98,718.391
3447.43,760.665
3448.88,758.795
3450.33,753.045
3451.78,750.412
3453.23,757.262
3454.68,757.563
3456.13,754.106
3457.58,754.401
3459.03,747.112
3460.48,741.946
3461.93,772.611
3463.38,759.386
3464.83,766.799
3466.28,774.936
3467.73,775.508
3469.18,765.237
3470.63,753.53
3472.08,764.711
3473.53,777.666
3474.98,770.264
3476.43,741.148
3477.88,776.56
3479.33,772.347
3480.78,772.764
3482.23,762.169
3483.68,782.47
3485.13,734.358
3486.58,765.888
3488.03,780.072
3489.49,773.236
3490.94,751.345
3492.39,753.872
3493.84,763.832
3495.29,778.633
3496.74,778.338
3498.19,757.407
3499.64,770.6
3501.09,769.23
3502.54,781.1
3503.99,765.597
3505.44,769.419
3506.89,777.54
3508.34,783.714
3509.79,770.453
3511.24,775.226
3512.69,775.045
3514.14,770.191
3515.59,803.277
3517.04,780.245
3518.49,785.215
3519.94,783.667
3521.39,775.111
3522.84,787.291
3524.29,784.486
3525.74,781.857
3527.19,794.899
3528.64,769.084
3530.09,781.36
3531.54,788.24
3532.99,799.4
3534.45,794.009
3535.9,760.666
3537.35,786.542
3538.8,784.494
3540.25,780.09
3541.7,781.064
3543.15,775.463
3544.6,797.186
3546.05,777.469
3547.5,778.022
3548.95,786.476
3550.4,795.765
3551.85,789.229
3553.3,781.589
3554.75,770.746
3556.2,768.601
3557.65,789.052
3559.1,773.105
3560.55,783.18
3562,784.079
3563.45,784.999
3564.9,774.317
3566.35,788.589
3567.8,803.852
3569.25,793.403
3570.7,800.267
3572.15,795.117
3573.6,783.374
3575.05,779.074
3576.5,784.445
3577.96,790.668
3579.41,805.808
3580.86,786.415
3582.31,798.469
3583.76,801.214
3585.21,791.34
3586.66,781.439
3588.11,794.368
3589.56,797.721
3591.01,791.219
3592.46,821.439
3593.91,769.528
3595.36,772.244
3596.81,785.448
3598.26,801.815
3599.71,797.274
3601.16,793.585
3602.61,794.173
3604.06,802.362
3605.51,796.529
3606.96,811.449
3608.41,799.319
3609.86,818.579
3611.31,809.476
3612.76,799.773
3614.21,806.266
3615.66,807.327
3617.11,817.527
3618.56,794.477
3620.01,812.448
3621.46,831.044
3622.92,828.344
3624.37,812.533
3625.82,795.547
3627.27,811.215
3628.72,814.947
3630.17,804.928
3631.62,809.754
3633.07,798.868
3634.52,822.82
3635.97,797.506
3637.42,816.513
3638.87,819.212
3640.32,844.897
3641.77,814.505
3643.22,800.92
3644.67,830.778
3646.12,809.673
3647.57,828.768
3649.02,823.924
3650.47,817.616
3651.92,837.049
3653.37,827.245
3654.82,820.345
3656.27,818.648
3657.72,816.514
3659.17,815.718
3660.62,829.101
3662.07,828.513
3663.52,828.882
3664.97,818.072
3666.43,826.568
3667.88,851.5
3669.33,834.005
3670.78,832.554
3672.23,831.976
3673.68,839.798
3675.13,832.777
3676.58,827.196
3678.03,820.744
3679.48,822.841
3680.93,841.283
3682.38,835.218
3683.83,835.94
3685.28,820.33
3686.73,850.58
3688.18,836.349
3689.63,840.784
3691.08,830.473
3692.53,834.19
3693.98,838.241
3695.43,816.126
3696.88,845.305
3698.33,870.937
3699.78,846.562
3701.23,842.182
3702.68,839.966
3704.13,829.753
3705.58,828.744
3707.03,841.178
3708.48,830.828
3709.93,839.252
3711.39,844.822
3712.84,841.161
3714.29,862.431
3715.74,852.262
3717.19,849.806
3718.64,839.914
3720.09,848.395
3721.54,848.237
3722.99,853.876
3724.44,866.427
3725.89,859.294
3727.34,877.771
3728.79,873.07
3730.24,854.194
3731.69,845.08
3733.14,848.149
3734.59,843.886
3736.04,856.842
3737.49,844.79
3738.94,849.277
3740.39,850.135
3741.84,875.5
3743.29,877.805
3744.74,855.148
3746.19,862.649
3747.64,867.919
3749.09,861.616
3750.54,875.099
3751.99,872.031
3753.44,856.731
3754.89,867.393
3756.35,862.394
3757.8,860.649
3759.25,864.617
3760.7,856.989
3762.15,896.482
3763.6,878.469
3765.05,881.875
3766.5,880.231
3767.95,860.809
3769.4,876.737
3770.85,858.158
3772.3,873.737
3773.75,873.626
3775.2,879.621
3776.65,885.473
3778.1,890.016
3779.55,868.786
3781,869.099
3782.45,900.736
3783.9,885.855
3785.35,885.081
3786.8,889.405
3788.25,888.209
3789.7,916.155
3791.15,899.919
3792.6,878.307
3794.05,877.011
3795.5,896.836
3796.95,901.467
3798.4,872.605
3799.85,896.004
3801.31,899.722
3802.76,887.426
3804.21,887.476
3805.66,897.18
3807.11,897.14
3808.56,883.357
3810.01,879.42
3811.46,904.818
3812.91,886.125
3814.36,891.424
3815.81,920.02
3817.26,902.641
3818.71,909.009
3820.16,918.578
3821.61,908.752
3823.06,908.286
3824.51,903.431
3825.96,902.699
3827.41,901.257
3828.86,916.559
3830.31,914.069
3831.76,915.715
3833.21,931.449
3834.66,898.6
3836.11,896.489
3837.56,891.492
3839.01,907.177
3840.46,909.565
3841.91,916.909
3843.36,925.548
3844.82,915.466
3846.27,930.802
3847.72,928.364
3849.17,928.367
3850.62,931.088
3852.07,923.947
3853.52,920.34
3854.97,929.131
3856.42,906.726
3857.87,948.915
3859.32,935.791
3860.77,947.458
3862.22,928.029
3863.67,930.503
3865.12,913.921
3866.57,943.836
3868.02,937.531
3869.47,936.947
3870.92,952.4
3872.37,921.809
3873.82,950.887
3875.27,945.849
3876.72,954.915
3878.17,952.594
3879.62,932.812
3881.07,939.127
3882.52,962.293
3883.97,947.259
3885.42,959.545
3886.87,952.812
3888.32,951.663
3889.78,961.301
3891.23,961.669
3892.68,942.431
3894.13,942.431
3895.58,943.397
3897.03,967.118
3898.48,971.282
3899.93,975.963
3901.38,963.807
3902.83,977.568
3904.28,985.777
3905.73,968.116
3907.18,980.839
3908.63,973.982
3910.08,956.831
3911.53,968.372
3912.98,994.626
3914.43,977.133
3915.88,990.286
3917.33,984.979
3918.78,990.509
3920.23,975.233
3921.68,1002.67
3923.13,978.228
3924.58,984.981
3926.03,1005
3927.48,1007.64
3928.93,980.988
3930.38,996.989
3931.83,1028.22
3933.28,992.68
3934.74,1017.18
3936.19,1028.03
3937.64,1019.38
3939.09,1006.77
3940.54,988.603
3941.99,1013.78
3943.44,1024.09
3944.89,1002.46
3946.34,1003.52
3947.79,1011.59
3949.24,998.799
3950.69,1043.54
3952.14,1025.01
3953.59,1004.05
3955.04,1033.46
3956.49,1046.95
3957.94,1031.26
3959.39,1040.5
3960.84,1071.31
3962.29,1021.72
3963.74,1055.45
3965.19,1015.86
3966.64,1062.03
3968.09,1064.44
3969.54,1050.84
3970.99,1045.84
3972.44,1041.76
3973.89,1049.5
3975.34,1065.42
3976.79,1019.11
3978.25,1066.26
3979.7,1076.56
3981.15,1053.8
3982.6,1077.58
3984.05,1082.43
3985.5,1045.17
3986.95,1080.33
3988.4,1107.25
3989.85,1074.07
3991.3,1073.99
3992.75,1078.2
3994.2,1063.51
3995.65,1082.15
3997.1,1062.62
3998.55,1092.16
4000,1073.9
