0.1,54.8188
1.45033,54.8188
2.90065,54.8188
4.35098,54.8188
5.80131,54.8188
7.25163,45.2254
8.70196,102.046
10.1523,70.2752
11.6026,55.0127
13.0529,47.7385
14.5033,42.1072
15.9536,36.8526
17.4039,33.5368
18.8542,31.1136
20.3046,32.1591
21.7549,32.0714
23.2052,28.2293
24.6555,24.5422
26.1059,25.1243
27.5562,24.3805
29.0065,21.9431
30.4569,18.9967
31.9072,16.2292
33.3575,16.9253
34.8078,17.8079
36.2582,17.477
37.7085,16.554
39.1588,16.9935
40.6091,14.4393
42.0595,11.5668
43.5098,11.4095
44.9601,14.9198
46.4104,17.0617
47.8608,21.6491
49.3111,28.3865
50.7614,34.8749
52.2117,55.9535
53.6621,102.694
55.1124,174.406
56.5627,273.074
58.0131,409.981
59.4634,534.99
60.9137,652.338
62.364,755.848
63.8144,840.92
65.2647,919.611
66.715,962.671
68.1653,988.525
69.6157,1007.8
71.066,1029.93
72.5163,1031.22
73.9666,1031.29
75.417,1028.43
76.8673,1022.71
78.3176,1017.16
79.7679,1039.87
81.2183,1069.4
82.6686,1102.08
84.1189,1134.26
85.5693,1152.81
87.0196,1165.25
88.4699,1158.1
89.9202,1143.94
91.3706,1142.3
92.8209,1099.78
94.2712,1079.41
95.7215,1059.82
97.1719,1031.27
98.6222,991.69
100.073,972.702
101.523,963.217
102.973,946.123
104.423,913.005
105.874,872.652
107.324,876.615
108.774,863.003
110.225,841.904
111.675,830.071
113.125,826.349
114.576,816.805
116.026,802.846
117.476,788.105
118.927,775.754
120.377,741.444
121.827,733.443
123.278,735.344
124.728,730.642
126.178,699.892
127.629,678.243
129.079,664.004
130.529,651.208
131.98,639.444
133.43,636.833
134.88,627.686
136.331,623.536
137.781,617.434
139.231,608.14
140.682,613.553
142.132,590.376
143.582,571.096
145.033,563.351
146.483,566.042
147.933,554.086
149.384,543.092
150.834,522.189
152.284,503.83
153.735,504.767
155.185,518.601
156.635,488.706
158.086,488.006
159.536,497.181
160.986,461.375
162.437,463.62
163.887,466.309
165.337,473.678
166.788,476.556
168.238,456.885
169.688,463.071
171.139,462.016
172.589,456.583
174.039,451.05
175.489,451.613
176.94,439.588
178.39,433.026
179.84,436.458
181.291,442.168
182.741,424.918
184.191,410.906
185.642,405.15
187.092,398.102
188.542,389.734
189.993,398.188
191.443,399.884
192.893,398.338
194.344,396.015
195.794,395.159
197.244,397.976
198.695,402.021
200.145,395.189
201.595,389.48
203.046,390.898
204.496,385.636
205.946,401.854
207.397,402.158
208.847,397.934
210.297,397.124
211.748,383.771
213.198,385.385
214.648,381.021
216.099,373.86
217.549,367.652
218.999,359.557
220.45,352.657
221.9,343.63
223.35,343.489
224.801,357.227
226.251,368.907
227.701,364.743
229.152,362.599
230.602,359.546
232.052,351.807
233.503,339.35
234.953,359.194
236.403,355.833
237.854,349.568
239.304,353.08
240.754,340.425
242.204,336.2
243.655,342.421
245.105,337.687
246.555,322.601
248.006,348.657
249.456,340.326
250.906,340.616
252.357,340.141
253.807,333.93
255.257,330.714
256.708,341.511
258.158,341.6
259.608,341.18
261.059,343.86
262.509,342.156
263.959,323.697
265.41,322.46
266.86,333.119
268.31,343.173
269.761,334.376
271.211,336.272
272.661,326.395
274.112,324.073
275.562,332.379
277.012,341.023
278.463,324.902
279.913,326.336
281.363,321.55
282.814,312.76
284.264,313.443
285.714,310.785
287.165,308.918
288.615,309.685
290.065,308.206
291.516,300.007
292.966,296.019
294.416,304.949
295.867,303.761
297.317,299.103
298.767,297.897
300.218,285.933
301.668,294.823
303.118,297.433
304.569,300.852
306.019,304.649
307.469,285.624
308.919,293.337
310.37,290.918
311.82,287.872
313.27,284.593
314.721,269.28
316.171,262.232
317.621,257.405
319.072,265.979
320.522,273.752
321.972,256.682
323.423,263.925
324.873,266.562
326.323,265.997
327.774,263.14
329.224,261.127
330.674,274.096
332.125,269.024
333.575,264.788
335.025,264.948
336.476,267.432
337.926,263.423
339.376,265.623
340.827,263.547
342.277,258.042
343.727,258.75
345.178,281.216
346.628,255.612
348.078,250.752
349.529,252.504
350.979,253.108
352.429,250.901
353.88,261.991
355.33,253.223
356.78,252.161
358.231,256.709
359.681,257.901
361.131,247.376
362.582,250.012
364.032,254.82
365.482,258.705
366.933,257.526
368.383,246.343
369.833,248.452
371.284,238.227
372.734,239.992
374.184,247.206
375.635,243.179
377.085,247.013
378.535,249.835
379.986,251.895
381.436,253.051
382.886,253.435
384.336,253.818
385.787,250.665
387.237,251.254
388.687,248.711
390.138,243.329
391.588,241.485
393.038,243.597
394.489,245.388
395.939,246.295
397.389,250.176
398.84,255.894
400.29,242.441
401.74,242.666
403.191,241.904
404.641,251.328
406.091,260.748
407.542,239.108
408.992,247.957
410.442,247.082
411.893,242.862
413.343,242.829
414.793,250.428
416.244,252.931
417.694,241.397
419.144,239.068
420.595,234.087
422.045,230.114
423.495,250.974
424.946,256.947
426.396,239.262
427.846,230.384
429.297,233.776
430.747,241.182
432.197,247.94
433.648,235.682
435.098,230.329
436.548,238.589
437.999,248.515
439.449,235.283
440.899,245.9
442.35,238.085
443.8,238.304
445.25,239.363
446.701,233.437
448.151,243.494
449.601,240.063
451.051,233.577
452.502,235.175
453.952,242.641
455.402,244.331
456.853,243.362
458.303,230.985
459.753,237.378
461.204,244.632
462.654,238.801
464.104,233.598
465.555,242.696
467.005,239.472
468.455,237.304
469.906,235.583
471.356,230.653
472.806,238.41
474.257,235.593
475.707,236.036
477.157,235.864
478.608,239.659
480.058,257.274
481.508,241.956
482.959,242.186
484.409,236.034
485.859,234.957
487.31,243.554
488.76,237.355
490.21,242.014
491.661,231.507
493.111,232.17
494.561,240.623
496.012,241.962
497.462,236.718
498.912,235.125
500.363,226.381
501.813,226.821
503.263,236.734
504.714,241.787
506.164,234.205
507.614,226.441
509.065,223.926
510.515,225.564
511.965,228.967
513.416,231.724
514.866,227.438
516.316,226.425
517.766,235.86
519.217,237.006
520.667,223.163
522.117,225.134
523.568,231.18
525.018,234.892
526.468,236.17
527.919,233.561
529.369,226.904
530.819,221.049
532.27,225.021
533.72,225.006
535.17,229.599
536.621,237.472
538.071,239.161
539.521,220.624
540.972,230.617
542.422,237.533
543.872,236.541
545.323,231.475
546.773,229.873
548.223,232.415
549.674,230.855
551.124,234.301
552.574,237.803
554.025,239.466
555.475,240.796
556.925,232.575
558.376,236.417
559.826,234.676
561.276,230.831
562.727,230.043
564.177,233.96
565.627,235.723
567.078,233.176
568.528,224.459
569.978,229.723
571.429,240.825
572.879,221.143
574.329,224.868
575.78,225.51
577.23,225.706
578.68,228.4
580.131,231.604
581.581,229.293
583.031,235.181
584.482,227.375
585.932,230.501
587.382,233.79
588.832,231.926
590.283,234.466
591.733,236.823
593.183,245.561
594.634,238.906
596.084,232.975
597.534,234.17
598.985,230.873
600.435,232.249
601.885,240.092
603.336,239.363
604.786,232.304
606.236,227.979
607.687,233.424
609.137,222.597
610.587,229.414
612.038,225.926
613.488,228.888
614.938,236.974
616.389,233.103
617.839,231.132
619.289,218.009
620.74,231.609
622.19,241.042
623.64,235.636
625.091,228.261
626.541,238.331
627.991,234.228
629.442,231.753
630.892,234.141
632.342,238.774
633.793,240.224
635.243,234.105
636.693,239.727
638.144,234.413
639.594,242.498
641.044,243.751
642.495,228.11
643.945,238.315
645.395,246.418
646.846,241.392
648.296,244.033
649.746,247.05
651.197,245.522
652.647,247.832
654.097,249.416
655.547,248.186
656.998,241.896
658.448,237.617
659.898,234.81
661.349,230.24
662.799,247.863
664.249,249.632
665.7,246.839
667.15,249.938
668.6,252.701
670.051,245.962
671.501,239.263
672.951,252.744
674.402,254.274
675.852,248.228
677.302,251.983
678.753,261.793
680.203,244.189
681.653,254.917
683.104,260.735
684.554,258.58
686.004,253.115
687.455,251.161
688.905,256.197
690.355,257.985
691.806,261.102
693.256,254.499
694.706,253.789
696.157,255.693
697.607,253.404
699.057,255.834
700.508,259.616
701.958,270.487
703.408,268.327
704.859,261.66
706.309,259.964
707.759,261.519
709.21,250.771
710.66,247.645
712.11,255.388
713.561,253.376
715.011,251.858
716.461,262.03
717.912,253.976
719.362,250.386
720.812,254.203
722.263,255.155
723.713,262.051
725.163,270.249
726.613,261.979
728.064,257.392
729.514,262.207
730.964,260.896
732.415,259.015
733.865,258.702
735.315,258.153
736.766,255.301
738.216,271.692
739.666,266.732
741.117,257.846
742.567,258.782
744.017,259.833
745.468,246.934
746.918,261.541
748.368,259.877
749.819,252.901
751.269,257.968
752.719,260.278
754.17,252.854
755.62,255.559
757.07,268.579
758.521,265.367
759.971,253
761.421,254.294
762.872,261.752
764.322,259.267
765.772,255.6
767.223,263.622
768.673,271.113
770.123,260.264
771.574,255.112
773.024,262.184
774.474,265.294
775.925,252.657
777.375,260.286
778.825,264.592
780.276,263.342
781.726,262.235
783.176,261.061
784.627,255.599
786.077,265.044
787.527,264.786
788.978,260.036
790.428,269.584
791.878,274.257
793.328,268.003
794.779,275.909
796.229,264.643
797.68,270.372
799.13,268.717
800.58,267.016
802.03,268.653
803.481,274.664
804.931,284.596
806.381,270.497
807.832,277.156
809.282,270.631
810.732,266.426
812.183,268.098
813.633,270.522
815.083,272.367
816.534,274.585
817.984,274.97
819.434,278.913
820.885,275.928
822.335,274.824
823.785,280.898
825.236,273.28
826.686,268.839
828.136,279.974
829.587,274.129
831.037,276.922
832.487,290.197
833.938,294.426
835.388,276.103
836.838,286.815
838.289,294.388
839.739,283.492
841.189,283.407
842.64,291.942
844.09,295.319
845.54,296.375
846.991,287.877
848.441,287.829
849.891,289.984
851.342,290.547
852.792,295.504
854.242,300.775
855.693,286.793
857.143,267.955
858.593,290.143
860.044,297.831
861.494,297.768
862.944,293.287
864.394,290.673
865.845,297.597
867.295,297.395
868.745,295.6
870.196,299.433
871.646,291.105
873.096,285.328
874.547,284.973
875.997,279.6
877.447,286.467
878.898,282
880.348,296.609
881.798,299.723
883.249,296.565
884.699,295.504
886.149,296.84
887.6,293.535
889.05,278.271
890.5,290.791
891.951,293.801
893.401,292.179
894.851,293.792
896.302,297.247
897.752,293.658
899.202,292.03
900.653,303.992
902.103,299.898
903.553,303.821
905.004,304.459
906.454,305.495
907.904,322.72
909.355,326.968
910.805,324.112
912.255,318.038
913.706,301.648
915.156,300.561
916.606,307.192
918.057,308.575
919.507,318.603
920.957,294.094
922.408,303.796
923.858,320.452
925.308,321.025
926.759,314.555
928.209,318.362
929.659,332.354
931.109,325.647
932.56,325.647
934.01,328.172
935.46,332.529
936.911,320.029
938.361,314.457
939.811,327.383
941.262,322.756
942.712,337.277
944.162,329.878
945.613,330.327
947.063,315.619
948.513,311.657
949.964,322.978
951.414,326.376
952.864,315.387
954.315,322.963
955.765,331.309
957.215,330.315
958.666,327.913
960.116,325.486
961.566,323.292
963.017,321.525
964.467,312.61
965.917,323.696
967.368,323.664
968.818,325.116
970.268,318.932
971.719,313.326
973.169,316.839
974.619,322.76
976.07,328.424
977.52,321.855
978.97,336.504
980.421,333.13
981.871,332.684
983.321,331.319
984.772,325.013
986.222,335.579
987.672,320.146
989.123,332.414
990.573,327.576
992.023,328.784
993.474,329.571
994.924,327.492
996.374,328.309
997.825,333.002
999.275,325.996
1000.73,336.615
1002.18,334.381
1003.63,341.861
1005.08,348.346
1006.53,350.982
1007.98,352.465
1009.43,346.356
1010.88,340.785
1012.33,344.385
1013.78,364.348
1015.23,359.438
1016.68,354.818
1018.13,358.57
1019.58,360.145
1021.03,358.373
1022.48,353.496
1023.93,373.537
1025.38,371.631
1026.83,383.322
1028.28,379.152
1029.73,371.709
1031.18,375.487
1032.63,370.426
1034.08,372.141
1035.53,375.866
1036.98,399.873
1038.43,404.696
1039.88,399.361
1041.33,401.32
1042.78,404.155
1044.23,395.742
1045.69,411.231
1047.14,405.845
1048.59,402.385
1050.04,408.611
1051.49,407.093
1052.94,410.85
1054.39,422.246
1055.84,427.219
1057.29,424.485
1058.74,434.234
1060.19,438.496
1061.64,433.531
1063.09,445.017
1064.54,453.392
1065.99,455.48
1067.44,460.509
1068.89,469.389
1070.34,484.087
1071.79,477.439
1073.24,471.355
1074.69,462.268
1076.14,465.214
1077.59,475.188
1079.04,481.991
1080.49,483.357
1081.94,481.301
1083.39,464.453
1084.84,495.263
1086.29,492.536
1087.74,479.257
1089.2,483.775
1090.65,489.226
1092.1,480.444
1093.55,475.161
1095,473.605
1096.45,467.564
1097.9,465.605
1099.35,468.457
1100.8,466.945
1102.25,472.755
1103.7,462.781
1105.15,444.435
1106.6,482.413
1108.05,478.588
1109.5,457.911
1110.95,456.61
1112.4,454.543
1113.85,457.811
1115.3,461.687
1116.75,458.872
1118.2,451.982
1119.65,450.03
1121.1,438.602
1122.55,457.823
1124,442.572
1125.45,437.728
1126.9,445.494
1128.35,444.877
1129.8,441.457
1131.25,445.92
1132.7,429.724
1134.16,444.573
1135.61,451.06
1137.06,433.29
1138.51,432.963
1139.96,428.522
1141.41,427.149
1142.86,427.532
1144.31,422.204
1145.76,433.551
1147.21,428.692
1148.66,419.67
1150.11,432.977
1151.56,426.523
1153.01,414.447
1154.46,415.757
1155.91,421.598
1157.36,421.933
1158.81,433.906
1160.26,431.306
1161.71,406.936
1163.16,429.236
1164.61,424.619
1166.06,423.396
1167.51,428.941
1168.96,428.861
1170.41,422.634
1171.86,421.282
1173.31,417.649
1174.76,413.236
1176.21,422.178
1177.66,419.125
1179.12,418.672
1180.57,421.102
1182.02,424.547
1183.47,425.12
1184.92,424.29
1186.37,436.157
1187.82,424.777
1189.27,432.145
1190.72,429.674
1192.17,426.039
1193.62,424.777
1195.07,417.4
1196.52,417.786
1197.97,434.317
1199.42,438.973
1200.87,434.662
1202.32,438.25
1203.77,415.599
1205.22,429.521
1206.67,431.216
1208.12,420.895
1209.57,422.11
1211.02,429.793
1212.47,428.419
1213.92,438.617
1215.37,425.866
1216.82,438.975
1218.27,435.436
1219.72,445.627
1221.17,444.296
1222.63,435.685
1224.08,436.465
1225.53,440.26
1226.98,428.968
1228.43,423.352
1229.88,449.278
1231.33,430.641
1232.78,452.583
1234.23,444.872
1235.68,451.976
1237.13,457.824
1238.58,458.986
1240.03,460.668
1241.48,458.176
1242.93,473.991
1244.38,458.529
1245.83,444.741
1247.28,453.896
1248.73,476.817
1250.18,474.493
1251.63,462.643
1253.08,465.216
1254.53,473.682
1255.98,473.007
1257.43,486.424
1258.88,494.113
1260.33,481.365
1261.78,491.689
1263.23,496.766
1264.68,490.584
1266.13,494.844
1267.59,508.878
1269.04,521.289
1270.49,524.751
1271.94,518.011
1273.39,541.159
1274.84,534.553
1276.29,534.471
1277.74,549.173
1279.19,548.977
1280.64,561.851
1282.09,572.089
1283.54,581.813
1284.99,598.55
1286.44,601.06
1287.89,609.143
1289.34,591.161
1290.79,629.966
1292.24,644.64
1293.69,648.423
1295.14,666.068
1296.59,688.711
1298.04,699.249
1299.49,710.62
1300.94,738.749
1302.39,757.487
1303.84,759.748
1305.29,773.202
1306.74,799.611
1308.19,813.421
1309.64,841.946
1311.09,879.023
1312.55,911.473
1314,935.544
1315.45,964.734
1316.9,1000.58
1318.35,1017.95
1319.8,1061.05
1321.25,1075.6
1322.7,1086.43
1324.15,1139.52
1325.6,1138.67
1327.05,1133.5
1328.5,1133.01
1329.95,1140.34
1331.4,1158.11
1332.85,1167.74
1334.3,1159.54
1335.75,1160.89
1337.2,1121.88
1338.65,1112.85
1340.1,1078.41
1341.55,1074.72
1343,1050.92
1344.45,1013.33
1345.9,996.559
1347.35,988.007
1348.8,952.65
1350.25,905.711
1351.7,873.268
1353.15,866.11
1354.6,872.984
1356.06,846.43
1357.51,791.768
1358.96,762.691
1360.41,759.831
1361.86,753.232
1363.31,741.323
1364.76,734.894
1366.21,717.807
1367.66,681.255
1369.11,673.884
1370.56,684.87
1372.01,667.645
1373.46,666.365
1374.91,652.926
1376.36,658.545
1377.81,651.289
1379.26,634
1380.71,624.99
1382.16,625.575
1383.61,631.738
1385.06,616.003
1386.51,594.373
1387.96,615.934
1389.41,617.946
1390.86,629.844
1392.31,627.422
1393.76,607.927
1395.21,614.483
1396.66,612.097
1398.11,605.564
1399.56,628.82
1401.02,632.881
1402.47,629.421
1403.92,625.402
1405.37,634.27
1406.82,639.583
1408.27,639.279
1409.72,625.587
1411.17,643.759
1412.62,649.561
1414.07,629.721
1415.52,626.667
1416.97,644.795
1418.42,648.68
1419.87,663.538
1421.32,663.991
1422.77,669.18
1424.22,650.538
1425.67,660.236
1427.12,691.807
1428.57,675.254
1430.02,674.245
1431.47,685.263
1432.92,687.681
1434.37,691.836
1435.82,702.781
1437.27,714.648
1438.72,741.861
1440.17,724.049
1441.62,716.23
1443.07,730.258
1444.53,717.474
1445.98,738.122
1447.43,758.636
1448.88,767.019
1450.33,758.23
1451.78,756.196
1453.23,778.697
1454.68,800.576
1456.13,800.74
1457.58,807.219
1459.03,817.636
1460.48,833.742
1461.93,814.965
1463.38,854.673
1464.83,869.227
1466.28,868.963
1467.73,879.531
1469.18,893.91
1470.63,917.256
1472.08,947.064
1473.53,964.235
1474.98,970.724
1476.43,981.15
1477.88,1003.64
1479.33,991.153
1480.78,1035.06
1482.23,1055.95
1483.68,1072.75
1485.13,1114.39
1486.58,1128.5
1488.03,1137.77
1489.49,1177.03
1490.94,1210.14
1492.39,1221.32
1493.84,1243.1
1495.29,1273.33
1496.74,1330.59
1498.19,1355
1499.64,1406.85
1501.09,1400.94
1502.54,1492.81
1503.99,1555.13
1505.44,1601.43
1506.89,1668.85
1508.34,1736.2
1509.79,1802.37
1511.24,1878.7
1512.69,1968.66
1514.14,2072.12
1515.59,2182.28
1517.04,2292.74
1518.49,2412.21
1519.94,2545.05
1521.39,2734.23
1522.84,2940.44
1524.29,3113.68
1525.74,3304.78
1527.19,3601.21
1528.64,3876.55
1530.09,4140.48
1531.54,4459.45
1532.99,4824.21
1534.45,5230.25
1535.9,5670.13
1537.35,6084.38
1538.8,6571.76
1540.25,7005.36
1541.7,7569.49
1543.15,8140.21
1544.6,8810.58
1546.05,9288.68
1547.5,9808.11
1548.95,10364
1550.4,10979.6
1551.85,11484.6
1553.3,11502.9
1554.75,11521.7
1556.2,11554.7
1557.65,11582.9
1559.1,11603.7
1560.55,11677.1
1562,11641.3
1563.45,11632.2
1564.9,11626.9
1566.35,11605.2
1567.8,11515.3
1569.25,10945.4
1570.7,10309.2
1572.15,9664.29
1573.6,9031.46
1575.05,8413.89
1576.5,7780.17
1577.96,7157.96
1579.41,6607.82
1580.86,6115.61
1582.31,5627.01
1583.76,5150.05
1585.21,4807.45
1586.66,4440.42
1588.11,4158.12
1589.56,3863.05
1591.01,3612.58
1592.46,3361.36
1593.91,3178.96
1595.36,2972.43
1596.81,2815.1
1598.26,2674.94
1599.71,2522.9
1601.16,2396.33
1602.61,2279.07
1604.06,2158.87
1605.51,2054.26
1606.96,1961.44
1608.41,1861.86
1609.86,1807.92
1611.31,1725.96
1612.76,1639.71
1614.21,1602.45
1615.66,1537.09
1617.11,1473.75
1618.56,1421.66
1620.01,1381.91
1621.46,1349.29
1622.92,1302.28
1624.37,1254.09
1625.82,1210.04
1627.27,1190.32
1628.72,1170.46
1630.17,1122.58
1631.62,1096.93
1633.07,1098.81
1634.52,1064.41
1635.97,1064.66
1637.42,1046.56
1638.87,1003.06
1640.32,991.944
1641.77,985.681
1643.22,970.507
1644.67,950.342
1646.12,932.257
1647.57,925.744
1649.02,909.932
1650.47,893.213
1651.92,884.904
1653.37,885.121
1654.82,876.715
1656.27,882.684
1657.72,858.841
1659.17,854.287
1660.62,828.997
1662.07,817.872
1663.52,803.16
1664.97,811.291
1666.42,788.583
1667.88,789.55
1669.33,769.592
1670.78,756.997
1672.23,773.204
1673.68,773.853
1675.13,767.008
1676.58,755.915
1678.03,755.392
1679.48,761.394
1680.93,747.817
1682.38,728.755
1683.83,740.015
1685.28,719.653
1686.73,708.179
1688.18,695.251
1689.63,701.383
1691.08,718.687
1692.53,715.024
1693.98,695.418
1695.43,698.53
1696.88,708.292
1698.33,704.446
1699.78,699.517
1701.23,696.5
1702.68,701.47
1704.13,689.823
1705.58,698.655
1707.03,688.067
1708.48,700.945
1709.93,666.122
1711.39,672.941
1712.84,698.934
1714.29,680.283
1715.74,670.338
1717.19,678.741
1718.64,689.066
1720.09,680.274
1721.54,686.767
1722.99,687.341
1724.44,672.938
1725.89,679.336
1727.34,682.713
1728.79,667.278
1730.24,674.323
1731.69,672.951
1733.14,669.847
1734.59,656.649
1736.04,683.569
1737.49,663.361
1738.94,645.932
1740.39,640.107
1741.84,633.399
1743.29,632.474
1744.74,644.791
1746.19,645.213
1747.64,648.151
1749.09,631.54
1750.54,642.185
1751.99,632.899
1753.44,610.472
1754.89,617.314
1756.35,624.989
1757.8,612.771
1759.25,617.033
1760.7,622.897
1762.15,600.946
1763.6,609.703
1765.05,606.431
1766.5,610.709
1767.95,598.11
1769.4,594.404
1770.85,589.641
1772.3,605.647
1773.75,582.108
1775.2,598.807
1776.65,580.38
1778.1,578.315
1779.55,584.102
1781,577.179
1782.45,584.277
1783.9,587.242
1785.35,585.614
1786.8,584.938
1788.25,593.802
1789.7,585.788
1791.15,576.515
1792.6,581.686
1794.05,567.752
1795.5,569.504
1796.95,576.419
1798.4,590.426
1799.85,593.798
1801.31,577.138
1802.76,561.703
1804.21,566.002
1805.66,577.071
1807.11,576.392
1808.56,556.249
1810.01,562.579
1811.46,549.02
1812.91,546.128
1814.36,567.596
1815.81,568.99
1817.26,568.096
1818.71,554.191
1820.16,552.082
1821.61,559.556
1823.06,558.274
1824.51,563.743
1825.96,568.292
1827.41,568.097
1828.86,570.689
1830.31,568.5
1831.76,576.133
1833.21,578.111
1834.66,563.448
1836.11,578.287
1837.56,566.782
1839.01,567.886
1840.46,577.711
1841.91,575.25
1843.36,593.995
1844.82,583.364
1846.27,576.55
1847.72,573.052
1849.17,589.496
1850.62,579.703
1852.07,598.751
1853.52,579.092
1854.97,582.567
1856.42,588.793
1857.87,594.009
1859.32,596.317
1860.77,590.929
1862.22,576.59
1863.67,579.791
1865.12,585.273
1866.57,590.823
1868.02,590.143
1869.47,578.075
1870.92,581.385
1872.37,589.462
1873.82,591.33
1875.27,596.626
1876.72,581.463
1878.17,571.905
1879.62,573.805
1881.07,579.506
1882.52,583.495
1883.97,572.529
1885.42,578.106
1886.87,562.589
1888.32,573.97
1889.78,583.805
1891.23,547.224
1892.68,554.76
1894.13,554.751
1895.58,559.339
1897.03,556.643
1898.48,562.222
1899.93,550.127
1901.38,543.647
1902.83,545.002
1904.28,547.469
1905.73,541.745
1907.18,552.913
1908.63,549.802
1910.08,560.262
1911.53,552.034
1912.98,537.361
1914.43,545.498
1915.88,547.594
1917.33,542.994
1918.78,543.631
1920.23,544.379
1921.68,543.268
1923.13,536.614
1924.58,539.311
1926.03,543.001
1927.48,539.425
1928.93,548.245
1930.38,537.74
1931.83,552.625
1933.29,530.551
1934.74,539.575
1936.19,538.78
1937.64,530.714
1939.09,535.249
1940.54,533.21
1941.99,547.818
1943.44,535.102
1944.89,539.903
1946.34,541.974
1947.79,544.5
1949.24,528.377
1950.69,547.352
1952.14,551.601
1953.59,560.551
1955.04,566.405
1956.49,545.43
1957.94,549.845
1959.39,545.936
1960.84,532.763
1962.29,556.596
1963.74,547.791
1965.19,557.709
1966.64,560.723
1968.09,545.14
1969.54,543.561
1970.99,541.603
1972.44,544.994
1973.89,551.832
1975.34,560.597
1976.79,571.6
1978.25,572.882
1979.7,566.052
1981.15,564.11
1982.6,569.132
1984.05,570.806
1985.5,559.609
1986.95,556.858
1988.4,565.484
1989.85,559.389
1991.3,565.018
1992.75,566.055
1994.2,554.606
1995.65,568.713
1997.1,549.924
1998.55,554.676
2000,550.889
2001.45,562.954
2002.9,565.364
2004.35,578.498
2005.8,569.172
2007.25,556.892
2008.7,561.476
2010.15,556.366
2011.6,547.855
2013.05,542.12
2014.5,544.38
2015.95,555.047
2017.4,548.973
2018.85,544.01
2020.3,558.507
2021.75,566.817
2023.21,568.628
2024.66,561.315
2026.11,534.367
2027.56,573.679
2029.01,540.391
2030.46,547.829
2031.91,533.764
2033.36,554.109
2034.81,528.076
2036.26,569.167
2037.71,538.737
2039.16,548.015
2040.61,544.963
2042.06,526.696
2043.51,547.009
2044.96,546.51
2046.41,523.821
2047.86,524.12
2049.31,549.519
2050.76,520.478
2052.21,523.617
2053.66,514.932
2055.11,523.061
2056.56,534.201
2058.01,534.074
2059.46,530.63
2060.91,516.971
2062.36,514.298
2063.81,518.002
2065.26,518.314
2066.72,525.346
2068.17,523.048
2069.62,516.552
2071.07,526.018
2072.52,513.546
2073.97,514.617
2075.42,517.905
2076.87,519.139
2078.32,531.475
2079.77,526.724
2081.22,518.999
2082.67,508.879
2084.12,512.491
2085.57,514.232
2087.02,506.143
2088.47,513.677
2089.92,514.526
2091.37,515.121
2092.82,511.898
2094.27,517.097
2095.72,519.897
2097.17,514.941
2098.62,517.501
2100.07,506.897
2101.52,519.658
2102.97,521.434
2104.42,514.394
2105.87,520.625
2107.32,523.875
2108.77,525.334
2110.22,529.922
2111.68,533.287
2113.13,531.607
2114.58,522.378
2116.03,517.914
2117.48,518.096
2118.93,524.077
2120.38,530.735
2121.83,527.362
2123.28,530.439
2124.73,535.878
2126.18,537.142
2127.63,534.194
2129.08,532.086
2130.53,537.579
2131.98,539.778
2133.43,524.702
2134.88,527.329
2136.33,539.501
2137.78,532.073
2139.23,530.055
2140.68,532.758
2142.13,534.922
2143.58,549.07
2145.03,543.549
2146.48,540.62
2147.93,540.675
2149.38,540.233
2150.83,550.259
2152.28,546.631
2153.73,547.448
2155.18,552.831
2156.64,552.697
2158.09,546.551
2159.54,559.166
2160.99,557.616
2162.44,554.442
2163.89,566.829
2165.34,562.05
2166.79,559.241
2168.24,556.517
2169.69,558.373
2171.14,562.875
2172.59,556.911
2174.04,561.449
2175.49,576.453
2176.94,569.469
2178.39,574.479
2179.84,577.313
2181.29,571.75
2182.74,565.691
2184.19,572.016
2185.64,564.543
2187.09,564.617
2188.54,563.401
2189.99,566.271
2191.44,566.393
2192.89,568.214
2194.34,574.708
2195.79,585.202
2197.24,572.868
2198.69,578.182
2200.15,573.903
2201.6,575.309
2203.05,564.856
2204.5,567.165
2205.95,577.547
2207.4,581.598
2208.85,575.19
2210.3,578.744
2211.75,589.057
2213.2,602.419
2214.65,579.664
2216.1,594.009
2217.55,591.979
2219,579.173
2220.45,592.69
2221.9,590.677
2223.35,594.37
2224.8,602.829
2226.25,614.08
2227.7,591.675
2229.15,601.64
2230.6,611.94
2232.05,594.898
2233.5,588.591
2234.95,580.841
2236.4,608.44
2237.85,616.326
2239.3,599.502
2240.75,604.688
2242.2,609.704
2243.65,592.827
2245.11,610.667
2246.56,620.149
2248.01,613.32
2249.46,605.161
2250.91,620.554
2252.36,620.725
2253.81,638.668
2255.26,621.981
2256.71,610.915
2258.16,621.508
2259.61,636.492
2261.06,625.981
2262.51,609.732
2263.96,622.975
2265.41,639.123
2266.86,629.29
2268.31,641.091
2269.76,634.775
2271.21,625.911
2272.66,642.231
2274.11,639.289
2275.56,629.064
2277.01,635.579
2278.46,637.115
2279.91,637.115
2281.36,633.882
2282.81,648.627
2284.26,654.013
2285.71,647.205
2287.16,638.447
2288.61,652.914
2290.07,660.319
2291.52,671.456
2292.97,666.235
2294.42,669.035
2295.87,668.301
2297.32,656.95
2298.77,659.956
2300.22,662.758
2301.67,648.572
2303.12,675.894
2304.57,678.688
2306.02,677.488
2307.47,660.294
2308.92,668.108
2310.37,691.641
2311.82,687.105
2313.27,678.655
2314.72,667.506
2316.17,680.299
2317.62,681.545
2319.07,720.317
2320.52,705.328
2321.97,697.458
2323.42,720.581
2324.87,705.359
2326.32,712.828
2327.77,720.064
2329.22,715.08
2330.67,714.658
2332.12,730.814
2333.57,731.601
2335.03,742.744
2336.48,713.855
2337.93,727.459
2339.38,741.328
2340.83,740.272
2342.28,751.943
2343.73,754.153
2345.18,750.042
2346.63,764.392
2348.08,752.865
2349.53,753.323
2350.98,781.204
2352.43,782.683
2353.88,793.915
2355.33,791.599
2356.78,795.154
2358.23,813.029
2359.68,811.641
2361.13,802.49
2362.58,805.392
2364.03,831.965
2365.48,834.888
2366.93,875.288
2368.38,831.852
2369.83,851.796
2371.28,848.682
2372.73,879.768
2374.18,884.934
2375.63,895.958
2377.08,910.975
2378.54,915.38
2379.99,927.043
2381.44,941.654
2382.89,948.977
2384.34,954.938
2385.79,955.786
2387.24,974.633
2388.69,983.025
2390.14,1002.66
2391.59,1027.34
2393.04,1024.85
2394.49,1009.89
2395.94,1022.5
2397.39,1058.91
2398.84,1095.65
2400.29,1075.47
2401.74,1100.67
2403.19,1102.48
2404.64,1135.38
2406.09,1150.18
2407.54,1128.2
2408.99,1137.53
2410.44,1148.29
2411.89,1136.24
2413.34,1169.63
2414.79,1187.61
2416.24,1170.28
2417.69,1159
2419.14,1172.95
2420.59,1169.64
2422.04,1138.26
2423.5,1159.99
2424.95,1171.7
2426.4,1152.86
2427.85,1140.33
2429.3,1147.11
2430.75,1157.88
2432.2,1156.89
2433.65,1142.93
2435.1,1117.92
2436.55,1142.79
2438,1123.61
2439.45,1123.69
2440.9,1133.69
2442.35,1118.02
2443.8,1120.26
2445.25,1102.94
2446.7,1120.55
2448.15,1105.7
2449.6,1096.9
2451.05,1081.84
2452.5,1088.74
2453.95,1067.07
2455.4,1092.58
2456.85,1070.18
2458.3,1070.75
2459.75,1080.94
2461.2,1085.55
2462.65,1074.32
2464.1,1074.05
2465.55,1065.57
2467.01,1064.35
2468.46,1070.04
2469.91,1070.21
2471.36,1064.7
2472.81,1069.5
2474.26,1074.79
2475.71,1063.53
2477.16,1082.58
2478.61,1088.09
2480.06,1102.24
2481.51,1096.87
2482.96,1097.81
2484.41,1075.71
2485.86,1102.12
2487.31,1114.88
2488.76,1110.1
2490.21,1104.79
2491.66,1101.59
2493.11,1100.14
2494.56,1111.33
2496.01,1092.73
2497.46,1090.68
2498.91,1102.12
2500.36,1105.04
2501.81,1098.37
2503.26,1130.07
2504.71,1133.63
2506.16,1146.31
2507.61,1169.23
2509.06,1126.75
2510.51,1181.61
2511.97,1161.29
2513.42,1173.53
2514.87,1190.08
2516.32,1205.82
2517.77,1204.43
2519.22,1212.45
2520.67,1234.51
2522.12,1245.06
2523.57,1264.09
2525.02,1260.98
2526.47,1274.95
2527.92,1281.54
2529.37,1261.24
2530.82,1292.29
2532.27,1319.22
2533.72,1311.8
2535.17,1321.67
2536.62,1343.95
2538.07,1378.77
2539.52,1359.39
2540.97,1399.35
2542.42,1404
2543.87,1466.52
2545.32,1477.2
2546.77,1470.9
2548.22,1504.14
2549.67,1523.65
2551.12,1538.41
2552.57,1541.02
2554.02,1576.05
2555.48,1609.37
2556.93,1650.74
2558.38,1670.74
2559.83,1689.31
2561.28,1716.52
2562.73,1779.71
2564.18,1799.02
2565.63,1832.84
2567.08,1877.86
2568.53,1902.17
2569.98,1956.34
2571.43,2028.57
2572.88,2066.96
2574.33,2065.59
2575.78,2130.49
2577.23,2186.64
2578.68,2231.23
2580.13,2294.39
2581.58,2345.77
2583.03,2387.99
2584.48,2457
2585.93,2516.43
2587.38,2566.84
2588.83,2668.35
2590.28,2769.24
2591.73,2873.56
2593.18,2908.7
2594.63,2985.61
2596.08,3092.72
2597.53,3175.15
2598.98,3314.78
2600.44,3409.08
2601.89,3533.79
2603.34,3660.34
2604.79,3766.91
2606.24,3910.01
2607.69,4008.35
2609.14,4173.42
2610.59,4257.83
2612.04,4433.93
2613.49,4551.83
2614.94,4733.5
2616.39,4877.34
2617.84,4987.01
2619.29,5142.67
2620.74,5289.06
2622.19,5436.97
2623.64,5624.84
2625.09,5716.51
2626.54,5861.09
2627.99,6007.43
2629.44,6180.78
2630.89,6341.97
2632.34,6491.58
2633.79,6602.52
2635.24,6798.84
2636.69,6842.5
2638.14,6949.32
2639.59,7090.26
2641.04,7132.52
2642.49,7222.53
2643.94,7274.74
2645.4,7295.76
2646.85,7326.56
2648.3,7342.38
2649.75,7292.12
2651.2,7302.41
2652.65,7211.97
2654.1,7247.03
2655.55,7143.22
2657,7080.43
2658.45,6959.8
2659.9,6838.2
2661.35,6711.93
2662.8,6601.7
2664.25,6448.32
2665.7,6356.16
2667.15,6243.99
2668.6,6049.33
2670.05,5925.24
2671.5,5787.31
2672.95,5542.25
2674.4,5444.43
2675.85,5276.82
2677.3,5085.41
2678.75,4946.27
2680.2,4837.8
2681.65,4612.45
2683.1,4484.94
2684.55,4333.94
2686,4220.87
2687.45,4065.68
2688.91,3899.85
2690.36,3761.02
2691.81,3647.16
2693.26,3527.1
2694.71,3347.7
2696.16,3245.28
2697.61,3202.64
2699.06,3039.57
2700.51,2961.97
2701.96,2911.8
2703.41,2804.8
2704.86,2675.72
2706.31,2602.14
2707.76,2493.38
2709.21,2458.28
2710.66,2380
2712.11,2293.17
2713.56,2235.21
2715.01,2197.23
2716.46,2127.3
2717.91,2076.85
2719.36,2011.7
2720.81,1980.77
2722.26,1942.08
2723.71,1876.56
2725.16,1817.86
2726.61,1782.81
2728.06,1758.79
2729.51,1733.43
2730.96,1688.68
2732.41,1630.59
2733.87,1631.39
2735.32,1575.82
2736.77,1559.41
2738.22,1530.93
2739.67,1511.41
2741.12,1490.84
2742.57,1443.31
2744.02,1430.27
2745.47,1428.45
2746.92,1384.86
2748.37,1385.55
2749.82,1349.42
2751.27,1353.16
2752.72,1315.89
2754.17,1320.44
2755.62,1287.24
2757.07,1254.02
2758.52,1245.26
2759.97,1240.01
2761.42,1209.53
2762.87,1200.61
2764.32,1205.75
2765.77,1186.31
2767.22,1143.77
2768.67,1187.53
2770.12,1158.21
2771.57,1150.4
2773.02,1134.07
2774.47,1136.31
2775.92,1130.27
2777.38,1111.56
2778.83,1110.54
2780.28,1095.57
2781.73,1086.54
2783.18,1070.48
2784.63,1071.91
2786.08,1062.49
2787.53,1028.68
2788.98,1045.81
2790.43,1057.04
2791.88,1041.81
2793.33,1027.55
2794.78,1011.49
2796.23,1008.71
2797.68,1018.8
2799.13,1005.13
2800.58,1006.23
2802.03,993.215
2803.48,985.69
2804.93,995.645
2806.38,979.69
2807.83,960.316
2809.28,967.644
2810.73,956.342
2812.18,964.894
2813.63,965.553
2815.08,973.389
2816.53,947.583
2817.98,955.136
2819.43,965.544
2820.88,948.035
2822.33,933.532
2823.79,941.825
2825.24,930.381
2826.69,922.058
2828.14,915.875
2829.59,917.855
2831.04,931.406
2832.49,938.183
2833.94,895.733
2835.39,893.353
2836.84,896.112
2838.29,888.268
2839.74,888.273
2841.19,893.772
2842.64,909.518
2844.09,906.174
2845.54,895.894
2846.99,890.717
2848.44,888.262
2849.89,874.994
2851.34,889.454
2852.79,879.806
2854.24,870.034
2855.69,882.443
2857.14,903.928
2858.59,880.216
2860.04,868.329
2861.49,880.761
2862.94,863.327
2864.39,865.465
2865.84,884.385
2867.3,879.898
2868.75,878.163
2870.2,877.966
2871.65,862.21
2873.1,868.216
2874.55,886.141
2876,877.325
2877.45,880.032
2878.9,882.079
2880.35,876.965
2881.8,857.302
2883.25,864.525
2884.7,866.022
2886.15,865.861
2887.6,863.483
2889.05,855.409
2890.5,869.461
2891.95,877.663
2893.4,869.633
2894.85,874.889
2896.3,874.487
2897.75,862.049
2899.2,860.124
2900.65,858.877
2902.1,853.409
2903.55,849.798
2905,850.763
2906.45,853.317
2907.9,855.721
2909.35,848.329
2910.8,833.179
2912.26,832.507
2913.71,840.884
2915.16,811.935
2916.61,845.657
2918.06,833.574
2919.51,814.76
2920.96,833.026
2922.41,829.16
2923.86,827.084
2925.31,819.81
2926.76,807.07
2928.21,801.339
2929.66,799.363
2931.11,794.824
2932.56,786.06
2934.01,803.764
2935.46,787.303
2936.91,787.298
2938.36,784.063
2939.81,774.866
2941.26,766.349
2942.71,773.574
2944.16,777.06
2945.61,774.335
2947.06,773.097
2948.51,775.913
2949.96,758.892
2951.41,756.719
2952.86,769.035
2954.31,755.898
2955.77,750.846
2957.22,760.501
2958.67,751.843
2960.12,739.597
2961.57,774.247
2963.02,750.021
2964.47,746.56
2965.92,743.66
2967.37,748.142
2968.82,746.099
2970.27,752.916
2971.72,734.527
2973.17,736.613
2974.62,735.763
2976.07,727.42
2977.52,728.114
2978.97,734.181
2980.42,726.88
2981.87,738.629
2983.32,744.953
2984.77,736.417
2986.22,724.313
2987.67,732.542
2989.12,738.572
2990.57,742.35
2992.02,734.925
2993.47,722.842
2994.92,729.323
2996.37,741.893
2997.82,738.566
2999.27,745.549
3000.73,719.45
3002.18,735.623
3003.63,721.546
3005.08,731.039
3006.53,727.394
3007.98,709.835
3009.43,706.318
3010.88,715.873
3012.33,728.27
3013.78,743.772
3015.23,711.1
3016.68,723.846
3018.13,713.305
3019.58,723.355
3021.03,724.919
3022.48,712.362
3023.93,727.614
3025.38,741.615
3026.83,719.958
3028.28,729.66
3029.73,748.665
3031.18,750.601
3032.63,738.007
3034.08,751.331
3035.53,755.296
3036.98,710.86
3038.43,742.544
3039.88,746.566
3041.33,740.936
3042.78,739.549
3044.23,728.926
3045.69,728.746
3047.14,724.139
3048.59,739.611
3050.04,749.683
3051.49,728.678
3052.94,726.61
3054.39,741.628
3055.84,754.225
3057.29,750.226
3058.74,738.528
3060.19,756.961
3061.64,766.141
3063.09,771.882
3064.54,776.412
3065.99,772.947
3067.44,753.422
3068.89,769.711
3070.34,784.143
3071.79,806.871
3073.24,772.521
3074.69,790.147
3076.14,788.769
3077.59,794.007
3079.04,817.656
3080.49,816.413
3081.94,833.435
3083.39,826.819
3084.84,847.047
3086.29,834.511
3087.74,842.525
3089.2,846.725
3090.65,860.979
3092.1,866.169
3093.55,869.979
3095,866.981
3096.45,872.893
3097.9,886.631
3099.35,907.414
3100.8,916.114
3102.25,906.965
3103.7,934.744
3105.15,940.437
3106.6,930.116
3108.05,953.62
3109.5,935.148
3110.95,953.356
3112.4,958.301
3113.85,986.679
3115.3,982.29
3116.75,993.394
3118.2,985.935
3119.65,1001.79
3121.1,1008.93
3122.55,1011.28
3124,1016.64
3125.45,1012.56
3126.9,1023.04
3128.35,1039.02
3129.8,1024.76
3131.25,1026.54
3132.7,1042.39
3134.16,1034.59
3135.61,1034.25
3137.06,1052.57
3138.51,1026.48
3139.96,1043.17
3141.41,1049.44
3142.86,1037.28
3144.31,1056.71
3145.76,1057.04
3147.21,1060.47
3148.66,1045.06
3150.11,1043.73
3151.56,1028.04
3153.01,1038.21
3154.46,1056.73
3155.91,1063.41
3157.36,1074.49
3158.81,1086.5
3160.26,1054.15
3161.71,1074.24
3163.16,1085.54
3164.61,1082.82
3166.06,1071.96
3167.51,1103.71
3168.96,1095.2
3170.41,1094.33
3171.86,1111.02
3173.31,1119.95
3174.76,1126.01
3176.21,1106.79
3177.67,1124.82
3179.12,1117.46
3180.57,1133.51
3182.02,1160.1
3183.47,1144.92
3184.92,1120.92
3186.37,1137.93
3187.82,1132.91
3189.27,1114.36
3190.72,1139.44
3192.17,1118.54
3193.62,1111.17
3195.07,1105.63
3196.52,1103.59
3197.97,1077.4
3199.42,1033.59
3200.87,1054.95
3202.32,1046.33
3203.77,1030.27
3205.22,1029.02
3206.67,1013.65
3208.12,1002.21
3209.57,981.094
3211.02,957.001
3212.47,978.579
3213.92,945.407
3215.37,919.003
3216.82,920.307
3218.27,901.632
3219.72,884.176
3221.17,886.163
3222.63,879.449
3224.08,877.508
3225.53,862.368
3226.98,855.885
3228.43,815.033
3229.88,840.841
3231.33,820.133
3232.78,798.799
3234.23,781.801
3235.68,788.882
3237.13,785.01
3238.58,782.331
3240.03,758.9
3241.48,748.465
3242.93,754.042
3244.38,763.583
3245.83,758.884
3247.28,760.783
3248.73,742.281
3250.18,749.438
3251.63,746.336
3253.08,745.507
3254.53,735.57
3255.98,708.669
3257.43,723.94
3258.88,723.594
3260.33,716.338
3261.78,715.68
3263.23,712.465
3264.68,729.064
3266.13,718.771
3267.59,702.047
3269.04,711.962
3270.49,724.594
3271.94,718.841
3273.39,699.174
3274.84,712.014
3276.29,705.022
3277.74,700.121
3279.19,717.846
3280.64,697.76
3282.09,707.204
3283.54,699.68
3284.99,709.284
3286.44,704.556
3287.89,698.066
3289.34,714.201
3290.79,714.301
3292.24,689.969
3293.69,719.597
3295.14,718.58
3296.59,706.544
3298.04,700.648
3299.49,698.887
3300.94,693.033
3302.39,703.179
3303.84,687.013
3305.29,697.435
3306.74,715.28
3308.19,701.95
3309.64,689.257
3311.09,695.326
3312.55,708.977
3314,704.341
3315.45,680.749
3316.9,691.897
3318.35,709.222
3319.8,683.688
3321.25,707.156
3322.7,693.463
3324.15,698.221
3325.6,707.08
3327.05,709.303
3328.5,690.665
3329.95,705.723
3331.4,713.66
3332.85,690.784
3334.3,684.765
3335.75,692.387
3337.2,697.51
3338.65,694.586
3340.1,696.94
3341.55,704.125
3343,703.175
3344.45,693.523
3345.9,701.398
3347.35,690.413
3348.8,679.373
3350.25,703.379
3351.7,695.613
3353.15,693.287
3354.6,703.001
3356.06,692.677
3357.51,698.817
3358.96,698.632
3360.41,693.018
3361.86,694.857
3363.31,689.491
3364.76,690.374
3366.21,696.789
3367.66,700.385
3369.11,701.209
3370.56,716.721
3372.01,711.222
3373.46,734.118
3374.91,703.677
3376.36,701.532
3377.81,695.724
3379.26,703.552
3380.71,687.176
3382.16,705.53
3383.61,699.689
3385.06,716.645
3386.51,704.949
3387.96,693.906
3389.41,677.679
3390.86,698.708
3392.31,704.403
3393.76,693.187
3395.21,703.517
3396.66,703.253
3398.11,721.212
3399.56,712.622
3401.02,713.909
3402.47,708.454
3403.92,694.591
3405.37,682.139
3406.82,711.587
3408.27,689.544
3409.72,694.699
3411.17,704.358
3412.62,707.132
3414.07,704.725
3415.52,709.466
3416.97,693.863
3418.42,710.623
3419.87,695.262
3421.32,699.381
3422.77,705.725
3424.22,715.219
3425.67,720.298
3427.12,723.896
3428.57,719.34
3430.02,704.417
3431.47,713.391
3432.92,720.276
3434.37,697.327
3435.82,709.775
3437.27,712.022
3438.72,710.059
3440.17,713.47
3441.62,700.604
3443.07,702.606
3444.52,710.565
3445.98,677.024
3447.43,716.863
3448.88,715.102
3450.33,709.683
3451.78,707.201
3453.23,713.657
3454.68,713.94
3456.13,710.682
3457.58,710.961
3459.03,704.091
3460.48,699.223
3461.93,728.122
3463.38,715.658
3464.83,722.645
3466.28,730.313
3467.73,730.852
3469.18,721.173
3470.63,710.14
3472.08,720.677
3473.53,732.886
3474.98,725.91
3476.43,698.471
3477.88,731.844
3479.33,727.873
3480.78,728.266
3482.23,718.281
3483.68,737.413
3485.13,692.072
3486.58,721.786
3488.03,735.153
3489.49,728.711
3490.94,708.081
3492.39,710.462
3493.84,719.848
3495.29,733.797
3496.74,733.519
3498.19,713.793
3499.64,726.226
3501.09,724.935
3502.54,736.123
3503.99,721.512
3505.44,725.114
3506.89,732.767
3508.34,738.586
3509.79,726.088
3511.24,730.586
3512.69,730.416
3514.14,725.841
3515.59,757.022
3517.04,735.316
3518.49,740
3519.94,738.541
3521.39,730.478
3522.84,741.957
3524.29,739.314
3525.74,736.835
3527.19,749.127
3528.64,724.798
3530.09,736.367
3531.54,742.851
3532.99,753.368
3534.45,748.288
3535.9,716.864
3537.35,741.251
3538.8,739.321
3540.25,735.17
3541.7,736.088
3543.15,730.81
3544.6,751.282
3546.05,732.7
3547.5,733.222
3548.95,741.189
3550.4,749.942
3551.85,743.783
3553.3,736.583
3554.75,726.364
3556.2,724.343
3557.65,743.616
3559.1,728.588
3560.55,738.083
3562,738.929
3563.45,739.797
3564.9,729.73
3566.35,743.18
3567.8,757.564
3569.25,747.717
3570.7,754.186
3572.15,749.332
3573.6,738.266
3575.05,734.213
3576.5,739.275
3577.96,745.139
3579.41,759.407
3580.86,741.131
3582.31,752.491
3583.76,755.078
3585.21,745.773
3586.66,736.442
3588.11,748.626
3589.56,751.786
3591.01,745.659
3592.46,774.138
3593.91,725.217
3595.36,727.776
3596.81,740.22
3598.26,755.645
3599.71,751.365
3601.16,747.888
3602.61,748.442
3604.06,756.16
3605.51,750.663
3606.96,764.724
3608.41,753.292
3609.86,771.443
3611.31,762.864
3612.76,753.72
3614.21,759.839
3615.66,760.839
3617.11,770.452
3618.56,748.729
3620.01,765.665
3621.46,783.19
3622.92,780.646
3624.37,765.745
3625.82,749.737
3627.27,764.503
3628.72,768.02
3630.17,758.578
3631.62,763.127
3633.07,752.867
3634.52,775.44
3635.97,751.583
3637.42,769.496
3638.87,772.039
3640.32,796.246
3641.77,767.603
3643.22,754.801
3644.67,782.94
3646.12,763.05
3647.57,781.045
3649.02,776.48
3650.47,770.535
3651.92,788.85
3653.37,779.61
3654.82,773.108
3656.27,771.508
3657.72,769.497
3659.17,768.747
3660.62,781.359
3662.07,780.805
3663.52,781.153
3664.97,770.965
3666.43,778.972
3667.88,802.468
3669.33,785.981
3670.78,784.613
3672.23,784.069
3673.68,791.44
3675.13,784.823
3676.58,779.564
3678.03,773.483
3679.48,775.459
3680.93,792.839
3682.38,787.124
3683.83,787.804
3685.28,773.093
3686.73,801.602
3688.18,788.189
3689.63,792.369
3691.08,782.652
3692.53,786.155
3693.98,789.973
3695.43,769.131
3696.88,796.63
3698.33,820.786
3699.78,797.815
3701.23,793.687
3702.68,791.598
3704.13,781.973
3705.58,781.023
3707.03,792.741
3708.48,782.987
3709.93,790.926
3711.39,796.175
3712.84,792.725
3714.29,812.77
3715.74,803.187
3717.19,800.872
3718.64,791.55
3720.09,799.542
3721.54,799.394
3722.99,804.708
3724.44,816.536
3725.89,809.813
3727.34,827.227
3728.79,822.796
3730.24,805.007
3731.69,796.418
3733.14,799.31
3734.59,795.293
3736.04,807.503
3737.49,796.145
3738.94,800.373
3740.39,801.182
3741.84,825.086
3743.29,827.259
3744.74,805.907
3746.19,812.975
3747.64,817.942
3749.09,812.001
3750.54,824.708
3751.99,821.818
3753.44,807.399
3754.89,817.446
3756.35,812.735
3757.8,811.091
3759.25,814.83
3760.7,807.642
3762.15,844.86
3763.6,827.884
3765.05,831.094
3766.5,829.545
3767.95,811.241
3769.4,826.253
3770.85,808.743
3772.3,823.425
3773.75,823.32
3775.2,828.97
3776.65,834.485
3778.1,838.766
3779.55,818.759
3781,819.054
3782.45,848.869
3783.9,834.845
3785.35,834.115
3786.8,838.191
3788.25,837.063
3789.7,863.4
3791.15,848.099
3792.6,827.732
3794.05,826.51
3795.5,845.193
3796.95,849.558
3798.4,822.358
3799.85,844.41
3801.31,847.913
3802.76,836.326
3804.21,836.373
3805.66,845.518
3807.11,845.481
3808.56,832.491
3810.01,828.781
3811.46,852.716
3812.91,835.099
3814.36,840.093
3815.81,867.043
3817.26,850.665
3818.71,856.666
3820.16,865.684
3821.61,856.423
3823.06,855.984
3824.51,851.409
3825.96,850.719
3827.41,849.36
3828.86,863.781
3830.31,861.435
3831.76,862.986
3833.21,877.814
3834.66,846.856
3836.11,844.867
3837.56,840.157
3839.01,854.94
3840.46,857.19
3841.91,864.11
3843.36,872.253
3844.82,862.751
3846.27,877.204
3847.72,874.906
3849.17,874.909
3850.62,877.474
3852.07,870.743
3853.52,867.344
3854.97,875.629
3856.42,854.514
3857.87,894.274
3859.32,881.906
3860.77,892.901
3862.22,874.591
3863.67,876.923
3865.12,861.295
3866.57,889.488
3868.02,883.546
3869.47,882.995
3870.92,897.559
3872.37,868.729
3873.82,896.132
3875.27,891.385
3876.72,899.928
3878.17,897.741
3879.62,879.098
3881.07,885.05
3882.52,906.881
3883.97,892.714
3885.42,904.292
3886.87,897.947
3888.32,896.864
3889.78,905.947
3891.23,906.294
3892.68,888.164
3894.13,888.164
3895.58,889.073
3897.03,911.429
3898.48,915.353
3899.93,919.765
3901.38,908.308
3902.83,921.277
3904.28,929.013
3905.73,912.369
3907.18,924.359
3908.63,917.898
3910.08,901.734
3911.53,912.61
3912.98,937.353
3914.43,920.867
3915.88,933.262
3917.33,928.261
3918.78,933.473
3920.23,919.076
3921.68,944.936
3923.13,921.899
3924.58,928.263
3926.03,947.13
3927.48,949.617
3928.93,924.5
3930.38,939.58
3931.83,969.01
3933.28,935.518
3934.74,958.612
3936.19,968.831
3937.64,960.684
3939.09,948.798
3940.54,931.676
3941.99,955.4
3943.44,965.12
3944.89,944.738
3946.34,945.737
3947.79,953.337
3949.24,941.285
3950.69,983.448
3952.14,965.986
3953.59,946.236
3955.04,973.954
3956.49,986.66
3957.94,971.873
3959.39,980.585
3960.84,1009.62
3962.29,962.888
3963.74,994.675
3965.19,957.369
3966.64,1000.87
3968.09,1003.14
3969.54,990.333
3970.99,985.615
3972.44,981.772
3973.89,989.071
3975.34,1004.07
3976.79,960.429
3978.25,1004.87
3979.7,1014.57
3981.15,993.122
3982.6,1015.53
3984.05,1020.1
3985.5,984.984
3986.95,1018.12
3988.4,1043.49
3989.85,1012.22
3991.3,1012.15
3992.75,1016.11
3994.2,1002.27
3995.65,1019.83
3997.1,1001.43
3998.55,1029.27
4000,1012.06
