-0.1,51.6334
1.45033,51.6334
2.90065,51.6334
4.35098,51.6334
5.80131,51.6334
7.25163,42.5975
8.70196,96.1167
10.1523,66.1917
11.6026,51.8161
13.0529,44.9646
14.5033,39.6604
15.9536,34.7112
17.4039,31.588
18.8542,29.3056
20.3046,30.2904
21.7549,30.2078
23.2052,26.589
24.6555,23.1161
26.1059,23.6644
27.5562,22.9638
29.0065,20.668
30.4569,17.8928
31.9072,15.2862
33.3575,15.9418
34.8078,16.7731
36.2582,16.4614
37.7085,15.5921
39.1588,16.0061
40.6091,13.6003
42.0595,10.8947
43.5098,10.7465
44.9601,14.0529
46.4104,16.0703
47.8608,20.3912
49.3111,26.737
50.7614,32.8484
52.2117,52.7022
53.6621,96.7271
55.1124,164.272
56.5627,257.207
58.0131,386.158
59.4634,503.903
60.9137,614.432
62.364,711.928
63.8144,792.057
65.2647,866.175
66.715,906.733
68.1653,931.085
69.6157,949.244
71.066,970.083
72.5163,971.298
73.9666,971.369
75.417,968.672
76.8673,963.287
78.3176,958.053
79.7679,979.442
81.2183,1007.26
82.6686,1038.05
84.1189,1068.35
85.5693,1085.83
87.0196,1097.54
88.4699,1090.8
89.9202,1077.47
91.3706,1075.93
92.8209,1035.87
94.2712,1016.68
95.7215,998.24
97.1719,971.342
98.6222,934.065
100.073,916.181
101.523,907.247
102.973,891.146
104.423,859.953
105.874,821.945
107.324,825.677
108.774,812.856
110.225,792.983
111.675,781.838
113.125,778.332
114.576,769.343
116.026,756.195
117.476,742.311
118.927,730.677
120.377,698.361
121.827,690.825
123.278,692.615
124.728,688.186
126.178,659.224
127.629,638.832
129.079,625.42
130.529,613.368
131.98,602.288
133.43,599.828
134.88,591.213
136.331,587.304
137.781,581.556
139.231,572.803
140.682,577.901
142.132,556.071
143.582,537.911
145.033,530.617
146.483,533.151
147.933,521.89
149.384,511.535
150.834,491.846
152.284,474.554
153.735,475.436
155.185,488.467
156.635,460.308
158.086,459.649
159.536,468.292
160.986,434.566
162.437,436.681
163.887,439.213
165.337,446.154
166.788,448.864
168.238,430.337
169.688,436.163
171.139,435.17
172.589,430.053
174.039,424.841
175.489,425.371
176.94,414.045
178.39,407.864
179.84,411.097
181.291,416.475
182.741,400.228
184.191,387.03
185.642,381.608
187.092,374.969
188.542,367.088
189.993,375.051
191.443,376.648
192.893,375.192
194.344,373.003
195.794,372.197
197.244,374.851
198.695,378.661
200.145,372.225
201.595,366.848
203.046,368.184
204.496,363.228
205.946,378.504
207.397,378.79
208.847,374.811
210.297,374.048
211.748,361.471
213.198,362.991
214.648,358.881
216.099,352.136
217.549,346.288
218.999,338.664
220.45,332.165
221.9,323.662
223.35,323.53
224.801,336.47
226.251,347.471
227.701,343.549
229.152,341.529
230.602,338.654
232.052,331.364
233.503,319.631
234.953,338.322
236.403,335.157
237.854,329.256
239.304,332.564
240.754,320.643
242.204,316.665
243.655,322.524
245.105,318.065
246.555,303.855
248.006,328.398
249.456,320.55
250.906,320.823
252.357,320.376
253.807,314.527
255.257,311.497
256.708,321.667
258.158,321.75
259.608,321.355
261.059,323.88
262.509,322.274
263.959,304.888
265.41,303.722
266.86,313.763
268.31,323.232
269.761,314.946
271.211,316.732
272.661,307.429
274.112,305.242
275.562,313.066
277.012,321.207
278.463,306.023
279.913,307.374
281.363,302.865
282.814,294.587
284.264,295.23
285.714,292.726
287.165,290.968
288.615,291.69
290.065,290.297
291.516,282.575
292.966,278.818
294.416,287.229
295.867,286.11
297.317,281.723
298.767,280.587
300.218,269.319
301.668,277.692
303.118,280.15
304.569,283.37
306.019,286.947
307.469,269.027
308.919,276.292
310.37,274.013
311.82,271.144
313.27,268.056
314.721,253.632
316.171,246.995
317.621,242.448
319.072,250.524
320.522,257.845
321.972,241.767
323.423,248.589
324.873,251.073
326.323,250.541
327.774,247.85
329.224,245.953
330.674,258.169
332.125,253.392
333.575,249.402
335.025,249.552
336.476,251.892
337.926,248.116
339.376,250.189
340.827,248.233
342.277,243.048
343.727,243.715
345.178,264.875
346.628,240.759
348.078,236.182
349.529,237.832
350.979,238.4
352.429,236.322
353.88,246.768
355.33,238.509
356.78,237.509
358.231,241.792
359.681,242.915
361.131,233.001
362.582,235.484
364.032,240.013
365.482,243.673
366.933,242.562
368.383,232.029
369.833,234.015
371.284,224.384
372.734,226.047
374.184,232.842
375.635,229.048
377.085,232.66
378.535,235.318
379.986,237.258
381.436,238.347
382.886,238.708
384.336,239.069
385.787,236.099
387.237,236.655
388.687,234.259
390.138,229.189
391.588,227.453
393.038,229.442
394.489,231.13
395.939,231.984
397.389,235.639
398.84,241.025
400.29,228.354
401.74,228.566
403.191,227.848
404.641,236.724
406.091,245.597
407.542,225.214
408.992,233.549
410.442,232.725
411.893,228.75
413.343,228.719
414.793,235.877
416.244,238.234
417.694,227.37
419.144,225.176
420.595,220.485
422.045,216.743
423.495,236.39
424.946,242.016
426.396,225.359
427.846,216.997
429.297,220.192
430.747,227.168
432.197,233.533
433.648,221.988
435.098,216.945
436.548,224.725
437.999,234.075
439.449,221.612
440.899,231.611
442.35,224.251
443.8,224.457
445.25,225.455
446.701,219.873
448.151,229.346
449.601,226.114
451.051,220.005
452.502,221.51
453.952,228.542
455.402,230.133
456.853,229.221
458.303,217.563
459.753,223.585
461.204,230.417
462.654,224.925
464.104,220.024
465.555,228.593
467.005,225.557
468.455,223.515
469.906,221.894
471.356,217.25
472.806,224.557
474.257,221.903
475.707,222.32
477.157,222.159
478.608,225.733
480.058,242.324
481.508,227.897
482.959,228.113
484.409,222.319
485.859,221.305
487.31,229.401
488.76,223.563
490.21,227.951
491.661,218.055
493.111,218.68
494.561,226.641
496.012,227.902
497.462,222.963
498.912,221.463
500.363,213.226
501.813,213.641
503.263,222.978
504.714,227.737
506.164,220.596
507.614,213.283
509.065,210.915
510.515,212.457
511.965,215.662
513.416,218.259
514.866,214.223
516.316,213.268
517.766,222.154
519.217,223.234
520.667,210.196
522.117,212.052
523.568,217.746
525.018,221.243
526.468,222.447
527.919,219.99
529.369,213.719
530.819,208.204
532.27,211.945
533.72,211.931
535.17,216.258
536.621,223.673
538.071,225.264
539.521,207.804
540.972,217.217
542.422,223.731
543.872,222.796
545.323,218.025
546.773,216.516
548.223,218.91
549.674,217.44
551.124,220.686
552.574,223.985
554.025,225.551
555.475,226.804
556.925,219.061
558.376,222.68
559.826,221.039
561.276,217.418
562.727,216.676
564.177,220.365
565.627,222.026
567.078,219.627
568.528,211.417
569.978,216.375
571.429,226.831
572.879,208.293
574.329,211.802
575.78,212.407
577.23,212.591
578.68,215.128
580.131,218.146
581.581,215.969
583.031,221.516
584.482,214.163
585.932,217.108
587.382,220.205
588.832,218.45
590.283,220.841
591.733,223.062
593.183,231.292
594.634,225.023
596.084,219.437
597.534,220.563
598.985,217.457
600.435,218.754
601.885,226.141
603.336,225.455
604.786,218.806
606.236,214.732
607.687,219.86
609.137,209.663
610.587,216.083
612.038,212.798
613.488,215.588
614.938,223.204
616.389,219.558
617.839,217.702
619.289,205.341
620.74,218.151
622.19,227.035
623.64,221.944
625.091,214.997
626.541,224.482
627.991,220.618
629.442,218.287
630.892,220.535
632.342,224.899
633.793,226.265
635.243,220.502
636.693,225.797
638.144,220.792
639.594,228.407
641.044,229.588
642.495,214.855
643.945,224.467
645.395,232.099
646.846,227.365
648.296,229.853
649.746,232.694
651.197,231.255
652.647,233.432
654.097,234.923
655.547,233.764
656.998,227.84
658.448,223.81
659.898,221.166
661.349,216.861
662.799,233.46
664.249,235.127
665.7,232.496
667.15,235.414
668.6,238.017
670.051,231.67
671.501,225.361
672.951,238.058
674.402,239.499
675.852,233.804
677.302,237.341
678.753,246.581
680.203,230
681.653,240.105
683.104,245.584
684.554,243.555
686.004,238.408
687.455,236.567
688.905,241.31
690.355,242.994
691.806,245.93
693.256,239.711
694.706,239.042
696.157,240.836
697.607,238.679
699.057,240.969
700.508,244.53
701.958,254.77
703.408,252.736
704.859,246.456
706.309,244.858
707.759,246.322
709.21,236.199
710.66,233.255
712.11,240.548
713.561,238.653
715.011,237.223
716.461,246.804
717.912,239.218
719.362,235.837
720.812,239.432
722.263,240.329
723.713,246.824
725.163,254.545
726.613,246.756
728.064,242.436
729.514,246.971
730.964,245.736
732.415,243.965
733.865,243.669
735.315,243.153
736.766,240.466
738.216,255.904
739.666,251.233
741.117,242.863
742.567,243.745
744.017,244.734
745.468,232.585
746.918,246.344
748.368,244.776
749.819,238.205
751.269,242.978
752.719,245.154
754.17,238.161
755.62,240.709
757.07,252.972
758.521,249.947
759.971,238.299
761.421,239.517
762.872,246.542
764.322,244.201
765.772,240.748
767.223,248.303
768.673,255.36
770.123,245.141
771.574,240.288
773.024,246.95
774.474,249.878
775.925,237.976
777.375,245.161
778.825,249.217
780.276,248.04
781.726,246.998
783.176,245.891
784.627,240.747
786.077,249.643
787.527,249.4
788.978,244.926
790.428,253.919
791.878,258.321
793.328,252.43
794.779,259.877
796.229,249.265
797.68,254.661
799.13,253.103
800.58,251.501
802.03,253.043
803.481,258.704
804.931,268.059
806.381,254.779
807.832,261.051
809.282,254.905
810.732,250.944
812.183,252.52
813.633,254.803
815.083,256.54
816.534,258.63
817.984,258.992
819.434,262.706
820.885,259.895
822.335,258.855
823.785,264.576
825.236,257.401
826.686,253.217
828.136,263.706
829.587,258.2
831.037,260.831
832.487,273.335
833.938,277.318
835.388,260.06
836.838,270.149
838.289,277.281
839.739,267.019
841.189,266.939
842.64,274.978
844.09,278.159
845.54,279.153
846.991,271.15
848.441,271.104
849.891,273.134
851.342,273.664
852.792,278.333
854.242,283.298
855.693,270.129
857.143,252.385
858.593,273.284
860.044,280.525
861.494,280.465
862.944,276.245
864.394,273.783
865.845,280.305
867.295,280.114
868.745,278.423
870.196,282.034
871.646,274.19
873.096,268.748
874.547,268.414
875.997,263.354
877.447,269.822
878.898,265.614
880.348,279.374
881.798,282.307
883.249,279.332
884.699,278.333
886.149,279.591
887.6,276.479
889.05,262.102
890.5,273.894
891.951,276.729
893.401,275.201
894.851,276.721
896.302,279.975
897.752,276.594
899.202,275.061
900.653,286.327
902.103,282.472
903.553,286.167
905.004,286.767
906.454,287.743
907.904,303.968
909.355,307.969
910.805,305.279
912.255,299.558
913.706,284.12
915.156,283.097
916.606,289.342
918.057,290.644
919.507,300.09
920.957,277.005
922.408,286.143
923.858,301.832
925.308,302.371
926.759,296.277
928.209,299.862
929.659,313.042
931.109,306.724
932.56,306.724
934.01,309.103
935.46,313.207
936.911,301.433
938.361,296.184
939.811,308.36
941.262,304.002
942.712,317.679
944.162,310.709
945.613,311.132
947.063,297.279
948.513,293.548
949.964,304.211
951.414,307.411
952.864,297.061
954.315,304.197
955.765,312.058
957.215,311.122
958.666,308.859
960.116,306.573
961.566,304.507
963.017,302.842
964.467,294.446
965.917,304.887
967.368,304.857
968.818,306.224
970.268,300.4
971.719,295.12
973.169,298.428
974.619,304.005
976.07,309.341
977.52,303.153
978.97,316.95
980.421,313.773
981.871,313.353
983.321,312.067
984.772,306.127
986.222,316.079
987.672,301.544
989.123,313.098
990.573,308.541
992.023,309.679
993.474,310.421
994.924,308.462
996.374,309.232
997.825,313.652
999.275,307.053
1000.73,317.055
1002.18,314.951
1003.63,321.996
1005.08,328.105
1006.53,330.587
1007.98,331.984
1009.43,326.23
1010.88,320.983
1012.33,324.374
1013.78,343.176
1015.23,338.552
1016.68,334.2
1018.13,337.735
1019.58,339.218
1021.03,337.549
1022.48,332.955
1023.93,351.832
1025.38,350.037
1026.83,361.048
1028.28,357.12
1029.73,350.11
1031.18,353.668
1032.63,348.902
1034.08,350.517
1035.53,354.025
1036.98,376.638
1038.43,381.18
1039.88,376.155
1041.33,378.001
1042.78,380.671
1044.23,372.747
1045.69,387.336
1047.14,382.262
1048.59,379.004
1050.04,384.868
1051.49,383.438
1052.94,386.977
1054.39,397.711
1055.84,402.395
1057.29,399.819
1058.74,409.002
1060.19,413.016
1061.64,408.339
1063.09,419.158
1064.54,427.046
1065.99,429.013
1067.44,433.75
1068.89,442.114
1070.34,455.958
1071.79,449.696
1073.24,443.966
1074.69,435.407
1076.14,438.182
1077.59,447.576
1079.04,453.984
1080.49,455.27
1081.94,453.334
1083.39,437.465
1084.84,466.484
1086.29,463.916
1087.74,451.409
1089.2,455.664
1090.65,460.799
1092.1,452.527
1093.55,447.55
1095,446.085
1096.45,440.395
1097.9,438.55
1099.35,441.236
1100.8,439.812
1102.25,445.285
1103.7,435.89
1105.15,418.61
1106.6,454.381
1108.05,450.779
1109.5,431.303
1110.95,430.078
1112.4,428.131
1113.85,431.209
1115.3,434.859
1116.75,432.209
1118.2,425.718
1119.65,423.88
1121.1,413.116
1122.55,431.22
1124,416.855
1125.45,412.292
1126.9,419.608
1128.35,419.027
1129.8,415.806
1131.25,420.009
1132.7,404.754
1134.16,418.74
1135.61,424.85
1137.06,408.113
1138.51,407.804
1139.96,403.622
1141.41,402.328
1142.86,402.689
1144.31,397.671
1145.76,408.359
1147.21,403.781
1148.66,395.284
1150.11,407.818
1151.56,401.739
1153.01,390.364
1154.46,391.598
1155.91,397.1
1157.36,397.415
1158.81,408.693
1160.26,406.244
1161.71,383.29
1163.16,404.294
1164.61,399.945
1166.06,398.794
1167.51,404.016
1168.96,403.941
1170.41,398.076
1171.86,396.802
1173.31,393.381
1174.76,389.224
1176.21,397.646
1177.66,394.771
1179.12,394.344
1180.57,396.633
1182.02,399.878
1183.47,400.417
1184.92,399.636
1186.37,410.813
1187.82,400.094
1189.27,407.035
1190.72,404.707
1192.17,401.283
1193.62,400.094
1195.07,393.146
1196.52,393.509
1197.97,409.08
1199.42,413.465
1200.87,409.405
1202.32,412.785
1203.77,391.449
1205.22,404.563
1206.67,406.16
1208.12,396.438
1209.57,397.582
1211.02,404.819
1212.47,403.525
1213.92,413.13
1215.37,401.12
1216.82,413.467
1218.27,410.134
1219.72,419.733
1221.17,418.479
1222.63,410.368
1224.08,411.104
1225.53,414.678
1226.98,404.042
1228.43,398.752
1229.88,423.171
1231.33,405.618
1232.78,426.285
1234.23,419.021
1235.68,425.713
1237.13,431.221
1238.58,432.316
1240.03,433.9
1241.48,431.553
1242.93,446.449
1244.38,431.885
1245.83,418.898
1247.28,427.521
1248.73,449.111
1250.18,446.922
1251.63,435.76
1253.08,438.183
1254.53,446.158
1255.98,445.522
1257.43,458.16
1258.88,465.401
1260.33,453.394
1261.78,463.118
1263.23,467.9
1264.68,462.077
1266.13,466.09
1267.59,479.309
1269.04,490.998
1270.49,494.26
1271.94,487.911
1273.39,509.713
1274.84,503.492
1276.29,503.415
1277.74,517.262
1279.19,517.077
1280.64,529.203
1282.09,538.847
1283.54,548.005
1284.99,563.77
1286.44,566.134
1287.89,573.748
1289.34,556.81
1290.79,593.36
1292.24,607.182
1293.69,610.745
1295.14,627.364
1296.59,648.692
1298.04,658.618
1299.49,669.328
1300.94,695.822
1302.39,713.471
1303.84,715.601
1305.29,728.274
1306.74,753.148
1308.19,766.155
1309.64,793.023
1311.09,827.946
1312.55,858.51
1314,881.182
1315.45,908.676
1316.9,942.44
1318.35,958.799
1319.8,999.393
1321.25,1013.1
1322.7,1023.3
1324.15,1073.31
1325.6,1072.5
1327.05,1067.63
1328.5,1067.17
1329.95,1074.08
1331.4,1090.81
1332.85,1099.89
1334.3,1092.16
1335.75,1093.44
1337.2,1056.69
1338.65,1048.19
1340.1,1015.74
1341.55,1012.27
1343,989.857
1344.45,954.452
1345.9,938.652
1347.35,930.597
1348.8,897.294
1350.25,853.083
1351.7,822.524
1353.15,815.783
1354.6,822.257
1356.06,797.246
1357.51,745.76
1358.96,718.374
1360.41,715.679
1361.86,709.463
1363.31,698.247
1364.76,692.192
1366.21,676.097
1367.66,641.669
1369.11,634.726
1370.56,645.074
1372.01,628.85
1373.46,627.645
1374.91,614.986
1376.36,620.279
1377.81,613.444
1379.26,597.16
1380.71,588.674
1382.16,589.225
1383.61,595.029
1385.06,580.209
1386.51,559.836
1387.96,580.144
1389.41,582.039
1390.86,593.245
1392.31,590.964
1393.76,572.602
1395.21,578.777
1396.66,576.53
1398.11,570.377
1399.56,592.281
1401.02,596.106
1402.47,592.847
1403.92,589.062
1405.37,597.414
1406.82,602.418
1408.27,602.133
1409.72,589.236
1411.17,606.352
1412.62,611.817
1414.07,593.13
1415.52,590.253
1416.97,607.327
1418.42,610.987
1419.87,624.981
1421.32,625.408
1422.77,630.296
1424.22,612.737
1425.67,621.871
1427.12,651.608
1428.57,636.017
1430.02,635.066
1431.47,645.445
1432.92,647.722
1434.37,651.635
1435.82,661.944
1437.27,673.122
1438.72,698.754
1440.17,681.977
1441.62,674.612
1443.07,687.825
1444.53,675.784
1445.98,695.232
1447.43,714.554
1448.88,722.45
1450.33,714.171
1451.78,712.255
1453.23,733.45
1454.68,754.057
1456.13,754.211
1457.58,760.314
1459.03,770.125
1460.48,785.296
1461.93,767.609
1463.38,805.011
1464.83,818.718
1466.28,818.47
1467.73,828.424
1469.18,841.967
1470.63,863.957
1472.08,892.033
1473.53,908.206
1474.98,914.318
1476.43,924.138
1477.88,945.323
1479.33,933.56
1480.78,974.917
1482.23,994.594
1483.68,1010.41
1485.13,1049.63
1486.58,1062.93
1488.03,1071.66
1489.49,1108.63
1490.94,1139.83
1492.39,1150.36
1493.84,1170.87
1495.29,1199.34
1496.74,1253.27
1498.19,1276.27
1499.64,1325.1
1501.09,1319.54
1502.54,1406.07
1503.99,1464.76
1505.44,1508.37
1506.89,1571.87
1508.34,1635.31
1509.79,1697.64
1511.24,1769.54
1512.69,1854.26
1514.14,1951.72
1515.59,2055.47
1517.04,2159.52
1518.49,2272.04
1519.94,2397.17
1521.39,2575.35
1522.84,2769.58
1524.29,2932.75
1525.74,3112.75
1527.19,3391.95
1528.64,3651.29
1530.09,3899.88
1531.54,4200.33
1532.99,4543.88
1534.45,4926.33
1535.9,5340.65
1537.35,5730.83
1538.8,6189.9
1540.25,6598.29
1541.7,7129.65
1543.15,7667.2
1544.6,8298.62
1546.05,8748.94
1547.5,9238.19
1548.95,9761.77
1550.4,10341.6
1551.85,10817.3
1553.3,10834.5
1554.75,10852.2
1556.2,10883.3
1557.65,10909.9
1559.1,10929.4
1560.55,10998.6
1562,10964.9
1563.45,10956.3
1564.9,10951.3
1566.35,10930.8
1567.8,10846.2
1569.25,10309.4
1570.7,9710.14
1572.15,9102.72
1573.6,8506.67
1575.05,7924.98
1576.5,7328.09
1577.96,6742.04
1579.41,6223.85
1580.86,5760.25
1582.31,5300.04
1583.76,4850.79
1585.21,4528.1
1586.66,4182.4
1588.11,3916.5
1589.56,3638.58
1591.01,3402.67
1592.46,3166.04
1593.91,2994.24
1595.36,2799.71
1596.81,2651.53
1598.26,2519.5
1599.71,2376.3
1601.16,2257.08
1602.61,2146.64
1604.06,2033.42
1605.51,1934.9
1606.96,1847.47
1608.41,1753.67
1609.86,1702.87
1611.31,1625.67
1612.76,1544.43
1614.21,1509.33
1615.66,1447.77
1617.11,1388.11
1618.56,1339.05
1620.01,1301.61
1621.46,1270.89
1622.92,1226.6
1624.37,1181.22
1625.82,1139.73
1627.27,1121.15
1628.72,1102.45
1630.17,1057.35
1631.62,1033.19
1633.07,1034.96
1634.52,1002.56
1635.97,1002.8
1637.42,985.749
1638.87,944.773
1640.32,934.305
1641.77,928.405
1643.22,914.114
1644.67,895.121
1646.12,878.086
1647.57,871.951
1649.02,857.058
1650.47,841.311
1651.92,833.485
1653.37,833.69
1654.82,825.772
1656.27,831.393
1657.72,808.936
1659.17,804.647
1660.62,780.826
1662.07,770.348
1663.52,756.491
1664.97,764.149
1666.42,742.761
1667.88,743.671
1669.33,724.873
1670.78,713.01
1672.23,728.275
1673.68,728.887
1675.13,722.439
1676.58,711.991
1678.03,711.498
1679.48,717.151
1680.93,704.363
1682.38,686.41
1683.83,697.015
1685.28,677.836
1686.73,667.028
1688.18,654.852
1689.63,660.628
1691.08,676.926
1692.53,673.476
1693.98,655.01
1695.43,657.941
1696.88,667.135
1698.33,663.513
1699.78,658.87
1701.23,656.028
1702.68,660.71
1704.13,649.739
1705.58,658.058
1707.03,648.086
1708.48,660.215
1709.93,627.416
1711.39,633.838
1712.84,658.321
1714.29,640.753
1715.74,631.386
1717.19,639.301
1718.64,649.026
1720.09,640.745
1721.54,646.861
1722.99,647.402
1724.44,633.836
1725.89,639.861
1727.34,643.042
1728.79,628.504
1730.24,635.14
1731.69,633.848
1733.14,630.924
1734.59,618.493
1736.04,643.849
1737.49,624.815
1738.94,608.399
1740.39,602.912
1741.84,596.594
1743.29,595.723
1744.74,607.324
1746.19,607.721
1747.64,610.489
1749.09,594.843
1750.54,604.869
1751.99,596.123
1753.44,574.999
1754.89,581.444
1756.35,588.673
1757.8,577.164
1759.25,581.179
1760.7,586.703
1762.15,566.026
1763.6,574.275
1765.05,571.193
1766.5,575.222
1767.95,563.355
1769.4,559.865
1770.85,555.379
1772.3,570.455
1773.75,548.284
1775.2,564.013
1776.65,546.656
1778.1,544.71
1779.55,550.162
1781,543.641
1782.45,550.326
1783.9,553.119
1785.35,551.586
1786.8,550.949
1788.25,559.297
1789.7,551.75
1791.15,543.015
1792.6,547.886
1794.05,534.761
1795.5,536.411
1796.95,542.925
1798.4,556.118
1799.85,559.294
1801.31,543.602
1802.76,529.064
1804.21,533.113
1805.66,543.539
1807.11,542.9
1808.56,523.927
1810.01,529.889
1811.46,517.118
1812.91,514.394
1814.36,534.615
1815.81,535.928
1817.26,535.085
1818.71,521.988
1820.16,520.002
1821.61,527.042
1823.06,525.834
1824.51,530.986
1825.96,535.271
1827.41,535.087
1828.86,537.528
1830.31,535.466
1831.76,542.656
1833.21,544.519
1834.66,530.708
1836.11,544.685
1837.56,533.848
1839.01,534.888
1840.46,544.142
1841.91,541.824
1843.36,559.479
1844.82,549.466
1846.27,543.048
1847.72,539.753
1849.17,555.242
1850.62,546.018
1852.07,563.959
1853.52,545.442
1854.97,548.716
1856.42,554.58
1857.87,559.493
1859.32,561.666
1860.77,556.592
1862.22,543.086
1863.67,546.101
1865.12,551.265
1866.57,556.492
1868.02,555.852
1869.47,544.485
1870.92,547.602
1872.37,555.21
1873.82,556.97
1875.27,561.958
1876.72,547.676
1878.17,538.674
1879.62,540.463
1881.07,545.833
1882.52,549.59
1883.97,539.261
1885.42,544.514
1886.87,529.899
1888.32,540.618
1889.78,549.881
1891.23,515.426
1892.68,522.524
1894.13,522.516
1895.58,526.837
1897.03,524.298
1898.48,529.553
1899.93,518.16
1901.38,512.057
1902.83,513.334
1904.28,515.657
1905.73,510.266
1907.18,520.785
1908.63,517.855
1910.08,527.707
1911.53,519.957
1912.98,506.136
1914.43,513.8
1915.88,515.775
1917.33,511.442
1918.78,512.042
1920.23,512.746
1921.68,511.7
1923.13,505.433
1924.58,507.973
1926.03,511.448
1927.48,508.08
1928.93,516.388
1930.38,506.494
1931.83,520.513
1933.29,499.723
1934.74,508.222
1936.19,507.473
1937.64,499.876
1939.09,504.147
1940.54,502.227
1941.99,515.986
1943.44,504.009
1944.89,508.531
1946.34,510.482
1947.79,512.861
1949.24,497.675
1950.69,515.547
1952.14,519.549
1953.59,527.979
1955.04,533.493
1956.49,513.736
1957.94,517.895
1959.39,514.213
1960.84,501.805
1962.29,524.254
1963.74,515.96
1965.19,525.302
1966.64,528.141
1968.09,513.463
1969.54,511.976
1970.99,510.132
1972.44,513.326
1973.89,519.766
1975.34,528.023
1976.79,538.386
1978.25,539.594
1979.7,533.16
1981.15,531.331
1982.6,536.061
1984.05,537.638
1985.5,527.092
1986.95,524.501
1988.4,532.625
1989.85,526.885
1991.3,532.186
1992.75,533.163
1994.2,522.38
1995.65,535.667
1997.1,517.97
1998.55,522.445
2000,518.878
2001.45,530.242
2002.9,532.512
2004.35,544.883
2005.8,536.099
2007.25,524.533
2008.7,528.85
2010.15,524.037
2011.6,516.021
2013.05,510.619
2014.5,512.747
2015.95,522.795
2017.4,517.074
2018.85,512.399
2020.3,526.053
2021.75,533.88
2023.21,535.586
2024.66,528.699
2026.11,503.316
2027.56,540.344
2029.01,508.99
2030.46,515.996
2031.91,502.748
2033.36,521.911
2034.81,497.391
2036.26,536.095
2037.71,507.432
2039.16,516.172
2040.61,513.296
2042.06,496.091
2043.51,515.224
2044.96,514.754
2046.41,493.383
2047.86,493.665
2049.31,517.588
2050.76,490.235
2052.21,493.191
2053.66,485.011
2055.11,492.667
2056.56,503.16
2058.01,503.04
2059.46,499.797
2060.91,486.931
2062.36,484.413
2063.81,487.902
2065.26,488.196
2066.72,494.819
2068.17,492.656
2069.62,486.536
2071.07,495.453
2072.52,483.705
2073.97,484.714
2075.42,487.811
2076.87,488.973
2078.32,500.593
2079.77,496.117
2081.22,488.842
2082.67,479.31
2084.12,482.712
2085.57,484.351
2087.02,476.733
2088.47,483.829
2089.92,484.628
2091.37,485.189
2092.82,482.153
2094.27,487.05
2095.72,489.687
2097.17,485.019
2098.62,487.43
2100.07,477.442
2101.52,489.462
2102.97,491.135
2104.42,484.504
2105.87,490.373
2107.32,493.435
2108.77,494.809
2110.22,499.13
2111.68,502.3
2113.13,500.717
2114.58,492.024
2116.03,487.82
2117.48,487.991
2118.93,493.624
2120.38,499.895
2121.83,496.719
2123.28,499.617
2124.73,504.739
2126.18,505.93
2127.63,503.154
2129.08,501.168
2130.53,506.342
2131.98,508.413
2133.43,494.213
2134.88,496.688
2136.33,508.152
2137.78,501.156
2139.23,499.255
2140.68,501.801
2142.13,503.839
2143.58,517.165
2145.03,511.965
2146.48,509.206
2147.93,509.258
2149.38,508.842
2150.83,518.285
2152.28,514.867
2153.73,515.637
2155.18,520.708
2156.64,520.581
2158.09,514.793
2159.54,526.674
2160.99,525.214
2162.44,522.225
2163.89,533.892
2165.34,529.391
2166.79,526.745
2168.24,524.18
2169.69,525.927
2171.14,530.168
2172.59,524.551
2174.04,528.825
2175.49,542.957
2176.94,536.379
2178.39,541.098
2179.84,543.767
2181.29,538.527
2182.74,532.82
2184.19,538.778
2185.64,531.739
2187.09,531.809
2188.54,530.664
2189.99,533.367
2191.44,533.481
2192.89,535.197
2194.34,541.314
2195.79,551.198
2197.24,539.58
2198.69,544.585
2200.15,540.555
2201.6,541.88
2203.05,532.033
2204.5,534.209
2205.95,543.987
2207.4,547.803
2208.85,541.767
2210.3,545.115
2211.75,554.829
2213.2,567.414
2214.65,545.981
2216.1,559.493
2217.55,557.581
2219,545.518
2220.45,558.251
2221.9,556.354
2223.35,559.833
2224.8,567.801
2226.25,578.397
2227.7,557.294
2229.15,566.68
2230.6,576.382
2232.05,560.33
2233.5,554.39
2234.95,547.09
2236.4,573.085
2237.85,580.513
2239.3,564.666
2240.75,569.551
2242.2,574.276
2243.65,558.379
2245.11,575.183
2246.56,584.114
2248.01,577.681
2249.46,569.997
2250.91,584.495
2252.36,584.656
2253.81,601.557
2255.26,585.839
2256.71,575.417
2258.16,585.394
2259.61,599.507
2261.06,589.607
2262.51,574.302
2263.96,586.775
2265.41,601.985
2266.86,592.724
2268.31,603.839
2269.76,597.89
2271.21,589.542
2272.66,604.913
2274.11,602.142
2275.56,592.511
2277.01,598.647
2278.46,600.094
2279.91,600.094
2281.36,597.049
2282.81,610.937
2284.26,616.01
2285.71,609.598
2287.16,601.349
2288.61,614.975
2290.07,621.95
2291.52,632.439
2292.97,627.522
2294.42,630.159
2295.87,629.468
2297.32,618.777
2298.77,621.607
2300.22,624.247
2301.67,610.885
2303.12,636.62
2304.57,639.252
2306.02,638.122
2307.47,621.926
2308.92,629.286
2310.37,651.451
2311.82,647.179
2313.27,639.22
2314.72,628.719
2316.17,640.769
2317.62,641.942
2319.07,678.462
2320.52,664.343
2321.97,656.931
2323.42,678.71
2324.87,664.372
2326.32,671.407
2327.77,678.223
2329.22,673.529
2330.67,673.131
2332.12,688.348
2333.57,689.09
2335.03,699.585
2336.48,672.375
2337.93,685.188
2339.38,698.252
2340.83,697.257
2342.28,708.25
2343.73,710.331
2345.18,706.46
2346.63,719.976
2348.08,709.118
2349.53,709.549
2350.98,735.81
2352.43,737.204
2353.88,747.783
2355.33,745.601
2356.78,748.949
2358.23,765.786
2359.68,764.478
2361.13,755.859
2362.58,758.593
2364.03,783.622
2365.48,786.375
2366.93,824.428
2368.38,783.515
2369.83,802.3
2371.28,799.367
2372.73,828.647
2374.18,833.513
2375.63,843.896
2377.08,858.041
2378.54,862.189
2379.99,873.176
2381.44,886.937
2382.89,893.834
2384.34,899.45
2385.79,900.248
2387.24,917.999
2388.69,925.904
2390.14,944.401
2391.59,967.643
2393.04,965.301
2394.49,951.205
2395.94,963.083
2397.39,997.38
2398.84,1031.99
2400.29,1012.98
2401.74,1036.71
2403.19,1038.42
2404.64,1069.41
2406.09,1083.34
2407.54,1062.65
2408.99,1071.43
2410.44,1081.57
2411.89,1070.21
2413.34,1101.67
2414.79,1118.61
2416.24,1102.28
2417.69,1091.65
2419.14,1104.79
2420.59,1101.68
2422.04,1072.12
2423.5,1092.59
2424.95,1103.61
2426.4,1085.87
2427.85,1074.07
2429.3,1080.45
2430.75,1090.6
2432.2,1089.67
2433.65,1076.52
2435.1,1052.96
2436.55,1076.39
2438,1058.32
2439.45,1058.4
2440.9,1067.82
2442.35,1053.06
2443.8,1055.17
2445.25,1038.85
2446.7,1055.44
2448.15,1041.45
2449.6,1033.16
2451.05,1018.98
2452.5,1025.48
2453.95,1005.06
2455.4,1029.09
2456.85,1008
2458.3,1008.53
2459.75,1018.13
2461.2,1022.47
2462.65,1011.89
2464.1,1011.64
2465.55,1003.65
2467.01,1002.51
2468.46,1007.87
2469.91,1008.03
2471.36,1002.84
2472.81,1007.35
2474.26,1012.34
2475.71,1001.73
2477.16,1019.67
2478.61,1024.86
2480.06,1038.19
2481.51,1033.13
2482.96,1034.02
2484.41,1013.21
2485.86,1038.08
2487.31,1050.1
2488.76,1045.6
2490.21,1040.59
2491.66,1037.58
2493.11,1036.21
2494.56,1046.76
2496.01,1029.24
2497.46,1027.3
2498.91,1038.08
2500.36,1040.83
2501.81,1034.55
2503.26,1064.4
2504.71,1067.76
2506.16,1079.71
2507.61,1101.29
2509.06,1061.28
2510.51,1112.95
2511.97,1093.81
2513.42,1105.34
2514.87,1120.93
2516.32,1135.75
2517.77,1134.44
2519.22,1142
2520.67,1162.78
2522.12,1172.71
2523.57,1190.64
2525.02,1187.71
2526.47,1200.87
2527.92,1207.07
2529.37,1187.95
2530.82,1217.2
2532.27,1242.56
2533.72,1235.57
2535.17,1244.87
2536.62,1265.86
2538.07,1298.66
2539.52,1280.4
2540.97,1318.04
2542.42,1322.41
2543.87,1381.3
2545.32,1391.36
2546.77,1385.43
2548.22,1416.74
2549.67,1435.12
2551.12,1449.02
2552.57,1451.47
2554.02,1484.47
2555.48,1515.85
2556.93,1554.82
2558.38,1573.66
2559.83,1591.15
2561.28,1616.78
2562.73,1676.3
2564.18,1694.48
2565.63,1726.34
2567.08,1768.75
2568.53,1791.64
2569.98,1842.66
2571.43,1910.7
2572.88,1946.85
2574.33,1945.57
2575.78,2006.69
2577.23,2059.58
2578.68,2101.58
2580.13,2161.07
2581.58,2209.46
2583.03,2249.23
2584.48,2314.23
2585.93,2370.21
2587.38,2417.69
2588.83,2513.3
2590.28,2608.33
2591.73,2706.59
2593.18,2739.68
2594.63,2812.12
2596.08,2913.01
2597.53,2990.65
2598.98,3122.17
2600.44,3210.98
2601.89,3328.45
2603.34,3447.65
2604.79,3548.02
2606.24,3682.81
2607.69,3775.44
2609.14,3930.92
2610.59,4010.42
2612.04,4176.29
2613.49,4287.34
2614.94,4458.45
2616.39,4593.94
2617.84,4697.23
2619.29,4843.84
2620.74,4981.73
2622.19,5121.04
2623.64,5298
2625.09,5384.34
2626.54,5520.51
2627.99,5658.36
2629.44,5821.63
2630.89,5973.46
2632.34,6114.38
2633.79,6218.87
2635.24,6403.77
2636.69,6444.9
2638.14,6545.51
2639.59,6678.26
2641.04,6718.07
2642.49,6802.85
2643.94,6852.02
2645.4,6871.82
2646.85,6900.83
2648.3,6915.74
2649.75,6868.4
2651.2,6878.09
2652.65,6792.9
2654.1,6825.92
2655.55,6728.14
2657,6669.01
2658.45,6555.38
2659.9,6440.85
2661.35,6321.92
2662.8,6218.09
2664.25,6073.63
2665.7,5986.82
2667.15,5881.17
2668.6,5697.82
2670.05,5580.94
2671.5,5451.03
2672.95,5220.2
2674.4,5128.07
2675.85,4970.2
2677.3,4789.91
2678.75,4658.86
2680.2,4556.69
2681.65,4344.43
2683.1,4224.33
2684.55,4082.11
2686,3975.61
2687.45,3829.44
2688.91,3673.24
2690.36,3542.48
2691.81,3435.23
2693.26,3322.15
2694.71,3153.17
2696.16,3056.7
2697.61,3016.54
2699.06,2862.95
2700.51,2789.86
2701.96,2742.6
2703.41,2641.82
2704.86,2520.24
2706.31,2450.94
2707.76,2348.5
2709.21,2315.44
2710.66,2241.71
2712.11,2159.92
2713.56,2105.33
2715.01,2069.55
2716.46,2003.69
2717.91,1956.17
2719.36,1894.81
2720.81,1865.67
2722.26,1829.23
2723.71,1767.52
2725.16,1712.23
2726.61,1679.22
2728.06,1656.59
2729.51,1632.7
2730.96,1590.56
2732.41,1535.84
2733.87,1536.59
2735.32,1484.25
2736.77,1468.8
2738.22,1441.97
2739.67,1423.58
2741.12,1404.21
2742.57,1359.44
2744.02,1347.17
2745.47,1345.44
2746.92,1304.39
2748.37,1305.04
2749.82,1271.01
2751.27,1274.54
2752.72,1239.42
2754.17,1243.71
2755.62,1212.45
2757.07,1181.16
2758.52,1172.9
2759.97,1167.96
2761.42,1139.25
2762.87,1130.85
2764.32,1135.69
2765.77,1117.37
2767.22,1077.31
2768.67,1118.53
2770.12,1090.91
2771.57,1083.56
2773.02,1068.17
2774.47,1070.28
2775.92,1064.59
2777.38,1046.97
2778.83,1046.01
2780.28,1031.91
2781.73,1023.41
2783.18,1008.27
2784.63,1009.62
2786.08,1000.75
2787.53,968.903
2788.98,985.04
2790.43,995.614
2791.88,981.269
2793.33,967.838
2794.78,952.713
2796.23,950.096
2797.68,959.597
2799.13,946.725
2800.58,947.763
2802.03,935.503
2803.48,928.414
2804.93,937.791
2806.38,922.763
2807.83,904.515
2809.28,911.417
2810.73,900.772
2812.18,908.827
2813.63,909.448
2815.08,916.828
2816.53,892.521
2817.98,899.636
2819.43,909.439
2820.88,892.947
2822.33,879.287
2823.79,887.098
2825.24,876.319
2826.69,868.48
2828.14,862.656
2829.59,864.521
2831.04,877.285
2832.49,883.667
2833.94,843.685
2835.39,841.443
2836.84,844.041
2838.29,836.654
2839.74,836.658
2841.19,841.838
2842.64,856.669
2844.09,853.518
2845.54,843.836
2846.99,838.96
2848.44,836.647
2849.89,824.151
2851.34,837.77
2852.79,828.683
2854.24,819.479
2855.69,831.167
2857.14,851.404
2858.59,829.069
2860.04,817.873
2861.49,829.582
2862.94,813.161
2864.39,815.175
2865.84,832.996
2867.3,828.77
2868.75,827.135
2870.2,826.95
2871.65,812.109
2873.1,817.766
2874.55,834.649
2876,826.346
2877.45,828.896
2878.9,830.824
2880.35,826.007
2881.8,807.486
2883.25,814.29
2884.7,815.7
2886.15,815.548
2887.6,813.309
2889.05,805.703
2890.5,818.939
2891.95,826.664
2893.4,819.101
2894.85,824.052
2896.3,823.673
2897.75,811.958
2899.2,810.144
2900.65,808.97
2902.1,803.82
2903.55,800.419
2905,801.327
2906.45,803.733
2907.9,805.997
2909.35,799.035
2910.8,784.765
2912.26,784.132
2913.71,792.023
2915.16,764.756
2916.61,796.518
2918.06,785.137
2919.51,767.417
2920.96,784.621
2922.41,780.98
2923.86,779.025
2925.31,772.173
2926.76,760.173
2928.21,754.775
2929.66,752.915
2931.11,748.639
2932.56,740.384
2934.01,757.059
2935.46,741.555
2936.91,741.55
2938.36,738.503
2939.81,729.841
2941.26,721.818
2942.71,728.624
2944.16,731.907
2945.61,729.34
2947.06,728.175
2948.51,730.827
2949.96,714.795
2951.41,712.749
2952.86,724.348
2954.31,711.975
2955.77,707.216
2957.22,716.31
2958.67,708.156
2960.12,696.621
2961.57,729.258
2963.02,706.439
2964.47,703.179
2965.92,700.448
2967.37,704.669
2968.82,702.745
2970.27,709.166
2971.72,691.846
2973.17,693.811
2974.62,693.01
2976.07,685.152
2977.52,685.805
2978.97,691.52
2980.42,684.643
2981.87,695.709
2983.32,701.666
2984.77,693.626
2986.22,682.225
2987.67,689.976
2989.12,695.655
2990.57,699.214
2992.02,692.221
2993.47,680.839
2994.92,686.944
2996.37,698.784
2997.82,695.65
2999.27,702.227
3000.73,677.645
3002.18,692.878
3003.63,679.619
3005.08,688.56
3006.53,685.127
3007.98,668.588
3009.43,665.276
3010.88,674.275
3012.33,685.953
3013.78,700.553
3015.23,669.78
3016.68,681.786
3018.13,671.857
3019.58,681.323
3021.03,682.796
3022.48,670.968
3023.93,685.334
3025.38,698.521
3026.83,678.123
3028.28,687.261
3029.73,705.162
3031.18,706.986
3032.63,695.124
3034.08,707.673
3035.53,711.408
3036.98,669.554
3038.43,699.397
3039.88,703.185
3041.33,697.882
3042.78,696.576
3044.23,686.57
3045.69,686.401
3047.14,682.062
3048.59,696.635
3050.04,706.121
3051.49,686.337
3052.94,684.388
3054.39,698.534
3055.84,710.399
3057.29,706.632
3058.74,695.614
3060.19,712.976
3061.64,721.623
3063.09,727.03
3064.54,731.297
3065.99,728.034
3067.44,709.643
3068.89,724.986
3070.34,738.579
3071.79,759.986
3073.24,727.632
3074.69,744.233
3076.14,742.935
3077.59,747.87
3079.04,770.144
3080.49,768.974
3081.94,785.006
3083.39,778.775
3084.84,797.827
3086.29,786.02
3087.74,793.568
3089.2,797.524
3090.65,810.95
3092.1,815.839
3093.55,819.427
3095,816.603
3096.45,822.172
3097.9,835.112
3099.35,854.687
3100.8,862.881
3102.25,854.264
3103.7,880.429
3105.15,885.79
3106.6,876.069
3108.05,898.208
3109.5,880.809
3110.95,897.959
3112.4,902.617
3113.85,929.346
3115.3,925.212
3116.75,935.671
3118.2,928.645
3119.65,943.575
3121.1,950.3
3122.55,952.518
3124,957.565
3125.45,953.724
3126.9,963.598
3128.35,978.643
3129.8,965.212
3131.25,966.889
3132.7,981.82
3134.16,974.474
3135.61,974.155
3137.06,991.409
3138.51,966.836
3139.96,982.555
3141.41,988.464
3142.86,977.011
3144.31,995.304
3145.76,995.614
3147.21,998.852
3148.66,984.33
3150.11,983.079
3151.56,968.299
3153.01,977.881
3154.46,995.331
3155.91,1001.62
3157.36,1012.05
3158.81,1023.36
3160.26,992.899
3161.71,1011.82
3163.16,1022.46
3164.61,1019.9
3166.06,1009.68
3167.51,1039.58
3168.96,1031.56
3170.41,1030.74
3171.86,1046.46
3173.31,1054.87
3174.76,1060.58
3176.21,1042.48
3177.67,1059.46
3179.12,1052.53
3180.57,1067.65
3182.02,1092.69
3183.47,1078.39
3184.92,1055.79
3186.37,1071.81
3187.82,1067.08
3189.27,1049.6
3190.72,1073.23
3192.17,1053.54
3193.62,1046.61
3195.07,1041.38
3196.52,1039.46
3197.97,1014.79
3199.42,973.534
3200.87,993.654
3202.32,985.528
3203.77,970.402
3205.22,969.222
3206.67,954.753
3208.12,943.974
3209.57,924.085
3211.02,901.393
3212.47,921.717
3213.92,890.472
3215.37,865.602
3216.82,866.831
3218.27,849.241
3219.72,832.799
3221.17,834.671
3222.63,828.346
3224.08,826.519
3225.53,812.258
3226.98,806.152
3228.43,767.674
3229.88,791.982
3231.33,772.478
3232.78,752.383
3234.23,736.373
3235.68,743.042
3237.13,739.396
3238.58,736.872
3240.03,714.803
3241.48,704.974
3242.93,710.226
3244.38,719.214
3245.83,714.787
3247.28,716.576
3248.73,699.149
3250.18,705.89
3251.63,702.969
3253.08,702.188
3254.53,692.828
3255.98,667.491
3257.43,681.874
3258.88,681.548
3260.33,674.714
3261.78,674.094
3263.23,671.066
3264.68,686.7
3266.13,677.005
3267.59,661.253
3269.04,670.592
3270.49,682.49
3271.94,677.072
3273.39,658.547
3274.84,670.641
3276.29,664.055
3277.74,659.439
3279.19,676.134
3280.64,657.215
3282.09,666.11
3283.54,659.023
3284.99,668.07
3286.44,663.617
3287.89,657.503
3289.34,672.701
3290.79,672.795
3292.24,649.877
3293.69,677.783
3295.14,676.826
3296.59,665.489
3298.04,659.935
3299.49,658.277
3300.94,652.762
3302.39,662.319
3303.84,647.093
3305.29,656.909
3306.74,673.717
3308.19,661.162
3309.64,649.206
3311.09,654.923
3312.55,667.78
3314,663.414
3315.45,641.193
3316.9,651.693
3318.35,668.011
3319.8,643.961
3321.25,666.065
3322.7,653.168
3324.15,657.65
3325.6,665.993
3327.05,668.088
3328.5,650.532
3329.95,664.716
3331.4,672.191
3332.85,650.644
3334.3,644.975
3335.75,652.154
3337.2,656.98
3338.65,654.225
3340.1,656.443
3341.55,663.21
3343,662.315
3344.45,653.224
3345.9,660.642
3347.35,650.295
3348.8,639.897
3350.25,662.508
3351.7,655.193
3353.15,653.002
3354.6,662.152
3356.06,652.427
3357.51,658.21
3358.96,658.036
3360.41,652.748
3361.86,654.481
3363.31,649.427
3364.76,650.258
3366.21,656.3
3367.66,659.688
3369.11,660.464
3370.56,675.074
3372.01,669.895
3373.46,691.461
3374.91,662.788
3376.36,660.768
3377.81,655.297
3379.26,662.671
3380.71,647.246
3382.16,664.534
3383.61,659.032
3385.06,675.003
3386.51,663.986
3387.96,653.585
3389.41,638.301
3390.86,658.108
3392.31,663.472
3393.76,652.908
3395.21,662.638
3396.66,662.389
3398.11,679.305
3399.56,671.214
3401.02,672.426
3402.47,667.287
3403.92,654.23
3405.37,642.502
3406.82,670.239
3408.27,649.477
3409.72,654.332
3411.17,663.429
3412.62,666.043
3414.07,663.775
3415.52,668.241
3416.97,653.544
3418.42,669.331
3419.87,654.862
3421.32,658.742
3422.77,664.718
3424.22,673.66
3425.67,678.443
3427.12,681.833
3428.57,677.541
3430.02,663.485
3431.47,671.938
3432.92,678.423
3434.37,656.807
3435.82,668.532
3437.27,670.648
3438.72,668.8
3440.17,672.012
3441.62,659.894
3443.07,661.779
3444.52,669.276
3445.98,637.684
3447.43,675.209
3448.88,673.549
3450.33,668.445
3451.78,666.108
3453.23,672.188
3454.68,672.455
3456.13,669.386
3457.58,669.649
3459.03,663.178
3460.48,658.593
3461.93,685.812
3463.38,674.073
3464.83,680.654
3466.28,687.877
3467.73,688.384
3469.18,679.267
3470.63,668.875
3472.08,678.801
3473.53,690.3
3474.98,683.73
3476.43,657.885
3477.88,689.318
3479.33,685.578
3480.78,685.948
3482.23,676.544
3483.68,694.564
3485.13,651.858
3486.58,679.846
3488.03,692.436
3489.49,686.368
3490.94,666.936
3492.39,669.179
3493.84,678.02
3495.29,691.158
3496.74,690.896
3498.19,672.317
3499.64,684.027
3501.09,682.811
3502.54,693.349
3503.99,679.587
3505.44,682.98
3506.89,690.188
3508.34,695.669
3509.79,683.897
3511.24,688.134
3512.69,687.974
3514.14,683.665
3515.59,713.034
3517.04,692.589
3518.49,697.001
3519.94,695.627
3521.39,688.032
3522.84,698.844
3524.29,696.354
3525.74,694.02
3527.19,705.597
3528.64,682.682
3530.09,693.579
3531.54,699.686
3532.99,709.592
3534.45,704.807
3535.9,675.209
3537.35,698.179
3538.8,696.361
3540.25,692.452
3541.7,693.316
3543.15,688.344
3544.6,707.627
3546.05,690.125
3547.5,690.616
3548.95,698.121
3550.4,706.365
3551.85,700.564
3553.3,693.782
3554.75,684.157
3556.2,682.253
3557.65,700.407
3559.1,686.252
3560.55,695.195
3562,695.992
3563.45,696.809
3564.9,687.328
3566.35,699.996
3567.8,713.544
3569.25,704.269
3570.7,710.362
3572.15,705.791
3573.6,695.367
3575.05,691.55
3576.5,696.318
3577.96,701.841
3579.41,715.28
3580.86,698.066
3582.31,708.766
3583.76,711.202
3585.21,702.438
3586.66,693.649
3588.11,705.125
3589.56,708.102
3591.01,702.331
3592.46,729.155
3593.91,683.076
3595.36,685.487
3596.81,697.208
3598.26,711.736
3599.71,707.705
3601.16,704.431
3602.61,704.952
3604.06,712.221
3605.51,707.044
3606.96,720.288
3608.41,709.52
3609.86,726.617
3611.31,718.536
3612.76,709.924
3614.21,715.687
3615.66,716.629
3617.11,725.683
3618.56,705.222
3620.01,721.174
3621.46,737.681
3622.92,735.285
3624.37,721.25
3625.82,706.172
3627.27,720.08
3628.72,723.393
3630.17,714.5
3631.62,718.783
3633.07,709.12
3634.52,730.381
3635.97,707.911
3637.42,724.783
3638.87,727.178
3640.32,749.978
3641.77,723
3643.22,710.941
3644.67,737.445
3646.12,718.712
3647.57,735.661
3649.02,731.361
3650.47,725.762
3651.92,743.012
3653.37,734.309
3654.82,728.184
3656.27,726.678
3657.72,724.784
3659.17,724.077
3660.62,735.956
3662.07,735.435
3663.52,735.762
3664.97,726.166
3666.43,733.708
3667.88,755.839
3669.33,740.31
3670.78,739.021
3672.23,738.509
3673.68,745.451
3675.13,739.219
3676.58,734.266
3678.03,728.539
3679.48,730.4
3680.93,746.77
3682.38,741.387
3683.83,742.027
3685.28,728.171
3686.73,755.023
3688.18,742.39
3689.63,746.327
3691.08,737.175
3692.53,740.474
3693.98,744.07
3695.43,724.439
3696.88,750.34
3698.33,773.092
3699.78,751.456
3701.23,747.568
3702.68,745.601
3704.13,736.535
3705.58,735.64
3707.03,746.677
3708.48,737.489
3709.93,744.967
3711.39,749.911
3712.84,746.662
3714.29,765.542
3715.74,756.516
3717.19,754.336
3718.64,745.555
3720.09,753.083
3721.54,752.943
3722.99,757.948
3724.44,769.089
3725.89,762.757
3727.34,779.159
3728.79,774.986
3730.24,758.231
3731.69,750.141
3733.14,752.864
3734.59,749.081
3736.04,760.581
3737.49,749.883
3738.94,753.866
3740.39,754.627
3741.84,777.143
3743.29,779.189
3744.74,759.078
3746.19,765.736
3747.64,770.413
3749.09,764.818
3750.54,776.786
3751.99,774.064
3753.44,760.483
3754.89,769.947
3756.35,765.509
3757.8,763.96
3759.25,767.482
3760.7,760.712
3762.15,795.767
3763.6,779.778
3765.05,782.801
3766.5,781.343
3767.95,764.102
3769.4,778.241
3770.85,761.749
3772.3,775.578
3773.75,775.48
3775.2,780.801
3776.65,785.996
3778.1,790.028
3779.55,771.183
3781,771.461
3782.45,799.544
3783.9,786.335
3785.35,785.647
3786.8,789.486
3788.25,788.424
3789.7,813.231
3791.15,798.818
3792.6,779.635
3794.05,778.484
3795.5,796.082
3796.95,800.193
3798.4,774.573
3799.85,795.344
3801.31,798.644
3802.76,787.729
3804.21,787.774
3805.66,796.388
3807.11,796.352
3808.56,784.117
3810.01,780.622
3811.46,803.167
3812.91,786.574
3814.36,791.278
3815.81,816.661
3817.26,801.235
3818.71,806.888
3820.16,815.382
3821.61,806.659
3823.06,806.245
3824.51,801.936
3825.96,801.286
3827.41,800.006
3828.86,813.589
3830.31,811.379
3831.76,812.84
3833.21,826.806
3834.66,797.647
3836.11,795.774
3837.56,791.338
3839.01,805.262
3840.46,807.381
3841.91,813.899
3843.36,821.569
3844.82,812.619
3846.27,826.232
3847.72,824.068
3849.17,824.07
3850.62,826.486
3852.07,820.147
3853.52,816.945
3854.97,824.749
3856.42,804.861
3857.87,842.31
3859.32,830.661
3860.77,841.017
3862.22,823.771
3863.67,825.967
3865.12,811.248
3866.57,837.802
3868.02,832.206
3869.47,831.686
3870.92,845.404
3872.37,818.249
3873.82,844.06
3875.27,839.589
3876.72,847.636
3878.17,845.576
3879.62,828.016
3881.07,833.622
3882.52,854.185
3883.97,840.841
3885.42,851.746
3886.87,845.77
3888.32,844.749
3889.78,853.305
3891.23,853.631
3892.68,836.555
3894.13,836.555
3895.58,837.412
3897.03,858.469
3898.48,862.164
3899.93,866.32
3901.38,855.529
3902.83,867.745
3904.28,875.031
3905.73,859.354
3907.18,870.647
3908.63,864.561
3910.08,849.337
3911.53,859.581
3912.98,882.886
3914.43,867.358
3915.88,879.033
3917.33,874.323
3918.78,879.231
3920.23,865.671
3921.68,890.028
3923.13,868.33
3924.58,874.324
3926.03,892.095
3927.48,894.437
3928.93,870.78
3930.38,884.983
3931.83,912.703
3933.28,881.158
3934.74,902.909
3936.19,912.535
3937.64,904.861
3939.09,893.666
3940.54,877.539
3941.99,899.884
3943.44,909.039
3944.89,889.842
3946.34,890.782
3947.79,897.941
3949.24,886.59
3950.69,926.303
3952.14,909.856
3953.59,891.253
3955.04,917.361
3956.49,929.328
3957.94,915.4
3959.39,923.606
3960.84,950.956
3962.29,906.937
3963.74,936.877
3965.19,901.739
3966.64,942.715
3968.09,944.853
3969.54,932.788
3970.99,928.343
3972.44,924.724
3973.89,931.599
3975.34,945.731
3976.79,904.622
3978.25,946.476
3979.7,955.613
3981.15,935.414
3982.6,956.518
3984.05,960.821
3985.5,927.749
3986.95,958.958
3988.4,982.857
3989.85,953.405
3991.3,953.334
3992.75,957.068
3994.2,944.028
3995.65,960.573
3997.1,943.238
3998.55,969.462
4000,953.254
