0,71.3007
1.45033,71.3007
2.90065,71.3007
4.35098,71.3007
5.80131,71.3007
7.25163,58.823
8.70196,132.728
10.1523,91.4043
11.6026,71.553
13.0529,62.0918
14.5033,54.7673
15.9536,47.9328
17.4039,43.62
18.8542,40.4682
20.3046,41.8282
21.7549,41.7141
23.2052,36.7168
24.6555,31.9212
26.1059,32.6782
27.5562,31.7108
29.0065,28.5405
30.4569,24.7083
31.9072,21.1087
33.3575,22.014
34.8078,23.162
36.2582,22.7317
37.7085,21.5311
39.1588,22.1029
40.6091,18.7807
42.0595,15.0446
43.5098,14.8399
44.9601,19.4057
46.4104,22.1915
47.8608,28.1582
49.3111,36.9213
50.7614,45.3604
52.2117,72.7766
53.6621,133.571
55.1124,226.844
56.5627,355.177
58.0131,533.246
59.4634,695.842
60.9137,848.472
62.364,983.103
63.8144,1093.75
65.2647,1196.1
66.715,1252.11
68.1653,1285.74
69.6157,1310.81
71.066,1339.59
72.5163,1341.27
73.9666,1341.37
75.417,1337.64
76.8673,1330.21
78.3176,1322.98
79.7679,1352.51
81.2183,1390.93
82.6686,1433.44
84.1189,1475.29
85.5693,1499.42
87.0196,1515.59
88.4699,1506.29
89.9202,1487.88
91.3706,1485.75
92.8209,1430.44
94.2712,1403.94
95.7215,1378.47
97.1719,1341.33
98.6222,1289.85
100.073,1265.16
101.523,1252.82
102.973,1230.59
104.423,1187.51
105.874,1135.03
107.324,1140.18
108.774,1122.48
110.225,1095.03
111.675,1079.64
113.125,1074.8
114.576,1062.39
116.026,1044.23
117.476,1025.06
118.927,1008.99
120.377,964.369
121.827,953.962
123.278,956.434
124.728,950.319
126.178,910.324
127.629,882.165
129.079,863.645
130.529,847.002
131.98,831.701
133.43,828.305
134.88,816.408
136.331,811.01
137.781,803.073
139.231,790.986
140.682,798.026
142.132,767.88
143.582,742.804
145.033,732.73
146.483,736.23
147.933,720.68
149.384,706.38
150.834,679.191
152.284,655.313
153.735,656.532
155.185,674.525
156.635,635.641
158.086,634.731
159.536,646.665
160.986,600.093
162.437,603.014
163.887,606.511
165.337,616.096
166.788,619.838
168.238,594.253
169.688,602.299
171.139,600.927
172.589,593.861
174.039,586.664
175.489,587.397
176.94,571.756
178.39,563.221
179.84,567.685
181.291,575.112
182.741,552.676
184.191,534.451
185.642,526.963
187.092,517.796
188.542,506.913
189.993,517.909
191.443,520.114
192.893,518.104
194.344,515.082
195.794,513.968
197.244,517.632
198.695,522.894
200.145,514.007
201.595,506.582
203.046,508.427
204.496,501.583
205.946,522.677
207.397,523.073
208.847,517.578
210.297,516.525
211.748,499.156
213.198,501.256
214.648,495.58
216.099,486.266
217.549,478.191
218.999,467.663
220.45,458.688
221.9,446.946
223.35,446.764
224.801,464.632
226.251,479.824
227.701,474.408
229.152,471.618
230.602,467.648
232.052,457.582
233.503,441.38
234.953,467.19
236.403,462.819
237.854,454.67
239.304,459.238
240.754,442.778
242.204,437.283
243.655,445.375
245.105,439.217
246.555,419.595
248.006,453.486
249.456,442.649
250.906,443.026
252.357,442.409
253.807,434.331
255.257,430.147
256.708,444.191
258.158,444.306
259.608,443.76
261.059,447.246
262.509,445.029
263.959,421.021
265.41,419.411
266.86,433.276
268.31,446.352
269.761,434.91
271.211,437.376
272.661,424.529
274.112,421.51
275.562,432.313
277.012,443.556
278.463,422.588
279.913,424.453
281.363,418.228
282.814,406.796
284.264,407.684
285.714,404.227
287.165,401.799
288.615,402.796
290.065,400.873
291.516,390.209
292.966,385.021
294.416,396.635
295.867,395.09
297.317,389.033
298.767,387.463
300.218,371.903
301.668,383.466
303.118,386.859
304.569,391.306
306.019,396.246
307.469,371.5
308.919,381.533
310.37,378.386
311.82,374.424
313.27,370.16
314.721,350.242
316.171,341.076
317.621,334.797
319.072,345.949
320.522,356.059
321.972,333.857
323.423,343.277
324.873,346.708
326.323,345.973
327.774,342.257
329.224,339.638
330.674,356.507
332.125,349.91
333.575,344.4
335.025,344.608
336.476,347.838
337.926,342.624
339.376,345.486
340.827,342.786
342.277,335.626
343.727,336.547
345.178,365.767
346.628,332.465
348.078,326.144
349.529,328.423
350.979,329.208
352.429,326.338
353.88,340.762
355.33,329.357
356.78,327.977
358.231,333.891
359.681,335.442
361.131,321.752
362.582,325.181
364.032,331.435
365.482,336.488
366.933,334.955
368.383,320.41
369.833,323.153
371.284,309.852
372.734,312.149
374.184,321.532
375.635,316.294
377.085,321.281
378.535,324.951
379.986,327.63
381.436,329.134
382.886,329.633
384.336,330.132
385.787,326.03
387.237,326.797
388.687,323.489
390.138,316.488
391.588,314.091
393.038,316.837
394.489,319.168
395.939,320.347
397.389,325.394
398.84,332.832
400.29,315.334
401.74,315.627
403.191,314.636
404.641,326.893
406.091,339.145
407.542,310.999
408.992,322.508
410.442,321.37
411.893,315.882
413.343,315.839
414.793,325.723
416.244,328.978
417.694,313.976
419.144,310.946
420.595,304.468
422.045,299.301
423.495,326.432
424.946,334.201
426.396,311.199
427.846,299.651
429.297,304.064
430.747,313.697
432.197,322.486
433.648,306.543
435.098,299.58
436.548,310.324
437.999,323.235
439.449,306.024
440.899,319.833
442.35,309.669
443.8,309.953
445.25,311.331
446.701,303.623
448.151,316.704
449.601,312.241
451.051,303.806
452.502,305.883
453.952,315.594
455.402,317.792
456.853,316.533
458.303,300.433
459.753,308.749
461.204,318.184
462.654,310.6
464.104,303.833
465.555,315.665
467.005,311.472
468.455,308.653
469.906,306.414
471.356,300.002
472.806,310.091
474.257,306.427
475.707,307.003
477.157,306.78
478.608,311.716
480.058,334.626
481.508,314.703
482.959,315.002
484.409,307
485.859,305.6
487.31,316.781
488.76,308.719
490.21,314.778
491.661,301.113
493.111,301.975
494.561,312.969
496.012,314.711
497.462,307.89
498.912,305.818
500.363,294.445
501.813,295.017
503.263,307.911
504.714,314.483
506.164,304.621
507.614,294.523
509.065,291.253
510.515,293.383
511.965,297.809
513.416,301.395
514.866,295.821
516.316,294.503
517.766,306.774
519.217,308.265
520.667,290.26
522.117,292.823
523.568,300.687
525.018,305.516
526.468,307.178
527.919,303.785
529.369,295.125
530.819,287.51
532.27,292.676
533.72,292.656
535.17,298.631
536.621,308.871
538.071,311.068
539.521,286.958
540.972,299.955
542.422,308.951
543.872,307.66
545.323,301.071
546.773,298.988
548.223,302.294
549.674,300.264
551.124,304.746
552.574,309.301
554.025,311.465
555.475,313.194
556.925,302.502
558.376,307.499
559.826,305.234
561.276,300.233
562.727,299.208
564.177,304.303
565.627,306.596
567.078,303.284
568.528,291.946
569.978,298.793
571.429,313.232
572.879,287.633
574.329,292.478
575.78,293.313
577.23,293.568
578.68,297.071
580.131,301.239
581.581,298.233
583.031,305.892
584.482,295.739
585.932,299.805
587.382,304.082
588.832,301.658
590.283,304.961
591.733,308.027
593.183,319.392
594.634,310.736
596.084,303.022
597.534,304.576
598.985,300.287
600.435,302.078
601.885,312.279
603.336,311.331
604.786,302.149
606.236,296.524
607.687,303.606
609.137,289.524
610.587,298.39
612.038,293.853
613.488,297.706
614.938,308.223
616.389,303.188
617.839,300.625
619.289,283.556
620.74,301.245
622.19,313.514
623.64,306.483
625.091,296.89
626.541,309.988
627.991,304.652
629.442,301.433
630.892,304.538
632.342,310.564
633.793,312.451
635.243,304.492
636.693,311.804
638.144,304.892
639.594,315.408
641.044,317.038
642.495,296.694
643.945,309.967
645.395,320.507
646.846,313.97
648.296,317.405
649.746,321.328
651.197,319.341
652.647,322.346
654.097,324.406
655.547,322.806
656.998,314.625
658.448,309.06
659.898,305.409
661.349,299.464
662.799,322.386
664.249,324.688
665.7,321.054
667.15,325.084
668.6,328.679
670.051,319.914
671.501,311.201
672.951,328.735
674.402,330.725
675.852,322.861
677.302,327.745
678.753,340.504
680.203,317.608
681.653,331.561
683.104,339.128
684.554,336.325
686.004,329.218
687.455,326.676
688.905,333.226
690.355,335.551
691.806,339.606
693.256,331.017
694.706,330.094
696.157,332.571
697.607,329.593
699.057,332.754
700.508,337.673
701.958,351.812
703.408,349.003
704.859,340.331
706.309,338.125
707.759,340.147
709.21,326.169
710.66,322.103
712.11,332.174
713.561,329.557
715.011,327.582
716.461,340.813
717.912,330.337
719.362,325.667
720.812,330.633
722.263,331.871
723.713,340.84
725.163,351.502
726.613,340.747
728.064,334.781
729.514,341.043
730.964,339.338
732.415,336.891
733.865,336.483
735.315,335.77
736.766,332.06
738.216,353.379
739.666,346.928
741.117,335.371
742.567,336.589
744.017,337.955
745.468,321.178
746.918,340.177
748.368,338.012
749.819,328.938
751.269,335.529
752.719,338.534
754.17,328.877
755.62,332.396
757.07,349.331
758.521,345.153
759.971,329.068
761.421,330.75
762.872,340.451
764.322,337.218
765.772,332.449
767.223,342.883
768.673,352.627
770.123,338.516
771.574,331.815
773.024,341.014
774.474,345.057
775.925,328.621
777.375,338.544
778.825,344.145
780.276,342.519
781.726,341.08
783.176,339.552
784.627,332.448
786.077,344.733
787.527,344.397
788.978,338.219
790.428,350.638
791.878,356.716
793.328,348.582
794.779,358.865
796.229,344.211
797.68,351.663
799.13,349.51
800.58,347.298
802.03,349.427
803.481,357.245
804.931,370.163
806.381,351.826
807.832,360.487
809.282,352
810.732,346.53
812.183,348.706
813.633,351.858
815.083,354.258
816.534,357.142
817.984,357.643
819.434,362.771
820.885,358.889
822.335,357.454
823.785,365.354
825.236,355.446
826.686,349.669
828.136,364.152
829.587,356.55
831.037,360.182
832.487,377.449
833.938,382.949
835.388,359.117
836.838,373.05
838.289,382.899
839.739,368.728
841.189,368.617
842.64,379.717
844.09,384.11
845.54,385.484
846.991,374.431
848.441,374.369
849.891,377.172
851.342,377.903
852.792,384.351
854.242,391.207
855.693,373.021
857.143,348.52
858.593,377.379
860.044,387.378
861.494,387.296
862.944,381.468
864.394,378.067
865.845,387.074
867.295,386.81
868.745,384.475
870.196,389.461
871.646,378.63
873.096,371.115
874.547,370.653
875.997,363.666
877.447,372.597
878.898,366.787
880.348,385.789
881.798,389.839
883.249,385.731
884.699,384.351
886.149,386.089
887.6,381.79
889.05,361.937
890.5,378.222
891.951,382.136
893.401,380.026
894.851,382.125
896.302,386.618
897.752,381.95
899.202,379.833
900.653,395.39
902.103,390.066
903.553,395.169
905.004,395.998
906.454,397.346
907.904,419.75
909.355,425.275
910.805,421.561
912.255,413.661
913.706,392.343
915.156,390.929
916.606,399.553
918.057,401.352
919.507,414.395
920.957,382.517
922.408,395.136
923.858,416.801
925.308,417.545
926.759,409.129
928.209,414.081
929.659,432.28
931.109,423.557
932.56,423.557
934.01,426.841
935.46,432.508
936.911,416.249
938.361,409.002
939.811,425.816
941.262,419.797
942.712,438.683
944.162,429.06
945.613,429.644
947.063,410.514
948.513,405.361
949.964,420.086
951.414,424.505
952.864,410.212
954.315,420.067
955.765,430.922
957.215,429.629
958.666,426.504
960.116,423.347
961.566,420.494
963.017,418.196
964.467,406.601
965.917,421.02
967.368,420.978
968.818,422.866
970.268,414.823
971.719,407.532
973.169,412.1
974.619,419.802
976.07,427.169
977.52,418.625
978.97,437.678
980.421,433.29
981.871,432.71
983.321,430.934
984.772,422.732
986.222,436.475
987.672,416.402
989.123,432.359
990.573,426.065
992.023,427.637
993.474,428.661
994.924,425.957
996.374,427.02
997.825,433.123
999.275,424.011
1000.73,437.822
1002.18,434.916
1003.63,444.646
1005.08,453.081
1006.53,456.509
1007.98,458.438
1009.43,450.493
1010.88,443.247
1012.33,447.929
1013.78,473.893
1015.23,467.507
1016.68,461.499
1018.13,466.379
1019.58,468.427
1021.03,466.123
1022.48,459.779
1023.93,485.846
1025.38,483.367
1026.83,498.573
1028.28,493.148
1029.73,483.468
1031.18,488.382
1032.63,481.8
1034.08,484.031
1035.53,488.874
1036.98,520.101
1038.43,526.373
1039.88,519.434
1041.33,521.982
1042.78,525.67
1044.23,514.728
1045.69,534.873
1047.14,527.867
1048.59,523.368
1050.04,531.465
1051.49,529.49
1052.94,534.377
1054.39,549.2
1055.84,555.668
1057.29,552.112
1058.74,564.792
1060.19,570.336
1061.64,563.877
1063.09,578.817
1064.54,589.71
1065.99,592.426
1067.44,598.967
1068.89,610.517
1070.34,629.634
1071.79,620.987
1073.24,613.074
1074.69,601.254
1076.14,605.086
1077.59,618.059
1079.04,626.908
1080.49,628.684
1081.94,626.01
1083.39,604.097
1084.84,644.17
1086.29,640.624
1087.74,623.352
1089.2,629.228
1090.65,636.319
1092.1,624.896
1093.55,618.024
1095,616
1096.45,608.143
1097.9,605.595
1099.35,609.304
1100.8,607.338
1102.25,614.895
1103.7,601.922
1105.15,578.06
1106.6,627.457
1108.05,622.482
1109.5,595.587
1110.95,593.896
1112.4,591.208
1113.85,595.458
1115.3,600.499
1116.75,596.838
1118.2,587.876
1119.65,585.337
1121.1,570.473
1122.55,595.473
1124,575.636
1125.45,569.336
1126.9,579.438
1128.35,578.635
1129.8,574.187
1131.25,579.991
1132.7,558.926
1134.16,578.24
1135.61,586.676
1137.06,563.565
1138.51,563.139
1139.96,557.363
1141.41,555.576
1142.86,556.075
1144.31,549.145
1145.76,563.904
1147.21,557.583
1148.66,545.85
1150.11,563.157
1151.56,554.763
1153.01,539.056
1154.46,540.76
1155.91,548.357
1157.36,548.792
1158.81,564.365
1160.26,560.984
1161.71,529.286
1163.16,558.291
1164.61,552.286
1166.06,550.696
1167.51,557.908
1168.96,557.804
1170.41,549.705
1171.86,547.946
1173.31,543.221
1174.76,537.48
1176.21,549.111
1177.66,545.14
1179.12,544.551
1180.57,547.712
1182.02,552.193
1183.47,552.938
1184.92,551.858
1186.37,567.293
1187.82,552.492
1189.27,562.075
1190.72,558.861
1192.17,554.133
1193.62,552.492
1195.07,542.897
1196.52,543.398
1197.97,564.9
1199.42,570.956
1200.87,565.349
1202.32,570.016
1203.77,540.554
1205.22,558.662
1206.67,560.867
1208.12,547.442
1209.57,549.022
1211.02,559.016
1212.47,557.229
1213.92,570.492
1215.37,553.908
1216.82,570.958
1218.27,566.355
1219.72,579.61
1221.17,577.879
1222.63,566.679
1224.08,567.694
1225.53,572.63
1226.98,557.943
1228.43,550.638
1229.88,584.359
1231.33,560.119
1232.78,588.659
1234.23,578.628
1235.68,587.868
1237.13,595.475
1238.58,596.986
1240.03,599.174
1241.48,595.933
1242.93,616.503
1244.38,596.391
1245.83,578.458
1247.28,590.365
1248.73,620.179
1250.18,617.155
1251.63,601.742
1253.08,605.089
1254.53,616.101
1255.98,615.222
1257.43,632.674
1258.88,642.674
1260.33,626.093
1261.78,639.521
1263.23,646.125
1264.68,638.084
1266.13,643.625
1267.59,661.879
1269.04,678.021
1270.49,682.525
1271.94,673.758
1273.39,703.865
1274.84,695.274
1276.29,695.167
1277.74,714.289
1279.19,714.034
1280.64,730.779
1282.09,744.095
1283.54,756.742
1284.99,778.511
1286.44,781.776
1287.89,792.29
1289.34,768.901
1290.79,819.373
1292.24,838.459
1293.69,843.379
1295.14,866.329
1296.59,895.781
1298.04,909.487
1299.49,924.277
1300.94,960.863
1302.39,985.235
1303.84,988.176
1305.29,1005.68
1306.74,1040.02
1308.19,1057.99
1309.64,1095.09
1311.09,1143.31
1312.55,1185.52
1314,1216.83
1315.45,1254.79
1316.9,1301.42
1318.35,1324.01
1319.8,1380.07
1321.25,1398.99
1322.7,1413.08
1324.15,1482.14
1325.6,1481.02
1327.05,1474.3
1328.5,1473.66
1329.95,1483.2
1331.4,1506.31
1332.85,1518.84
1334.3,1508.17
1335.75,1509.93
1337.2,1459.19
1338.65,1447.44
1340.1,1402.64
1341.55,1397.85
1343,1366.9
1344.45,1318.01
1345.9,1296.19
1347.35,1285.06
1348.8,1239.08
1350.25,1178.03
1351.7,1135.83
1353.15,1126.52
1354.6,1135.46
1356.06,1100.92
1357.51,1029.82
1358.96,992.005
1360.41,988.284
1361.86,979.7
1363.31,964.212
1364.76,955.85
1366.21,933.624
1367.66,886.083
1369.11,876.496
1370.56,890.785
1372.01,868.381
1373.46,866.716
1374.91,849.236
1376.36,856.545
1377.81,847.107
1379.26,824.62
1380.71,812.902
1382.16,813.662
1383.61,821.678
1385.06,801.212
1386.51,773.079
1387.96,801.123
1389.41,803.74
1390.86,819.214
1392.31,816.065
1393.76,790.708
1395.21,799.235
1396.66,796.132
1398.11,787.635
1399.56,817.883
1401.02,823.165
1402.47,818.664
1403.92,813.437
1405.37,824.971
1406.82,831.881
1408.27,831.487
1409.72,813.678
1411.17,837.313
1412.62,844.86
1414.07,819.055
1415.52,815.082
1416.97,838.66
1418.42,843.714
1419.87,863.039
1421.32,863.628
1422.77,870.378
1424.22,846.131
1425.67,858.744
1427.12,899.808
1428.57,878.278
1430.02,876.965
1431.47,891.297
1432.92,894.441
1434.37,899.845
1435.82,914.081
1437.27,929.517
1438.72,964.912
1440.17,941.744
1441.62,931.573
1443.07,949.819
1444.53,933.192
1445.98,960.048
1447.43,986.729
1448.88,997.634
1450.33,986.202
1451.78,983.555
1453.23,1012.82
1454.68,1041.28
1456.13,1041.49
1457.58,1049.92
1459.03,1063.47
1460.48,1084.42
1461.93,1059.99
1463.38,1111.64
1464.83,1130.57
1466.28,1130.23
1467.73,1143.97
1469.18,1162.68
1470.63,1193.04
1472.08,1231.81
1473.53,1254.14
1474.98,1262.58
1476.43,1276.15
1477.88,1305.4
1479.33,1289.16
1480.78,1346.27
1482.23,1373.44
1483.68,1395.28
1485.13,1449.44
1486.58,1467.8
1488.03,1479.86
1489.49,1530.92
1490.94,1573.99
1492.39,1588.53
1493.84,1616.85
1495.29,1656.18
1496.74,1730.65
1498.19,1762.4
1499.64,1829.84
1501.09,1822.16
1502.54,1941.65
1503.99,2022.7
1505.44,2082.92
1506.89,2170.61
1508.34,2258.21
1509.79,2344.28
1511.24,2443.56
1512.69,2560.56
1514.14,2695.13
1515.59,2838.41
1517.04,2982.08
1518.49,3137.47
1519.94,3310.26
1521.39,3556.31
1522.84,3824.52
1524.29,4049.85
1525.74,4298.41
1527.19,4683.95
1528.64,5042.08
1530.09,5385.36
1531.54,5800.25
1532.99,6274.66
1534.45,6802.79
1535.9,7374.92
1537.35,7913.73
1538.8,8547.65
1540.25,9111.61
1541.7,9845.35
1543.15,10587.7
1544.6,11459.6
1546.05,12081.4
1547.5,12757
1548.95,13480.1
1550.4,14280.7
1551.85,14937.6
1553.3,14961.4
1554.75,14985.9
1556.2,15028.8
1557.65,15065.5
1559.1,15092.5
1560.55,15188
1562,15141.5
1563.45,15129.6
1564.9,15122.7
1566.35,15094.4
1567.8,14977.6
1569.25,14236.3
1570.7,13408.8
1572.15,12570
1573.6,11746.9
1575.05,10943.6
1576.5,10119.4
1577.96,9310.1
1579.41,8594.54
1580.86,7954.35
1582.31,7318.84
1583.76,6698.48
1585.21,6252.87
1586.66,5775.49
1588.11,5408.31
1589.56,5024.53
1591.01,4698.75
1592.46,4372
1593.91,4134.76
1595.36,3866.13
1596.81,3661.5
1598.26,3479.19
1599.71,3281.45
1601.16,3116.81
1602.61,2964.31
1604.06,2807.96
1605.51,2671.9
1606.96,2551.18
1608.41,2421.65
1609.86,2351.5
1611.31,2244.89
1612.76,2132.7
1614.21,2084.24
1615.66,1999.24
1617.11,1916.85
1618.56,1849.1
1620.01,1797.4
1621.46,1754.98
1622.92,1693.82
1624.37,1631.15
1625.82,1573.85
1627.27,1548.2
1628.72,1522.38
1630.17,1460.1
1631.62,1426.74
1633.07,1429.18
1634.52,1384.44
1635.97,1384.77
1637.42,1361.22
1638.87,1304.64
1640.32,1290.18
1641.77,1282.04
1643.22,1262.3
1644.67,1236.08
1646.12,1212.55
1647.57,1204.08
1649.02,1183.51
1650.47,1161.77
1651.92,1150.96
1653.37,1151.24
1654.82,1140.31
1656.27,1148.07
1657.72,1117.06
1659.17,1111.14
1660.62,1078.25
1662.07,1063.78
1663.52,1044.64
1664.97,1055.22
1666.42,1025.68
1667.88,1026.94
1669.33,1000.98
1670.78,984.598
1672.23,1005.68
1673.68,1006.52
1675.13,997.619
1676.58,983.191
1678.03,982.511
1679.48,990.316
1680.93,972.658
1682.38,947.865
1683.83,962.51
1685.28,936.026
1686.73,921.102
1688.18,904.287
1689.63,912.263
1691.08,934.77
1692.53,930.005
1693.98,904.505
1695.43,908.553
1696.88,921.249
1698.33,916.247
1699.78,909.836
1701.23,905.911
1702.68,912.376
1704.13,897.227
1705.58,908.714
1707.03,894.944
1708.48,911.693
1709.93,866.4
1711.39,875.27
1712.84,909.078
1714.29,884.819
1715.74,871.884
1717.19,882.813
1718.64,896.242
1720.09,884.807
1721.54,893.252
1722.99,893.999
1724.44,875.266
1725.89,883.586
1727.34,887.979
1728.79,867.904
1730.24,877.066
1731.69,875.283
1733.14,871.245
1734.59,854.079
1736.04,889.093
1737.49,862.808
1738.94,840.14
1740.39,832.563
1741.84,823.839
1743.29,822.636
1744.74,838.656
1746.19,839.204
1747.64,843.027
1749.09,821.42
1750.54,835.266
1751.99,823.188
1753.44,794.018
1754.89,802.918
1756.35,812.9
1757.8,797.008
1759.25,802.551
1760.7,810.179
1762.15,781.628
1763.6,793.018
1765.05,788.762
1766.5,794.326
1767.95,777.939
1769.4,773.12
1770.85,766.925
1772.3,787.743
1773.75,757.127
1775.2,778.847
1776.65,754.879
1778.1,752.193
1779.55,759.72
1781,750.715
1782.45,759.947
1783.9,763.805
1785.35,761.686
1786.8,760.807
1788.25,772.336
1789.7,761.913
1791.15,749.851
1792.6,756.578
1794.05,738.454
1795.5,740.732
1796.95,749.727
1798.4,767.945
1799.85,772.331
1801.31,750.662
1802.76,730.587
1804.21,736.178
1805.66,750.574
1807.11,749.692
1808.56,723.492
1810.01,731.726
1811.46,714.09
1812.91,710.328
1814.36,738.252
1815.81,740.065
1817.26,738.901
1818.71,720.816
1820.16,718.073
1821.61,727.793
1823.06,726.126
1824.51,733.24
1825.96,739.157
1827.41,738.903
1828.86,742.274
1830.31,739.427
1831.76,749.355
1833.21,751.928
1834.66,732.856
1836.11,752.157
1837.56,737.192
1839.01,738.629
1840.46,751.407
1841.91,748.206
1843.36,772.587
1844.82,758.76
1846.27,749.897
1847.72,745.347
1849.17,766.736
1850.62,753.998
1852.07,778.773
1853.52,753.203
1854.97,757.723
1856.42,765.821
1857.87,772.605
1859.32,775.607
1860.77,768.599
1862.22,749.949
1863.67,754.112
1865.12,761.243
1866.57,768.461
1868.02,767.578
1869.47,751.881
1870.92,756.186
1872.37,766.691
1873.82,769.121
1875.27,776.01
1876.72,756.288
1878.17,743.856
1879.62,746.327
1881.07,753.742
1882.52,758.93
1883.97,744.667
1885.42,751.921
1886.87,731.739
1888.32,746.541
1889.78,759.333
1891.23,711.754
1892.68,721.556
1894.13,721.544
1895.58,727.512
1897.03,724.004
1898.48,731.262
1899.93,715.529
1901.38,707.101
1902.83,708.864
1904.28,712.073
1905.73,704.628
1907.18,719.153
1908.63,715.107
1910.08,728.712
1911.53,718.01
1912.98,698.925
1914.43,709.509
1915.88,712.235
1917.33,706.252
1918.78,707.081
1920.23,708.053
1921.68,706.609
1923.13,697.954
1924.58,701.461
1926.03,706.261
1927.48,701.609
1928.93,713.082
1930.38,699.419
1931.83,718.778
1933.29,690.068
1934.74,701.805
1936.19,700.771
1937.64,690.28
1939.09,696.179
1940.54,693.527
1941.99,712.527
1943.44,695.988
1944.89,702.232
1946.34,704.926
1947.79,708.211
1949.24,687.241
1950.69,711.921
1952.14,717.447
1953.59,729.088
1955.04,736.702
1956.49,709.42
1957.94,715.163
1959.39,710.078
1960.84,692.945
1962.29,723.944
1963.74,712.491
1965.19,725.391
1966.64,729.311
1968.09,709.043
1969.54,706.99
1970.99,704.443
1972.44,708.853
1973.89,717.747
1975.34,729.148
1976.79,743.459
1978.25,745.127
1979.7,736.242
1981.15,733.716
1982.6,740.248
1984.05,742.427
1985.5,727.863
1986.95,724.285
1988.4,735.504
1989.85,727.577
1991.3,734.897
1992.75,736.246
1994.2,721.356
1995.65,739.704
1997.1,715.266
1998.55,721.446
2000,716.521
2001.45,732.213
2002.9,735.348
2004.35,752.431
2005.8,740.301
2007.25,724.329
2008.7,730.291
2010.15,723.644
2011.6,712.575
2013.05,705.116
2014.5,708.055
2015.95,721.929
2017.4,714.029
2018.85,707.573
2020.3,726.429
2021.75,737.237
2023.21,739.593
2024.66,730.082
2026.11,695.031
2027.56,746.163
2029.01,702.866
2030.46,712.54
2031.91,694.247
2033.36,720.709
2034.81,686.849
2036.26,740.295
2037.71,700.715
2039.16,712.783
2040.61,708.813
2042.06,685.054
2043.51,711.475
2044.96,710.825
2046.41,681.314
2047.86,681.704
2049.31,714.739
2050.76,676.967
2052.21,681.049
2053.66,669.754
2055.11,680.326
2056.56,694.815
2058.01,694.65
2059.46,690.171
2060.91,672.405
2062.36,668.928
2063.81,673.746
2065.26,674.151
2066.72,683.298
2068.17,680.31
2069.62,671.86
2071.07,684.172
2072.52,667.95
2073.97,669.343
2075.42,673.62
2076.87,675.225
2078.32,691.27
2079.77,685.09
2081.22,675.043
2082.67,661.88
2084.12,666.578
2085.57,668.842
2087.02,658.322
2088.47,668.121
2089.92,669.224
2091.37,669.999
2092.82,665.807
2094.27,672.569
2095.72,676.211
2097.17,669.765
2098.62,673.094
2100.07,659.302
2101.52,675.9
2102.97,678.21
2104.42,669.053
2105.87,677.158
2107.32,681.385
2108.77,683.283
2110.22,689.25
2111.68,693.627
2113.13,691.442
2114.58,679.437
2116.03,673.632
2117.48,673.869
2118.93,681.647
2120.38,690.307
2121.83,685.92
2123.28,689.923
2124.73,696.996
2126.18,698.64
2127.63,694.807
2129.08,692.064
2130.53,699.209
2131.98,702.069
2133.43,682.46
2134.88,685.878
2136.33,701.709
2137.78,692.048
2139.23,689.423
2140.68,692.939
2142.13,695.753
2143.58,714.155
2145.03,706.974
2146.48,703.164
2147.93,703.236
2149.38,702.662
2150.83,715.701
2152.28,710.982
2153.73,712.045
2155.18,719.047
2156.64,718.873
2158.09,710.879
2159.54,727.286
2160.99,725.27
2162.44,721.142
2163.89,737.253
2165.34,731.037
2166.79,727.384
2168.24,723.841
2169.69,726.255
2171.14,732.111
2172.59,724.354
2174.04,730.256
2175.49,749.771
2176.94,740.687
2178.39,747.204
2179.84,750.889
2181.29,743.654
2182.74,735.773
2184.19,744.001
2185.64,734.28
2187.09,734.377
2188.54,732.795
2189.99,736.528
2191.44,736.686
2192.89,739.055
2194.34,747.502
2195.79,761.151
2197.24,745.108
2198.69,752.02
2200.15,746.454
2201.6,748.284
2203.05,734.687
2204.5,737.691
2205.95,751.194
2207.4,756.463
2208.85,748.128
2210.3,752.751
2211.75,766.165
2213.2,783.544
2214.65,753.947
2216.1,772.605
2217.55,769.965
2219,753.308
2220.45,770.89
2221.9,768.271
2223.35,773.075
2224.8,784.078
2226.25,798.711
2227.7,769.57
2229.15,782.531
2230.6,795.928
2232.05,773.762
2233.5,765.559
2234.95,755.478
2236.4,791.375
2237.85,801.632
2239.3,779.75
2240.75,786.495
2242.2,793.019
2243.65,771.068
2245.11,794.273
2246.56,806.605
2248.01,797.722
2249.46,787.111
2250.91,807.132
2252.36,807.353
2253.81,830.692
2255.26,808.988
2256.71,794.595
2258.16,808.372
2259.61,827.862
2261.06,814.19
2262.51,793.056
2263.96,810.28
2265.41,831.283
2266.86,818.494
2268.31,833.844
2269.76,825.629
2271.21,814.1
2272.66,835.326
2274.11,831.5
2275.56,818.2
2277.01,826.673
2278.46,828.671
2279.91,828.671
2281.36,824.467
2282.81,843.645
2284.26,850.65
2285.71,841.795
2287.16,830.405
2288.61,849.22
2290.07,858.853
2291.52,873.337
2292.97,866.547
2294.42,870.189
2295.87,869.235
2297.32,854.471
2298.77,858.38
2300.22,862.024
2301.67,843.573
2303.12,879.11
2304.57,882.745
2306.02,881.184
2307.47,858.82
2308.92,868.983
2310.37,899.591
2311.82,893.692
2313.27,882.702
2314.72,868.2
2316.17,884.839
2317.62,886.46
2319.07,936.89
2320.52,917.394
2321.97,907.158
2323.42,937.233
2324.87,917.434
2326.32,927.149
2327.77,936.561
2329.22,930.078
2330.67,929.529
2332.12,950.542
2333.57,951.566
2335.03,966.059
2336.48,928.485
2337.93,946.178
2339.38,964.218
2340.83,962.845
2342.28,978.025
2343.73,980.898
2345.18,975.552
2346.63,994.217
2348.08,979.224
2349.53,979.819
2350.98,1016.08
2352.43,1018.01
2353.88,1032.62
2355.33,1029.6
2356.78,1034.23
2358.23,1057.48
2359.68,1055.67
2361.13,1043.77
2362.58,1047.54
2364.03,1082.11
2365.48,1085.91
2366.93,1138.46
2368.38,1081.96
2369.83,1107.9
2371.28,1103.85
2372.73,1144.28
2374.18,1151
2375.63,1165.34
2377.08,1184.87
2378.54,1190.6
2379.99,1205.77
2381.44,1224.77
2382.89,1234.3
2384.34,1242.05
2385.79,1243.16
2387.24,1267.67
2388.69,1278.58
2390.14,1304.13
2391.59,1336.22
2393.04,1332.99
2394.49,1313.52
2395.94,1329.92
2397.39,1377.28
2398.84,1425.07
2400.29,1398.82
2401.74,1431.6
2403.19,1433.95
2404.64,1476.75
2406.09,1495.99
2407.54,1467.41
2408.99,1479.54
2410.44,1493.54
2411.89,1477.86
2413.34,1521.3
2414.79,1544.69
2416.24,1522.15
2417.69,1507.47
2419.14,1525.61
2420.59,1521.31
2422.04,1480.49
2423.5,1508.76
2424.95,1523.98
2426.4,1499.48
2427.85,1483.19
2429.3,1492
2430.75,1506.01
2432.2,1504.73
2433.65,1486.57
2435.1,1454.03
2436.55,1486.39
2438,1461.43
2439.45,1461.54
2440.9,1474.55
2442.35,1454.17
2443.8,1457.08
2445.25,1434.56
2446.7,1457.46
2448.15,1438.14
2449.6,1426.69
2451.05,1407.11
2452.5,1416.08
2453.95,1387.89
2455.4,1421.08
2456.85,1391.95
2458.3,1392.68
2459.75,1405.94
2461.2,1411.93
2462.65,1397.33
2464.1,1396.97
2465.55,1385.95
2467.01,1384.37
2468.46,1391.76
2469.91,1391.99
2471.36,1384.82
2472.81,1391.05
2474.26,1397.94
2475.71,1383.29
2477.16,1408.07
2478.61,1415.24
2480.06,1433.64
2481.51,1426.65
2482.96,1427.88
2484.41,1399.14
2485.86,1433.49
2487.31,1450.09
2488.76,1443.87
2490.21,1436.96
2491.66,1432.8
2493.11,1430.9
2494.56,1445.47
2496.01,1421.28
2497.46,1418.61
2498.91,1433.49
2500.36,1437.29
2501.81,1428.61
2503.26,1469.84
2504.71,1474.47
2506.16,1490.97
2507.61,1520.77
2509.06,1465.52
2510.51,1536.87
2511.97,1510.45
2513.42,1526.37
2514.87,1547.9
2516.32,1568.37
2517.77,1566.55
2519.22,1576.99
2520.67,1605.68
2522.12,1619.4
2523.57,1644.16
2525.02,1640.12
2526.47,1658.28
2527.92,1666.85
2529.37,1640.45
2530.82,1680.84
2532.27,1715.86
2533.72,1706.21
2535.17,1719.05
2536.62,1748.03
2538.07,1793.32
2539.52,1768.11
2540.97,1820.09
2542.42,1826.13
2543.87,1907.44
2545.32,1921.34
2546.77,1913.14
2548.22,1956.39
2549.67,1981.76
2551.12,2000.95
2552.57,2004.34
2554.02,2049.9
2555.48,2093.25
2556.93,2147.06
2558.38,2173.07
2559.83,2197.23
2561.28,2232.62
2562.73,2314.81
2564.18,2339.92
2565.63,2383.91
2567.08,2442.47
2568.53,2474.08
2569.98,2544.54
2571.43,2638.49
2572.88,2688.42
2574.33,2686.64
2575.78,2771.05
2577.23,2844.08
2578.68,2902.08
2580.13,2984.23
2581.58,3051.05
2583.03,3105.97
2584.48,3195.73
2585.93,3273.03
2587.38,3338.59
2588.83,3470.63
2590.28,3601.85
2591.73,3737.54
2593.18,3783.23
2594.63,3883.27
2596.08,4022.58
2597.53,4129.8
2598.98,4311.41
2600.44,4434.06
2601.89,4596.27
2603.34,4760.87
2604.79,4899.47
2606.24,5085.61
2607.69,5213.51
2609.14,5428.21
2610.59,5538
2612.04,5767.05
2613.49,5920.4
2614.94,6156.68
2616.39,6343.78
2617.84,6486.42
2619.29,6688.87
2620.74,6879.28
2622.19,7071.66
2623.64,7316.02
2625.09,7435.25
2626.54,7623.3
2627.99,7813.64
2629.44,8039.11
2630.89,8248.76
2632.34,8443.36
2633.79,8587.66
2635.24,8842.99
2636.69,8899.78
2638.14,9038.72
2639.59,9222.03
2641.04,9277.01
2642.49,9394.07
2643.94,9461.98
2645.4,9489.32
2646.85,9529.38
2648.3,9549.96
2649.75,9484.6
2651.2,9497.97
2652.65,9380.34
2654.1,9425.94
2655.55,9290.92
2657,9209.25
2658.45,9052.35
2659.9,8894.19
2661.35,8729.96
2662.8,8586.58
2664.25,8387.09
2665.7,8267.22
2667.15,8121.32
2668.6,7868.13
2670.05,7706.73
2671.5,7527.34
2672.95,7208.6
2674.4,7081.36
2675.85,6863.37
2677.3,6614.4
2678.75,6433.43
2680.2,6292.34
2681.65,5999.24
2683.1,5833.39
2684.55,5637
2686,5489.93
2687.45,5288.08
2688.91,5072.39
2690.36,4891.82
2691.81,4743.72
2693.26,4587.57
2694.71,4354.22
2696.16,4221.01
2697.61,4165.56
2699.06,3953.45
2700.51,3852.52
2701.96,3787.26
2703.41,3648.1
2704.86,3480.21
2706.31,3384.51
2707.76,3243.05
2709.21,3197.4
2710.66,3095.58
2712.11,2982.65
2713.56,2907.26
2715.01,2857.85
2716.46,2766.91
2717.91,2701.28
2719.36,2616.54
2720.81,2576.31
2722.26,2525.99
2723.71,2440.78
2725.16,2364.42
2726.61,2318.84
2728.06,2287.6
2729.51,2254.61
2730.96,2196.41
2732.41,2120.85
2733.87,2121.89
2735.32,2049.61
2736.77,2028.27
2738.22,1991.22
2739.67,1965.83
2741.12,1939.07
2742.57,1877.26
2744.02,1860.3
2745.47,1857.93
2746.92,1801.23
2748.37,1802.14
2749.82,1755.14
2751.27,1760.01
2752.72,1711.52
2754.17,1717.44
2755.62,1674.27
2757.07,1631.06
2758.52,1619.66
2759.97,1612.84
2761.42,1573.19
2762.87,1561.59
2764.32,1568.28
2765.77,1542.98
2767.22,1487.66
2768.67,1544.58
2770.12,1506.44
2771.57,1496.28
2773.02,1475.04
2774.47,1477.96
2775.92,1470.09
2777.38,1445.76
2778.83,1444.44
2780.28,1424.96
2781.73,1413.23
2783.18,1392.33
2784.63,1394.19
2786.08,1381.94
2787.53,1337.96
2788.98,1360.24
2790.43,1374.85
2791.88,1355.04
2793.33,1336.49
2794.78,1315.6
2796.23,1311.99
2797.68,1325.11
2799.13,1307.34
2800.58,1308.77
2802.03,1291.84
2803.48,1282.05
2804.93,1295
2806.38,1274.25
2807.83,1249.05
2809.28,1258.58
2810.73,1243.88
2812.18,1255
2813.63,1255.86
2815.08,1266.05
2816.53,1232.49
2817.98,1242.31
2819.43,1255.85
2820.88,1233.07
2822.33,1214.21
2823.79,1225
2825.24,1210.11
2826.69,1199.29
2828.14,1191.24
2829.59,1193.82
2831.04,1211.45
2832.49,1220.26
2833.94,1165.05
2835.39,1161.95
2836.84,1165.54
2838.29,1155.34
2839.74,1155.34
2841.19,1162.5
2842.64,1182.98
2844.09,1178.63
2845.54,1165.26
2846.99,1158.52
2848.44,1155.33
2849.89,1138.07
2851.34,1156.88
2852.79,1144.33
2854.24,1131.62
2855.69,1147.76
2857.14,1175.71
2858.59,1144.86
2860.04,1129.4
2861.49,1145.57
2862.94,1122.9
2864.39,1125.68
2865.84,1150.29
2867.3,1144.45
2868.75,1142.19
2870.2,1141.94
2871.65,1121.44
2873.1,1129.26
2874.55,1152.57
2876,1141.1
2877.45,1144.62
2878.9,1147.29
2880.35,1140.64
2881.8,1115.06
2883.25,1124.46
2884.7,1126.4
2886.15,1126.19
2887.6,1123.1
2889.05,1112.6
2890.5,1130.88
2891.95,1141.54
2893.4,1131.1
2894.85,1137.94
2896.3,1137.41
2897.75,1121.23
2899.2,1118.73
2900.65,1117.11
2902.1,1110
2903.55,1105.3
2905,1106.56
2906.45,1109.88
2907.9,1113
2909.35,1103.39
2910.8,1083.68
2912.26,1082.81
2913.71,1093.71
2915.16,1056.05
2916.61,1099.91
2918.06,1084.2
2919.51,1059.73
2920.96,1083.49
2922.41,1078.46
2923.86,1075.76
2925.31,1066.3
2926.76,1049.73
2928.21,1042.27
2929.66,1039.7
2931.11,1033.8
2932.56,1022.4
2934.01,1045.43
2935.46,1024.02
2936.91,1024.01
2938.36,1019.8
2939.81,1007.84
2941.26,996.761
2942.71,1006.16
2944.16,1010.69
2945.61,1007.15
2947.06,1005.54
2948.51,1009.2
2949.96,987.063
2951.41,984.237
2952.86,1000.26
2954.31,983.168
2955.77,976.598
2957.22,989.155
2958.67,977.895
2960.12,961.967
2961.57,1007.03
2963.02,975.524
2964.47,971.022
2965.92,967.251
2967.37,973.08
2968.82,970.423
2970.27,979.29
2971.72,955.372
2973.17,958.086
2974.62,956.98
2976.07,946.128
2977.52,947.031
2978.97,954.923
2980.42,945.426
2981.87,960.707
2983.32,968.932
2984.77,957.831
2986.22,942.087
2987.67,952.79
2989.12,960.633
2990.57,965.548
2992.02,955.89
2993.47,940.173
2994.92,948.603
2996.37,964.953
2997.82,960.625
2999.27,969.708
3000.73,935.762
3002.18,956.798
3003.63,938.488
3005.08,950.835
3006.53,946.094
3007.98,923.256
3009.43,918.681
3010.88,931.109
3012.33,947.234
3013.78,967.396
3015.23,924.901
3016.68,941.48
3018.13,927.77
3019.58,940.841
3021.03,942.876
3022.48,926.542
3023.93,946.38
3025.38,964.591
3026.83,936.422
3028.28,949.041
3029.73,973.761
3031.18,976.279
3032.63,959.899
3034.08,977.228
3035.53,982.385
3036.98,924.589
3038.43,965.8
3039.88,971.031
3041.33,963.707
3042.78,961.904
3044.23,948.087
3045.69,947.853
3047.14,941.861
3048.59,961.985
3050.04,975.085
3051.49,947.765
3052.94,945.074
3054.39,964.608
3055.84,980.993
3057.29,975.791
3058.74,960.576
3060.19,984.551
3061.64,996.492
3063.09,1003.96
3064.54,1009.85
3065.99,1005.34
3067.44,979.948
3068.89,1001.13
3070.34,1019.91
3071.79,1049.47
3073.24,1004.79
3074.69,1027.71
3076.14,1025.92
3077.59,1032.74
3079.04,1063.5
3080.49,1061.88
3081.94,1084.02
3083.39,1075.41
3084.84,1101.72
3086.29,1085.42
3087.74,1095.84
3089.2,1101.3
3090.65,1119.84
3092.1,1126.59
3093.55,1131.55
3095,1127.65
3096.45,1135.34
3097.9,1153.21
3099.35,1180.24
3100.8,1191.56
3102.25,1179.66
3103.7,1215.79
3105.15,1223.19
3106.6,1209.77
3108.05,1240.34
3109.5,1216.31
3110.95,1239.99
3112.4,1246.43
3113.85,1283.34
3115.3,1277.63
3116.75,1292.07
3118.2,1282.37
3119.65,1302.99
3121.1,1312.27
3122.55,1315.33
3124,1322.31
3125.45,1317
3126.9,1330.64
3128.35,1351.41
3129.8,1332.86
3131.25,1335.18
3132.7,1355.8
3134.16,1345.65
3135.61,1345.21
3137.06,1369.04
3138.51,1335.11
3139.96,1356.81
3141.41,1364.97
3142.86,1349.16
3144.31,1374.42
3145.76,1374.85
3147.21,1379.32
3148.66,1359.26
3150.11,1357.54
3151.56,1337.13
3153.01,1350.36
3154.46,1374.46
3155.91,1383.14
3157.36,1397.55
3158.81,1413.17
3160.26,1371.1
3161.71,1397.23
3163.16,1411.92
3164.61,1408.39
3166.06,1394.26
3167.51,1435.56
3168.96,1424.49
3170.41,1423.36
3171.86,1445.07
3173.31,1456.68
3174.76,1464.56
3176.21,1439.57
3177.67,1463.01
3179.12,1453.45
3180.57,1474.32
3182.02,1508.9
3183.47,1489.16
3184.92,1457.94
3186.37,1480.07
3187.82,1473.54
3189.27,1449.4
3190.72,1482.03
3192.17,1454.84
3193.62,1445.26
3195.07,1438.05
3196.52,1435.4
3197.97,1401.33
3199.42,1344.36
3200.87,1372.14
3202.32,1360.92
3203.77,1340.03
3205.22,1338.4
3206.67,1318.42
3208.12,1303.54
3209.57,1276.07
3211.02,1244.74
3212.47,1272.8
3213.92,1229.66
3215.37,1195.31
3216.82,1197.01
3218.27,1172.72
3219.72,1150.02
3221.17,1152.6
3222.63,1143.87
3224.08,1141.34
3225.53,1121.65
3226.98,1113.22
3228.43,1060.08
3229.88,1093.65
3231.33,1066.72
3232.78,1038.97
3234.23,1016.86
3235.68,1026.07
3237.13,1021.03
3238.58,1017.55
3240.03,987.074
3241.48,973.5
3242.93,980.754
3244.38,993.165
3245.83,987.052
3247.28,989.522
3248.73,965.458
3250.18,974.766
3251.63,970.732
3253.08,969.654
3254.53,956.728
3255.98,921.74
3257.43,941.602
3258.88,941.152
3260.33,931.714
3261.78,930.858
3263.23,926.677
3264.68,948.266
3266.13,934.878
3267.59,913.127
3269.04,926.023
3270.49,942.453
3271.94,934.97
3273.39,909.39
3274.84,926.09
3276.29,916.995
3277.74,910.622
3279.19,933.676
3280.64,907.551
3282.09,919.834
3283.54,910.047
3284.99,922.54
3286.44,916.39
3287.89,907.949
3289.34,928.935
3290.79,929.064
3292.24,897.417
3293.69,935.953
3295.14,934.631
3296.59,918.975
3298.04,911.307
3299.49,909.017
3300.94,901.402
3302.39,914.599
3303.84,893.573
3305.29,907.128
3306.74,930.338
3308.19,913.001
3309.64,896.491
3311.09,904.385
3312.55,922.14
3314,916.11
3315.45,885.425
3316.9,899.925
3318.35,922.459
3319.8,889.247
3321.25,919.771
3322.7,901.962
3324.15,908.151
3325.6,919.672
3327.05,922.565
3328.5,898.322
3329.95,917.908
3331.4,928.23
3332.85,898.477
3334.3,890.649
3335.75,900.562
3337.2,907.226
3338.65,903.422
3340.1,906.484
3341.55,915.829
3343,914.593
3344.45,902.039
3345.9,912.283
3347.35,897.994
3348.8,883.635
3350.25,914.859
3351.7,904.758
3353.15,901.733
3354.6,914.368
3356.06,900.939
3357.51,908.925
3358.96,908.685
3360.41,901.382
3361.86,903.775
3363.31,896.796
3364.76,897.944
3366.21,906.287
3367.66,910.965
3369.11,912.036
3370.56,932.212
3372.01,925.06
3373.46,954.841
3374.91,915.246
3376.36,912.457
3377.81,904.902
3379.26,915.084
3380.71,893.785
3382.16,917.657
3383.61,910.059
3385.06,932.114
3386.51,916.901
3387.96,902.538
3389.41,881.431
3390.86,908.783
3392.31,916.191
3393.76,901.603
3395.21,915.039
3396.66,914.695
3398.11,938.054
3399.56,926.881
3401.02,928.555
3402.47,921.459
3403.92,903.428
3405.37,887.233
3406.82,925.535
3408.27,896.864
3409.72,903.569
3411.17,916.132
3412.62,919.741
3414.07,916.61
3415.52,922.776
3416.97,902.481
3418.42,924.281
3419.87,904.302
3421.32,909.659
3422.77,917.911
3424.22,930.259
3425.67,936.864
3427.12,941.545
3428.57,935.618
3430.02,916.209
3431.47,927.881
3432.92,936.836
3434.37,906.987
3435.82,923.178
3437.27,926.1
3438.72,923.548
3440.17,927.984
3441.62,911.25
3443.07,913.853
3444.52,924.206
3445.98,880.58
3447.43,932.398
3448.88,930.106
3450.33,923.058
3451.78,919.83
3453.23,928.227
3454.68,928.595
3456.13,924.358
3457.58,924.721
3459.03,915.785
3460.48,909.453
3461.93,947.041
3463.38,930.83
3464.83,939.917
3466.28,949.892
3467.73,950.592
3469.18,938.002
3470.63,923.652
3472.08,937.358
3473.53,953.237
3474.98,944.164
3476.43,908.475
3477.88,951.882
3479.33,946.717
3480.78,947.228
3482.23,934.242
3483.68,959.126
3485.13,900.152
3486.58,938.801
3488.03,956.187
3489.49,947.808
3490.94,920.974
3492.39,924.071
3493.84,936.28
3495.29,954.423
3496.74,954.061
3498.19,928.404
3499.64,944.576
3501.09,942.896
3502.54,957.447
3503.99,938.443
3505.44,943.129
3506.89,953.083
3508.34,960.651
3509.79,944.396
3511.24,950.247
3512.69,950.025
3514.14,944.075
3515.59,984.631
3517.04,956.399
3518.49,962.491
3519.94,960.593
3521.39,950.106
3522.84,965.035
3524.29,961.598
3525.74,958.375
3527.19,974.361
3528.64,942.718
3530.09,957.766
3531.54,966.199
3532.99,979.878
3534.45,973.27
3535.9,932.399
3537.35,964.118
3538.8,961.608
3540.25,956.209
3541.7,957.402
3543.15,950.537
3544.6,977.165
3546.05,952.996
3547.5,953.674
3548.95,964.037
3550.4,975.422
3551.85,967.411
3553.3,958.047
3554.75,944.755
3556.2,942.126
3557.65,967.194
3559.1,947.647
3560.55,959.997
3562,961.098
3563.45,962.226
3564.9,949.133
3566.35,966.627
3567.8,985.335
3569.25,972.528
3570.7,980.941
3572.15,974.629
3573.6,960.235
3575.05,954.963
3576.5,961.547
3577.96,969.175
3579.41,987.733
3580.86,963.962
3582.31,978.737
3583.76,982.101
3585.21,969.999
3586.66,957.863
3588.11,973.71
3589.56,977.82
3591.01,969.851
3592.46,1006.89
3593.91,943.263
3595.36,946.591
3596.81,962.776
3598.26,982.839
3599.71,977.272
3601.16,972.751
3602.61,973.471
3604.06,983.509
3605.51,976.36
3606.96,994.648
3608.41,979.779
3609.86,1003.39
3611.31,992.229
3612.76,980.336
3614.21,988.295
3615.66,989.595
3617.11,1002.1
3618.56,973.843
3620.01,995.872
3621.46,1018.67
3622.92,1015.36
3624.37,995.976
3625.82,975.155
3627.27,994.36
3628.72,998.936
3630.17,986.655
3631.62,992.57
3633.07,979.226
3634.52,1008.59
3635.97,977.556
3637.42,1000.86
3638.87,1004.16
3640.32,1035.65
3641.77,998.393
3643.22,981.741
3644.67,1018.34
3646.12,992.471
3647.57,1015.88
3649.02,1009.94
3650.47,1002.21
3651.92,1026.03
3653.37,1014.01
3654.82,1005.55
3656.27,1003.47
3657.72,1000.86
3659.17,999.88
3660.62,1016.28
3662.07,1015.56
3663.52,1016.02
3664.97,1002.77
3666.43,1013.18
3667.88,1043.74
3669.33,1022.3
3670.78,1020.52
3672.23,1019.81
3673.68,1029.4
3675.13,1020.79
3676.58,1013.95
3678.03,1006.04
3679.48,1008.61
3680.93,1031.22
3682.38,1023.78
3683.83,1024.67
3685.28,1005.53
3686.73,1042.61
3688.18,1025.17
3689.63,1030.61
3691.08,1017.97
3692.53,1022.52
3693.98,1027.49
3695.43,1000.38
3696.88,1036.15
3698.33,1067.57
3699.78,1037.69
3701.23,1032.32
3702.68,1029.6
3704.13,1017.08
3705.58,1015.85
3707.03,1031.09
3708.48,1018.4
3709.93,1028.73
3711.39,1035.55
3712.84,1031.07
3714.29,1057.14
3715.74,1044.67
3717.19,1041.66
3718.64,1029.54
3720.09,1039.94
3721.54,1039.74
3722.99,1046.65
3724.44,1062.04
3725.89,1053.29
3727.34,1075.94
3728.79,1070.18
3730.24,1047.04
3731.69,1035.87
3733.14,1039.63
3734.59,1034.41
3736.04,1050.29
3737.49,1035.52
3738.94,1041.02
3740.39,1042.07
3741.84,1073.16
3743.29,1075.98
3744.74,1048.21
3746.19,1057.41
3747.64,1063.87
3749.09,1056.14
3750.54,1072.67
3751.99,1068.91
3753.44,1050.15
3754.89,1063.22
3756.35,1057.09
3757.8,1054.96
3759.25,1059.82
3760.7,1050.47
3762.15,1098.88
3763.6,1076.8
3765.05,1080.97
3766.5,1078.96
3767.95,1055.15
3769.4,1074.68
3770.85,1051.9
3772.3,1071
3773.75,1070.86
3775.2,1078.21
3776.65,1085.38
3778.1,1090.95
3779.55,1064.93
3781,1065.31
3782.45,1104.09
3783.9,1085.85
3785.35,1084.9
3786.8,1090.2
3788.25,1088.74
3789.7,1122.99
3791.15,1103.09
3792.6,1076.6
3794.05,1075.01
3795.5,1099.31
3796.95,1104.99
3798.4,1069.61
3799.85,1098.29
3801.31,1102.85
3802.76,1087.78
3804.21,1087.84
3805.66,1099.73
3807.11,1099.69
3808.56,1082.79
3810.01,1077.96
3811.46,1109.1
3812.91,1086.18
3814.36,1092.68
3815.81,1127.73
3817.26,1106.43
3818.71,1114.23
3820.16,1125.96
3821.61,1113.92
3823.06,1113.35
3824.51,1107.4
3825.96,1106.5
3827.41,1104.73
3828.86,1123.49
3830.31,1120.44
3831.76,1122.45
3833.21,1141.74
3834.66,1101.47
3836.11,1098.89
3837.56,1092.76
3839.01,1111.99
3840.46,1114.91
3841.91,1123.92
3843.36,1134.51
3844.82,1122.15
3846.27,1140.95
3847.72,1137.96
3849.17,1137.96
3850.62,1141.3
3852.07,1132.54
3853.52,1128.12
3854.97,1138.9
3856.42,1111.43
3857.87,1163.15
3859.32,1147.06
3860.77,1161.36
3862.22,1137.55
3863.67,1140.58
3865.12,1120.25
3866.57,1156.92
3868.02,1149.2
3869.47,1148.48
3870.92,1167.42
3872.37,1129.92
3873.82,1165.57
3875.27,1159.39
3876.72,1170.5
3878.17,1167.66
3879.62,1143.41
3881.07,1151.15
3882.52,1179.55
3883.97,1161.12
3885.42,1176.18
3886.87,1167.93
3888.32,1166.52
3889.78,1178.33
3891.23,1178.78
3892.68,1155.2
3894.13,1155.2
3895.58,1156.38
3897.03,1185.46
3898.48,1190.57
3899.93,1196.3
3901.38,1181.4
3902.83,1198.27
3904.28,1208.33
3905.73,1186.68
3907.18,1202.28
3908.63,1193.88
3910.08,1172.85
3911.53,1187
3912.98,1219.18
3914.43,1197.74
3915.88,1213.86
3917.33,1207.35
3918.78,1214.13
3920.23,1195.41
3921.68,1229.04
3923.13,1199.08
3924.58,1207.36
3926.03,1231.9
3927.48,1235.13
3928.93,1202.46
3930.38,1222.08
3931.83,1260.36
3933.28,1216.79
3934.74,1246.83
3936.19,1260.12
3937.64,1249.53
3939.09,1234.07
3940.54,1211.8
3941.99,1242.65
3943.44,1255.3
3944.89,1228.79
3946.34,1230.08
3947.79,1239.97
3949.24,1224.29
3950.69,1279.13
3952.14,1256.42
3953.59,1230.73
3955.04,1266.79
3956.49,1283.31
3957.94,1264.08
3959.39,1275.41
3960.84,1313.18
3962.29,1252.39
3963.74,1293.74
3965.19,1245.21
3966.64,1301.8
3968.09,1304.75
3969.54,1288.09
3970.99,1281.95
3972.44,1276.95
3973.89,1286.45
3975.34,1305.96
3976.79,1249.19
3978.25,1306.99
3979.7,1319.61
3981.15,1291.72
3982.6,1320.86
3984.05,1326.8
3985.5,1281.13
3986.95,1324.23
3988.4,1357.23
3989.85,1316.56
3991.3,1316.46
3992.75,1321.62
3994.2,1303.61
3995.65,1326.46
3997.1,1302.52
3998.55,1338.73
4000,1316.35
