-15.6446,35.9205
-14.1928,46.4361
-12.7411,55.0448
-11.2893,59.0815
-9.83749,62.7173
-8.3857,76.9924
-6.93391,101.487
-5.48212,318.767
-4.03034,123.876
-2.57855,123.876
-1.12676,123.876
0.325027,123.876
1.77681,123.876
3.2286,123.876
4.68039,123.876
6.13218,123.876
7.58397,614.169
9.03575,132.388
10.4875,114.931
11.9393,117.379
13.3911,123.287
14.8429,121.814
16.2947,115.573
17.7465,108.526
19.1983,91.5209
20.6501,78.7118
22.1018,69.8705
23.5536,62.8039
25.0054,55.6462
26.4572,50.6258
27.909,46.5871
29.3608,43.8379
30.8126,39.4312
32.2644,38.8656
33.7161,35.5668
35.1679,34.211
36.6197,35.5425
38.0715,40.0288
39.5233,40.1307
40.9751,41.7037
42.4269,45.82
43.8787,49.86
45.3304,59.5426
46.7822,69.025
48.234,96.994
49.6858,158.858
51.1376,262.594
52.5894,429.729
54.0412,682.446
55.493,1028.02
56.9447,1445.56
58.3965,1888.62
59.8483,2326.38
61.3001,2628.03
62.7519,2858.9
64.2037,3069.19
65.6555,3171.2
67.1073,3273.5
68.559,3331.07
70.0108,3375.75
71.4626,3479.21
72.9144,3547.11
74.3662,3590.54
75.818,3634.05
77.2698,3705.45
78.7216,3851.52
80.1733,3959.71
81.6251,4058.68
83.0769,4110.22
84.5287,4135.07
85.9805,4161.85
87.4323,4087.58
88.8841,3968.16
90.3359,3855.19
91.7877,3712
93.2394,3564.94
94.6912,3377.42
96.143,3243.43
97.5948,3128.3
99.0466,2952.24
100.498,2890.7
101.95,2766.43
103.402,2672.14
104.854,2612.15
106.306,2583.19
107.757,2553.99
109.209,2536
110.661,2500.9
112.113,2447.5
113.564,2423.12
115.016,2403.2
116.468,2357.89
117.92,2317.02
119.372,2289.84
120.823,2249.91
122.275,2176.04
123.727,2114.3
125.179,2059.17
126.631,2036.75
128.082,2037.96
129.534,1958.7
130.986,1922.39
132.438,1905.01
133.889,1860.74
135.341,1829.66
136.793,1815.01
138.245,1779.86
139.697,1750.75
141.148,1710.42
142.6,1702.64
144.052,1662.63
145.504,1624.87
146.956,1605.12
148.407,1595.79
149.859,1597.46
151.311,1554.62
152.763,1520.13
154.215,1517.79
155.666,1518.32
157.118,1486.41
158.57,1535.87
160.022,1549.39
161.473,1539.63
162.925,1549.62
164.377,1611.1
165.829,1632.77
167.281,1647.65
168.732,1668.61
170.184,1640.82
171.636,1567.83
173.088,1511.89
174.54,1458.89
175.991,1394.14
177.443,1376.01
178.895,1360.63
180.347,1364.32
181.798,1344.34
183.25,1321.36
184.702,1309.62
186.154,1307.66
187.606,1294.91
189.057,1280.34
190.509,1267.51
191.961,1252.29
193.413,1291.8
194.865,1282.69
196.316,1265.81
197.768,1247.65
199.22,1267.53
200.672,1246.93
202.124,1249.53
203.575,1254.81
205.027,1225.64
206.479,1234.14
207.931,1240.09
209.382,1254.98
210.834,1249.06
212.286,1220.95
213.738,1215.75
215.19,1243.07
216.641,1242.46
218.093,1242.87
219.545,1237.75
220.997,1210.83
222.449,1204.61
223.9,1196.72
225.352,1210.87
226.804,1219.6
228.256,1199.96
229.707,1193
231.159,1206.53
232.611,1217.59
234.063,1221.38
235.515,1244.52
236.966,1203.89
238.418,1207.36
239.87,1223.43
241.322,1214.51
242.774,1191.52
244.225,1182.96
245.677,1190.25
247.129,1189.48
248.581,1184.87
250.033,1150.96
251.484,1177.12
252.936,1167.61
254.388,1151.8
255.84,1149.14
257.291,1186.72
258.743,1183.55
260.195,1146.51
261.647,1153.13
263.099,1155.57
264.55,1109.44
266.002,1099.1
267.454,1120.46
268.906,1129.01
270.358,1120.15
271.809,1122.86
273.261,1128.11
274.713,1104.67
276.165,1112.12
277.616,1104.85
279.068,1068.32
280.52,1062.15
281.972,1091.37
283.424,1075.8
284.875,1062.42
286.327,1055.69
287.779,1068.15
289.231,1071.18
290.683,1052.22
292.134,1031.06
293.586,1020.66
295.038,1040.65
296.49,1023.51
297.941,1000.51
299.393,1021.83
300.845,1020.55
302.297,967.646
303.749,969.04
305.2,970.594
306.652,974.333
308.104,970.853
309.556,962.733
311.008,953.928
312.459,958.681
313.911,940.615
315.363,949.609
316.815,971.367
318.267,919.39
319.718,910.881
321.17,915.858
322.622,916.967
324.074,922.727
325.525,916.513
326.977,919.011
328.429,908.987
329.881,919.94
331.333,926.972
332.784,905.753
334.236,914.402
335.688,885.057
337.14,897.831
338.592,894.049
340.043,864.21
341.495,877.116
342.947,923.048
344.399,891.865
345.85,873.263
347.302,888.244
348.754,907.674
350.206,903.291
351.658,901.367
353.109,884.128
354.561,873.834
356.013,875.042
357.465,853.876
358.917,867.088
360.368,881.877
361.82,877.328
363.272,860.409
364.724,851.448
366.176,858.754
367.627,868.962
369.079,865.938
370.531,863.624
371.983,885.481
373.434,864.064
374.886,863.778
376.338,855.748
377.79,851.204
379.242,860.462
380.693,870.206
382.145,845.986
383.597,829.918
385.049,817.549
386.501,824.423
387.952,838.052
389.404,844.793
390.856,842.073
392.308,842.164
393.759,846.787
395.211,846.813
396.663,851.693
398.115,829.744
399.567,847.898
401.018,855.351
402.47,845.396
403.922,838.199
405.374,861.551
406.826,840.41
408.277,854.027
409.729,858.67
411.181,837.98
412.633,848.5
414.085,851.057
415.536,831.25
416.988,818.906
418.44,827.865
419.892,851.24
421.343,850.179
422.795,846.807
424.247,832.178
425.699,816.388
427.151,814.142
428.602,849.192
430.054,849.485
431.506,849.685
432.958,834.515
434.41,828.365
435.861,852.822
437.313,825.987
438.765,840.546
440.217,844.95
441.668,831.677
443.12,821.207
444.572,851.616
446.024,845.261
447.476,836.33
448.927,832.685
450.379,824.431
451.831,821.846
453.283,798.781
454.735,805.871
456.186,807.358
457.638,814.315
459.09,824.755
460.542,816.27
461.993,759.04
463.445,801.476
464.897,813.708
466.349,813.101
467.801,813.867
469.252,797.467
470.704,825.802
472.156,819.649
473.608,819.693
475.06,819.34
476.511,814.529
477.963,807.219
479.415,811.08
480.867,825.408
482.319,809.615
483.77,794.674
485.222,811.314
486.674,835.58
488.126,803.57
489.577,810.673
491.029,825.586
492.481,823.518
493.933,803.313
495.385,788.882
496.836,811.542
498.288,814.021
499.74,810.999
501.192,809.931
502.644,788.682
504.095,791.765
505.547,789.96
506.999,798.316
508.451,807.188
509.902,810.919
511.354,800.943
512.806,784.211
514.258,788.526
515.71,815.839
517.161,828.724
518.613,809.956
520.065,773.325
521.517,779.919
522.969,785.269
524.42,786.14
525.872,783.971
527.324,786.2
528.776,800.676
530.228,801.42
531.679,816.221
533.131,814.988
534.583,800.471
536.035,800.538
537.486,776.266
538.938,749.336
540.39,771.627
541.842,788.966
543.294,787.132
544.745,793.049
546.197,798.735
547.649,795.943
549.101,790.582
550.553,791.063
552.004,791.785
553.456,799.499
554.908,796.529
556.36,796.696
557.811,795.858
559.263,810.201
560.715,802.786
562.167,779.288
563.619,798.257
565.07,791.101
566.522,787.206
567.974,773.118
569.426,768.996
570.878,795.378
572.329,763.991
573.781,802.054
575.233,811.69
576.685,801.432
578.137,790.227
579.588,790.079
581.04,781.654
582.492,777.446
583.944,790.748
585.395,792.959
586.847,781.718
588.299,772.878
589.751,780.031
591.203,809.589
592.654,784.453
594.106,768.279
595.558,782.771
597.01,777.865
598.462,779.129
599.913,776.868
601.365,801.019
602.817,804.974
604.269,794.096
605.72,804.702
607.172,802.838
608.624,769.65
610.076,784.85
611.528,789.277
612.979,786.409
614.431,784.728
615.883,796.709
617.335,795.712
618.787,804.639
620.238,805.85
621.69,788.392
623.142,784.075
624.594,807.737
626.046,783.916
627.497,785.188
628.949,797.697
630.401,794.818
631.853,775.49
633.304,789.385
634.756,810.063
636.208,790.677
637.66,811.819
639.112,825.191
640.563,812.808
642.015,815.646
643.467,828.001
644.919,806.209
646.371,800.217
647.822,803.795
649.274,813.959
650.726,818.702
652.178,856.428
653.629,831.718
655.081,839.366
656.533,832.563
657.985,822.07
659.437,820.237
660.888,844.224
662.34,828.072
663.792,828.655
665.244,823.115
666.696,818.127
668.147,826.502
669.599,830.086
671.051,822.811
672.503,823.466
673.954,833.185
675.406,833.983
676.858,832.106
678.31,836.442
679.762,830.741
681.213,846.673
682.665,845.065
684.117,844.563
685.569,835.319
687.021,821.79
688.472,839.563
689.924,821.592
691.376,828.127
692.828,815.171
694.28,814.703
695.731,831.873
697.183,822.778
698.635,814.134
700.087,830.701
701.538,842.24
702.99,837.902
704.442,844.278
705.894,854.358
707.346,838.413
708.797,861.075
710.249,840.53
711.701,860.884
713.153,873.441
714.605,867.535
716.056,859.352
717.508,838.72
718.96,851.519
720.412,835.105
721.863,846.042
723.315,861.38
724.767,865.18
726.219,857.603
727.671,840.247
729.122,847.774
730.574,855.572
732.026,847.34
733.478,835.784
734.93,842.158
736.381,846.585
737.833,854.478
739.285,863.221
740.737,858.275
742.189,863.385
743.64,874.562
745.092,863.449
746.544,827.194
747.996,843.178
749.447,876.593
750.899,866.829
752.351,844.471
753.803,837.878
755.255,840.965
756.706,845.473
758.158,831.584
759.61,843.217
761.062,856.48
762.514,854.033
763.965,854.45
765.417,876.193
766.869,861.815
768.321,832.073
769.772,854.45
771.224,853.275
772.676,848.081
774.128,886.824
775.58,849.314
777.031,863.375
778.483,846.943
779.935,868.885
781.387,881.647
782.839,873.556
784.29,893.075
785.742,894.623
787.194,859.106
788.646,866.981
790.098,878.171
791.549,864.609
793.001,871.037
794.453,869.807
795.905,880.938
797.356,871.281
798.808,869.533
800.26,868.12
801.712,873.474
803.164,890.082
804.615,908.451
806.067,868.77
807.519,882.433
808.971,889.573
810.423,887.024
811.874,886.88
813.326,897.643
814.778,864.507
816.23,894.67
817.681,884.157
819.133,904.875
820.585,929.505
822.037,917.005
823.489,899.869
824.94,897.522
826.392,898.834
827.844,913.414
829.296,922.298
830.748,899.959
832.199,882.679
833.651,884.099
835.103,935.86
836.555,920.331
838.007,927.378
839.458,947.83
840.91,945.539
842.362,921.16
843.814,913.976
845.265,908.233
846.717,912.912
848.169,927.267
849.621,971.535
851.073,955.771
852.524,941.308
853.976,962.43
855.428,957.544
856.88,967.901
858.332,968.54
859.783,966.8
861.235,950.29
862.687,969.513
864.139,977.466
865.59,974.247
867.042,981.168
868.494,936.877
869.946,929.155
871.398,931.734
872.849,953.651
874.301,956.398
875.753,950.505
877.205,949.509
878.657,956.391
880.108,936.503
881.56,941.315
883.012,940.194
884.464,943.045
885.915,937.516
887.367,929.929
888.819,942.739
890.271,935.242
891.723,943.535
893.174,968.185
894.626,979.922
896.078,988.438
897.53,981.902
898.982,966.239
900.433,957.842
901.885,946.649
903.337,970.965
904.789,985.185
906.241,987.692
907.692,991.707
909.144,981.884
910.596,988.765
912.048,977.851
913.499,1000.09
914.951,992.399
916.403,983.562
917.855,965.983
919.307,945.039
920.758,970.973
922.21,1007.2
923.662,995.517
925.114,1000.74
926.566,997.324
928.017,997.567
929.469,1021.81
930.921,1010.54
932.373,1002.24
933.824,956.298
935.276,1001.84
936.728,1023.11
938.18,1011.15
939.632,1018.94
941.083,1018.43
942.535,998.76
943.987,1006.48
945.439,1030.43
946.891,1012.34
948.342,999.672
949.794,1004.26
951.246,1006.64
952.698,1016.27
954.15,1040.31
955.601,1007.19
957.053,992.868
958.505,1004.69
959.957,1010.64
961.408,999.319
962.86,994.425
964.312,1038
965.764,1040.37
967.216,1026.58
968.667,1005.87
970.119,1027.93
971.571,1019.86
973.023,1021.04
974.475,1032.68
975.926,1013.27
977.378,1023.99
978.83,1021.66
980.282,1030.26
981.733,1029.54
983.185,1042.6
984.637,1039.68
986.089,1030.2
987.541,1028.06
988.992,1053.72
990.444,1041.65
991.896,1067.32
993.348,1040.5
994.8,1051.47
996.251,1066.38
997.703,1045.83
999.155,1079.92
1000.61,1052.68
1002.06,1062.53
1003.51,1071.06
1004.96,1066.04
1006.41,1055.19
1007.87,1066.57
1009.32,1084.2
1010.77,1088.56
1012.22,1099.78
1013.67,1097.84
1015.12,1084.89
1016.58,1096.01
1018.03,1083.83
1019.48,1086.41
1020.93,1116.03
1022.38,1133.46
1023.84,1146.92
1025.29,1156.4
1026.74,1142.91
1028.19,1147.34
1029.64,1166.18
1031.09,1170.42
1032.55,1151.26
1034,1167.91
1035.45,1183.92
1036.9,1193.24
1038.35,1215.3
1039.8,1215.67
1041.26,1221.55
1042.71,1250.79
1044.16,1261.51
1045.61,1217.45
1047.06,1224.04
1048.52,1246.77
1049.97,1263.77
1051.42,1274.01
1052.87,1291.94
1054.32,1283.46
1055.77,1289.41
1057.23,1320.26
1058.68,1336.08
1060.13,1357.88
1061.58,1341.7
1063.03,1353.86
1064.49,1380.94
1065.94,1393.22
1067.39,1365.19
1068.84,1358.74
1070.29,1415.88
1071.74,1426.05
1073.2,1430.05
1074.65,1448.36
1076.1,1465.08
1077.55,1477.79
1079,1462.19
1080.46,1453.82
1081.91,1466.83
1083.36,1456.56
1084.81,1521.1
1086.26,1527.89
1087.71,1541.38
1089.17,1521.42
1090.62,1464.1
1092.07,1495.12
1093.52,1530.62
1094.97,1497.42
1096.42,1482.46
1097.88,1508
1099.33,1469.51
1100.78,1465.32
1102.23,1474.35
1103.68,1474.12
1105.14,1450.47
1106.59,1447.08
1108.04,1455.1
1109.49,1441.55
1110.94,1446.67
1112.39,1409.39
1113.85,1422.31
1115.3,1416.61
1116.75,1413.98
1118.2,1412.9
1119.65,1395.53
1121.11,1390.23
1122.56,1376.59
1124.01,1390.31
1125.46,1390.93
1126.91,1368.74
1128.36,1373
1129.82,1369.37
1131.27,1350.04
1132.72,1353.85
1134.17,1327.22
1135.62,1348.27
1137.07,1325.68
1138.53,1317.82
1139.98,1345.47
1141.43,1346.56
1142.88,1312.63
1144.33,1319.92
1145.79,1341.27
1147.24,1362.52
1148.69,1329.88
1150.14,1314.33
1151.59,1335.26
1153.04,1299.87
1154.5,1302.34
1155.95,1317.18
1157.4,1330.82
1158.85,1329.93
1160.3,1325.07
1161.76,1324.1
1163.21,1314.74
1164.66,1312.21
1166.11,1297.05
1167.56,1320.06
1169.01,1326.48
1170.47,1338.73
1171.92,1346.39
1173.37,1332.83
1174.82,1365.55
1176.27,1341.18
1177.72,1341.03
1179.18,1388.55
1180.63,1347.96
1182.08,1345.2
1183.53,1367.03
1184.98,1361.76
1186.44,1357.56
1187.89,1349.64
1189.34,1353.55
1190.79,1358.18
1192.24,1336.44
1193.69,1374.39
1195.15,1391.79
1196.6,1380.66
1198.05,1361.52
1199.5,1370.77
1200.95,1399.17
1202.41,1401.02
1203.86,1391.83
1205.31,1387.34
1206.76,1432.17
1208.21,1422.76
1209.66,1402.64
1211.12,1383.83
1212.57,1403.61
1214.02,1402.01
1215.47,1375.24
1216.92,1400.84
1218.37,1415.38
1219.83,1417.63
1221.28,1424.51
1222.73,1424.33
1224.18,1418.48
1225.63,1437.59
1227.09,1444.29
1228.54,1422.6
1229.99,1404.09
1231.44,1428.2
1232.89,1404.49
1234.34,1449.68
1235.8,1445.25
1237.25,1434.92
1238.7,1410.79
1240.15,1443
1241.6,1484.02
1243.06,1470.74
1244.51,1468.09
1245.96,1479.92
1247.41,1534.88
1248.86,1508.87
1250.31,1480.78
1251.77,1518.12
1253.22,1538.27
1254.67,1539.41
1256.12,1530.4
1257.57,1536.19
1259.02,1563.99
1260.48,1580.48
1261.93,1629.46
1263.38,1602.96
1264.83,1631.17
1266.28,1635.59
1267.74,1669.33
1269.19,1683.61
1270.64,1691.79
1272.09,1735.03
1273.54,1787.97
1274.99,1792.93
1276.45,1786.92
1277.9,1768.37
1279.35,1819.31
1280.8,1880.91
1282.25,1890.73
1283.71,1909.52
1285.16,1913.79
1286.61,1929.54
1288.06,1988.01
1289.51,2029.72
1290.96,2033.53
1292.42,2095.66
1293.87,2180.22
1295.32,2200.17
1296.77,2282.88
1298.22,2354.8
1299.67,2403.05
1301.13,2439.18
1302.58,2516.02
1304.03,2613.7
1305.48,2667.54
1306.93,2747.25
1308.39,2863.29
1309.84,2970.19
1311.29,3077.24
1312.74,3213.47
1314.19,3392.9
1315.64,3543.99
1317.1,3678.86
1318.55,3815.34
1320,3948.26
1321.45,4115.94
1322.9,4337.81
1324.36,4445.31
1325.81,4619.47
1327.26,4766.65
1328.71,4918.96
1330.16,5037.43
1331.61,5126.96
1333.07,5201.69
1334.52,5305.38
1335.97,5362.59
1337.42,5277.83
1338.87,5282.61
1340.33,5192.58
1341.78,5097.76
1343.23,5014.88
1344.68,4869.77
1346.13,4764.51
1347.58,4622.38
1349.04,4412.09
1350.49,4216.47
1351.94,4040.08
1353.39,3826.87
1354.84,3661.71
1356.29,3578.16
1357.75,3416.03
1359.2,3273.21
1360.65,3177.1
1362.1,3010.05
1363.55,2870.9
1365.01,2777.88
1366.46,2691.13
1367.91,2609.6
1369.36,2551.85
1370.81,2493.35
1372.26,2436.09
1373.72,2385.69
1375.17,2342.17
1376.62,2240.58
1378.07,2218.54
1379.52,2172.26
1380.98,2149.8
1382.43,2139.5
1383.88,2098.59
1385.33,2043.73
1386.78,2044.1
1388.23,2049.67
1389.69,1997.42
1391.14,1983.67
1392.59,2040.11
1394.04,2048.36
1395.49,1972.54
1396.94,1968.94
1398.4,1936.74
1399.85,1940.25
1401.3,1950.76
1402.75,1928.18
1404.2,1919.39
1405.66,1915.08
1407.11,1943.25
1408.56,1968.74
1410.01,1947.85
1411.46,1957.11
1412.91,1908.48
1414.37,1940.9
1415.82,1945.84
1417.27,1930.36
1418.72,1917.58
1420.17,1920.71
1421.63,1942.22
1423.08,1929.74
1424.53,1955.69
1425.98,1922.51
1427.43,1937.34
1428.88,1933.17
1430.34,1988.48
1431.79,2000.17
1433.24,1993.27
1434.69,2007.48
1436.14,2025.22
1437.59,2054.98
1439.05,2044.24
1440.5,2045.57
1441.95,2084.78
1443.4,2107.91
1444.85,2106.55
1446.31,2059.29
1447.76,2097.18
1449.21,2121.52
1450.66,2149.09
1452.11,2141.26
1453.56,2138.04
1455.02,2159.78
1456.47,2197.62
1457.92,2224.63
1459.37,2256.1
1460.82,2245.61
1462.28,2257.01
1463.73,2357.85
1465.18,2380.88
1466.63,2393.57
1468.08,2384.41
1469.53,2398.93
1470.99,2415.75
1472.44,2437.15
1473.89,2499.86
1475.34,2553.84
1476.79,2565.6
1478.24,2608.68
1479.7,2609.35
1481.15,2711.06
1482.6,2706.24
1484.05,2766.11
1485.5,2803.42
1486.96,2814.82
1488.41,2865.44
1489.86,2932.9
1491.31,2962.77
1492.76,3027.98
1494.21,3093.06
1495.67,3161.25
1497.12,3202.45
1498.57,3283.84
1500.02,3332.91
1501.47,3449.61
1502.93,3473.83
1504.38,3584.46
1505.83,3698.25
1507.28,3843.99
1508.73,3955.12
1510.18,4080.49
1511.64,4206.43
1513.09,4354.06
1514.54,4541.95
1515.99,4714.23
1517.44,4888.91
1518.89,5019.72
1520.35,5233.43
1521.8,5444.12
1523.25,5762.75
1524.7,6044.8
1526.15,6476.67
1527.61,6783.81
1529.06,7266.51
1530.51,7771.7
1531.96,8343.83
1533.41,9003.63
1534.86,9634.85
1536.32,10398.7
1537.77,11354.9
1539.22,12404.4
1540.67,13597.3
1542.12,14826.7
1543.58,16199.1
1545.03,17671.6
1546.48,19281.5
1547.93,21050.3
1549.38,22912.8
1550.83,24879
1552.29,26997.5
1553.74,29113.2
1555.19,31126.8
1556.64,33180.9
1558.09,35324.3
1559.54,37211.2
1561,39143.1
1562.45,40720
1563.9,41872.3
1565.35,42542.8
1566.8,44319
1568.26,42568.7
1569.71,41857.1
1571.16,40912.1
1572.61,39433
1574.06,37517.2
1575.51,35229
1576.97,32916.9
1578.42,30567.9
1579.87,28258.8
1581.32,25971.2
1582.77,23746.5
1584.23,21730.9
1585.68,19639.6
1587.13,17851
1588.58,16385.2
1590.03,14938.7
1591.48,13642.7
1592.94,12650.9
1594.39,11811.6
1595.84,10941.7
1597.29,10254.3
1598.74,9585.11
1600.2,9001.47
1601.65,8589.95
1603.1,8175.37
1604.55,7733.09
1606,7397.28
1607.45,7044.45
1608.91,6685.86
1610.36,6350.28
1611.81,5984.09
1613.26,5827.57
1614.71,5530.68
1616.16,5294.27
1617.62,5008.42
1619.07,4783.24
1620.52,4612.53
1621.97,4396.32
1623.42,4189.18
1624.88,4069.72
1626.33,3933.87
1627.78,3775.7
1629.23,3588.97
1630.68,3472.63
1632.13,3409.37
1633.59,3335.22
1635.04,3221.41
1636.49,3138.93
1637.94,3067.52
1639.39,3002.19
1640.85,2946.3
1642.3,2935.71
1643.75,2853.16
1645.2,2765.76
1646.65,2730.99
1648.1,2681.16
1649.56,2595.99
1651.01,2555.34
1652.46,2528.95
1653.91,2470.67
1655.36,2427.34
1656.81,2409.03
1658.27,2391.77
1659.72,2377.88
1661.17,2336.97
1662.62,2267.4
1664.07,2252.68
1665.53,2209.3
1666.98,2211.3
1668.43,2209.15
1669.88,2141.17
1671.33,2111.16
1672.78,2090.73
1674.24,2063.52
1675.69,2051.47
1677.14,2013.09
1678.59,2008.92
1680.04,2003.42
1681.5,1993.23
1682.95,1956.97
1684.4,1940.1
1685.85,1907.25
1687.3,1922
1688.75,1879.46
1690.21,1877.8
1691.66,1846.8
1693.11,1846.2
1694.56,1822.39
1696.01,1806.65
1697.46,1812.47
1698.92,1804.17
1700.37,1807.83
1701.82,1807.95
1703.27,1788.04
1704.72,1776.23
1706.18,1776.44
1707.63,1781.86
1709.08,1766.27
1710.53,1742.86
1711.98,1753.39
1713.43,1762.6
1714.89,1750.04
1716.34,1716.25
1717.79,1695.42
1719.24,1679.3
1720.69,1704.88
1722.15,1702.06
1723.6,1724.43
1725.05,1693.99
1726.5,1684.51
1727.95,1683.47
1729.4,1681.6
1730.86,1714.9
1732.31,1705.75
1733.76,1689.25
1735.21,1681.11
1736.66,1680.14
1738.11,1668.49
1739.57,1676.28
1741.02,1649.63
1742.47,1654.82
1743.92,1663.09
1745.37,1648.08
1746.83,1652.31
1748.28,1639.98
1749.73,1621.47
1751.18,1658.66
1752.63,1612.63
1754.08,1565.08
1755.54,1597.23
1756.99,1625.55
1758.44,1605.07
1759.89,1555.98
1761.34,1576.37
1762.8,1596.85
1764.25,1583.09
1765.7,1569.85
1767.15,1575.47
1768.6,1550.62
1770.05,1519.47
1771.51,1532.03
1772.96,1539.49
1774.41,1522.28
1775.86,1538.26
1777.31,1523.27
1778.76,1499.49
1780.22,1516.42
1781.67,1495.87
1783.12,1481.15
1784.57,1469.23
1786.02,1440.54
1787.48,1502.81
1788.93,1430.44
1790.38,1471.9
1791.83,1458.5
1793.28,1476.6
1794.73,1447.2
1796.19,1443.65
1797.64,1454.39
1799.09,1440.61
1800.54,1429.53
1801.99,1453.97
1803.45,1450.75
1804.9,1408.59
1806.35,1405.89
1807.8,1415.73
1809.25,1407.2
1810.7,1435.8
1812.16,1431.02
1813.61,1401.57
1815.06,1400.26
1816.51,1396.09
1817.96,1382.83
1819.41,1399.38
1820.87,1425.21
1822.32,1428.5
1823.77,1434.96
1825.22,1453.82
1826.67,1449.31
1828.13,1444.24
1829.58,1487.14
1831.03,1414.3
1832.48,1405.55
1833.93,1407.39
1835.38,1421.72
1836.84,1410.69
1838.29,1450.34
1839.74,1457.28
1841.19,1463.84
1842.64,1474.91
1844.1,1454.39
1845.55,1460.56
1847,1478.22
1848.45,1499.66
1849.9,1539.38
1851.35,1546.43
1852.81,1525.31
1854.26,1508.6
1855.71,1513.68
1857.16,1520.95
1858.61,1517.25
1860.07,1513.45
1861.52,1532.92
1862.97,1537.43
1864.42,1528.01
1865.87,1531
1867.32,1535.19
1868.78,1538.19
1870.23,1528.78
1871.68,1553.3
1873.13,1512.78
1874.58,1522.96
1876.03,1505.87
1877.49,1484.49
1878.94,1477.78
1880.39,1455.29
1881.84,1457.44
1883.29,1479.36
1884.75,1504.61
1886.2,1430.29
1887.65,1457.72
1889.1,1476.16
1890.55,1447.63
1892,1436.83
1893.46,1437.02
1894.91,1423.48
1896.36,1403.21
1897.81,1375.88
1899.26,1351.7
1900.72,1384.54
1902.17,1397.1
1903.62,1379.6
1905.07,1378.36
1906.52,1363.56
1907.97,1367.26
1909.43,1351.35
1910.88,1362.83
1912.33,1347.81
1913.78,1343.5
1915.23,1341.26
1916.68,1325.47
1918.14,1299.16
1919.59,1312.47
1921.04,1329.83
1922.49,1332.68
1923.94,1358.92
1925.4,1342.45
1926.85,1314.31
1928.3,1272.42
1929.75,1328
1931.2,1324.26
1932.65,1308.02
1934.11,1334.83
1935.56,1339.18
1937.01,1321.62
1938.46,1298.45
1939.91,1277.12
1941.37,1293.55
1942.82,1325.56
1944.27,1344.72
1945.72,1347.75
1947.17,1333.41
1948.62,1340.47
1950.08,1339.99
1951.53,1314.46
1952.98,1352.74
1954.43,1345.16
1955.88,1335.84
1957.33,1339.43
1958.79,1335.72
1960.24,1335.22
1961.69,1336.36
1963.14,1351.39
1964.59,1351.14
1966.05,1330.04
1967.5,1337.47
1968.95,1368.46
1970.4,1355.43
1971.85,1335.98
1973.3,1329.73
1974.76,1324.49
1976.21,1328.86
1977.66,1365.24
1979.11,1391.16
1980.56,1385.29
1982.02,1368.65
1983.47,1368.86
1984.92,1379.31
1986.37,1369.74
1987.82,1402.59
1989.27,1394
1990.73,1385.62
1992.18,1399.29
1993.63,1396.38
1995.08,1378.99
1996.53,1417.6
1997.98,1402.44
1999.44,1410.34
2000.89,1405.12
2002.34,1370.96
2003.79,1429.54
2005.24,1412.57
2006.7,1382.41
2008.15,1376.91
2009.6,1367.31
2011.05,1345.97
2012.5,1367.86
2013.95,1366.22
2015.41,1301.85
2016.86,1432.16
2018.31,1350.28
2019.76,1323.27
2021.21,1367.38
2022.67,1352
2024.12,1339.03
2025.57,1337.32
2027.02,1362.05
2028.47,1348.71
2029.92,1430.53
2031.38,1353.25
2032.83,1330.3
2034.28,1299.03
2035.73,1302.11
2037.18,1324.75
2038.63,1277.83
2040.09,1293.63
2041.54,1304.57
2042.99,1285.4
2044.44,1277.63
2045.89,1287.68
2047.35,1270.04
2048.8,1285.64
2050.25,1257.18
2051.7,1247.04
2053.15,1246.3
2054.6,1241.98
2056.06,1243.86
2057.51,1254.44
2058.96,1251.46
2060.41,1214.89
2061.86,1218.81
2063.32,1222.12
2064.77,1261.38
2066.22,1239.2
2067.67,1227.17
2069.12,1236.92
2070.57,1230.61
2072.03,1217.49
2073.48,1209.68
2074.93,1192.08
2076.38,1193.24
2077.83,1194.92
2079.28,1200.69
2080.74,1192.78
2082.19,1202.31
2083.64,1196.15
2085.09,1187.23
2086.54,1198.47
2088,1208.25
2089.45,1200.42
2090.9,1196.44
2092.35,1195.03
2093.8,1188.02
2095.25,1176.03
2096.71,1182.35
2098.16,1182.2
2099.61,1183.54
2101.06,1168.88
2102.51,1172.84
2103.97,1206.46
2105.42,1226.74
2106.87,1203.51
2108.32,1198.13
2109.77,1188.61
2111.22,1177.28
2112.68,1202.82
2114.13,1227.81
2115.58,1195.62
2117.03,1194.26
2118.48,1238.49
2119.94,1239.84
2121.39,1220.12
2122.84,1207
2124.29,1213.72
2125.74,1231.84
2127.19,1236.43
2128.65,1192.01
2130.1,1210.16
2131.55,1249.04
2133,1223.66
2134.45,1210.71
2135.9,1231.46
2137.36,1212.45
2138.81,1201.68
2140.26,1222.96
2141.71,1251.23
2143.16,1222.05
2144.62,1237.68
2146.07,1238.61
2147.52,1232.55
2148.97,1249
2150.42,1243.79
2151.87,1257.32
2153.33,1274.2
2154.78,1254.65
2156.23,1248.92
2157.68,1253.42
2159.13,1265.05
2160.58,1268.27
2162.04,1271.71
2163.49,1252.05
2164.94,1245.24
2166.39,1258.66
2167.84,1279.61
2169.3,1269.24
2170.75,1254.3
2172.2,1249.68
2173.65,1285.57
2175.1,1278.77
2176.55,1266.62
2178.01,1285.24
2179.46,1289.11
2180.91,1266.19
2182.36,1267.99
2183.81,1276.48
2185.27,1273.95
2186.72,1322.67
2188.17,1334.44
2189.62,1332.45
2191.07,1320.57
2192.52,1282.75
2193.98,1304.41
2195.43,1270.34
2196.88,1287.43
2198.33,1335.95
2199.78,1327.64
2201.24,1365.99
2202.69,1319.88
2204.14,1313.23
2205.59,1322.33
2207.04,1341.37
2208.49,1295.96
2209.95,1307.87
2211.4,1337.56
2212.85,1296.3
2214.3,1320.48
2215.75,1263.74
2217.2,1295.65
2218.66,1318.58
2220.11,1302.07
2221.56,1331.08
2223.01,1333.35
2224.46,1323.08
2225.92,1281.72
2227.37,1281.72
2228.82,1288.33
2230.27,1337.7
2231.72,1342.37
2233.17,1313.65
2234.63,1350.52
2236.08,1339.54
2237.53,1310.58
2238.98,1338.82
2240.43,1344.13
2241.89,1359.8
2243.34,1352.2
2244.79,1351.28
2246.24,1372.9
2247.69,1377.92
2249.14,1367.34
2250.6,1361.39
2252.05,1353.79
2253.5,1363.42
2254.95,1358.05
2256.4,1344.44
2257.85,1380.04
2259.31,1403.96
2260.76,1371.86
2262.21,1377.7
2263.66,1372.28
2265.11,1378.15
2266.57,1398.79
2268.02,1391.48
2269.47,1382.77
2270.92,1378.9
2272.37,1365.98
2273.82,1409.1
2275.28,1390.63
2276.73,1379.74
2278.18,1385.86
2279.63,1387.69
2281.08,1409.95
2282.54,1425.42
2283.99,1412.97
2285.44,1458.56
2286.89,1446.97
2288.34,1442.25
2289.79,1452.82
2291.25,1460.77
2292.7,1447.23
2294.15,1431.45
2295.6,1455.1
2297.05,1442.76
2298.5,1465.72
2299.96,1482.59
2301.41,1501.57
2302.86,1463.76
2304.31,1436.88
2305.76,1524.47
2307.22,1531.96
2308.67,1493.54
2310.12,1483.06
2311.57,1478.58
2313.02,1533.21
2314.47,1561.27
2315.93,1515
2317.38,1517.13
2318.83,1539.43
2320.28,1487.85
2321.73,1500.13
2323.19,1534.37
2324.64,1561.49
2326.09,1568.17
2327.54,1573.81
2328.99,1558
2330.44,1564.9
2331.9,1576.81
2333.35,1575.76
2334.8,1594.14
2336.25,1599.94
2337.7,1604.79
2339.16,1599.86
2340.61,1600.13
2342.06,1631.8
2343.51,1645.17
2344.96,1642.4
2346.41,1663.75
2347.87,1637.6
2349.32,1649.87
2350.77,1701.74
2352.22,1710.1
2353.67,1716.2
2355.12,1719.81
2356.58,1723.71
2358.03,1709.63
2359.48,1747.31
2360.93,1706.67
2362.38,1736
2363.84,1760.41
2365.29,1765.36
2366.74,1761.84
2368.19,1790.59
2369.64,1831.72
2371.09,1865.07
2372.55,1900.57
2374,1902.86
2375.45,1945.84
2376.9,1945.3
2378.35,1962.11
2379.8,2015.22
2381.26,2010.48
2382.71,2027.53
2384.16,2031.42
2385.61,2064.75
2387.06,2096.11
2388.52,2086.37
2389.97,2168.23
2391.42,2207.8
2392.87,2250.68
2394.32,2284.89
2395.77,2356.87
2397.23,2323.43
2398.68,2340.24
2400.13,2419.46
2401.58,2480.36
2403.03,2539.22
2404.49,2550.95
2405.94,2597.18
2407.39,2666.4
2408.84,2696.58
2410.29,2736.69
2411.74,2767.12
2413.2,2805.06
2414.65,2829.75
2416.1,2922.13
2417.55,2980.24
2419,2977.42
2420.46,2982.24
2421.91,2996.71
2423.36,2954.12
2424.81,2982.88
2426.26,3074.09
2427.71,3058.77
2429.17,3067.49
2430.62,3141.28
2432.07,3101.11
2433.52,3108.84
2434.97,3022.47
2436.42,3049.77
2437.88,3086.62
2439.33,3049.97
2440.78,3039.48
2442.23,3000.04
2443.68,2967.9
2445.14,2996.25
2446.59,2954.03
2448.04,2970.46
2449.49,2967.9
2450.94,2932.92
2452.39,2882.06
2453.85,2873.49
2455.3,2847.61
2456.75,2833.25
2458.2,2810.91
2459.65,2796.79
2461.1,2774.69
2462.56,2744.7
2464.01,2761.52
2465.46,2732.9
2466.91,2672.83
2468.36,2695.86
2469.82,2638.58
2471.27,2722.57
2472.72,2708.83
2474.17,2653.26
2475.62,2628.02
2477.07,2599.34
2478.53,2588.78
2479.98,2564.01
2481.43,2575.52
2482.88,2630.83
2484.33,2633.64
2485.79,2637.39
2487.24,2584.87
2488.69,2583.98
2490.14,2576.57
2491.59,2610.6
2493.04,2604.48
2494.5,2602.01
2495.95,2574.72
2497.4,2612.2
2498.85,2584.15
2500.3,2631.01
2501.76,2651.19
2503.21,2639.14
2504.66,2680.71
2506.11,2652.99
2507.56,2629.27
2509.01,2611.95
2510.47,2707.44
2511.92,2681.95
2513.37,2682.95
2514.82,2739.51
2516.27,2752.61
2517.72,2773.63
2519.18,2763.81
2520.63,2737.8
2522.08,2777.17
2523.53,2815.69
2524.98,2838.61
2526.44,2805.05
2527.89,2843.93
2529.34,2894.36
2530.79,2945.66
2532.24,2963.74
2533.69,2972.37
2535.15,3015.95
2536.6,3003.09
2538.05,3131.54
2539.5,3096.11
2540.95,3129.57
2542.41,3167.81
2543.86,3215.47
2545.31,3254.2
2546.76,3288.51
2548.21,3265.97
2549.66,3329.34
2551.12,3387.67
2552.57,3490.26
2554.02,3548.07
2555.47,3555.15
2556.92,3590.19
2558.37,3640.56
2559.83,3717.34
2561.28,3755.63
2562.73,3796.2
2564.18,3941.2
2565.63,4032.5
2567.09,4061.65
2568.54,4126.77
2569.99,4198.85
2571.44,4292.69
2572.89,4348.9
2574.34,4445.12
2575.8,4462.42
2577.25,4689.43
2578.7,4839.36
2580.15,4915.77
2581.6,5000.57
2583.06,5100.41
2584.51,5214.2
2585.96,5380.19
2587.41,5584.25
2588.86,5720.62
2590.31,5851.02
2591.77,5975.48
2593.22,6207.03
2594.67,6373.61
2596.12,6571.15
2597.57,6832.94
2599.02,7037.67
2600.48,7250.35
2601.93,7490.48
2603.38,7732.14
2604.83,8067.49
2606.28,8326.33
2607.74,8688.11
2609.19,8926.73
2610.64,9294.12
2612.09,9560
2613.54,9981.96
2614.99,10398.8
2616.45,10821.7
2617.9,11275.5
2619.35,11737.2
2620.8,12172.1
2622.25,12695
2623.71,13202.5
2625.16,13791.2
2626.61,14320.3
2628.06,14844.3
2629.51,15577.6
2630.96,16105
2632.42,16844.3
2633.87,17430.4
2635.32,18083.5
2636.77,18716.9
2638.22,19435.4
2639.68,20044
2641.13,20549.5
2642.58,21145.7
2644.03,21818.3
2645.48,22378.7
2646.93,23050.9
2648.39,23379.5
2649.84,24006.6
2651.29,24438.7
2652.74,24771.8
2654.19,25067.2
2655.64,25511.5
2657.1,25657.3
2658.55,25831.6
2660,25994.9
2661.45,25948.4
2662.9,25771.8
2664.36,25630.8
2665.81,25480.4
2667.26,25135.3
2668.71,24960.7
2670.16,24692.7
2671.61,24337.3
2673.07,23749.7
2674.52,23236.8
2675.97,22488.3
2677.42,21993
2678.87,21364.4
2680.32,20821.6
2681.78,20107.4
2683.23,19392.4
2684.68,18701
2686.13,18064.8
2687.58,17330.7
2689.04,16785.1
2690.49,16063.3
2691.94,15457
2693.39,14789.9
2694.84,14142.4
2696.29,13552.5
2697.75,12954.5
2699.2,12483.7
2700.65,11936.8
2702.1,11367.4
2703.55,10874.4
2705.01,10365.1
2706.46,10012.1
2707.91,9542.72
2709.36,9170.36
2710.81,8757.99
2712.26,8343.06
2713.72,8079.77
2715.17,7788.45
2716.62,7463.69
2718.07,7114.7
2719.52,6896.67
2720.98,6668.08
2722.43,6377.57
2723.88,6168.99
2725.33,5983.05
2726.78,5746.88
2728.23,5530.09
2729.69,5441.98
2731.14,5219.52
2732.59,5046.95
2734.04,4933.52
2735.49,4791.51
2736.94,4633.22
2738.4,4513.57
2739.85,4389.07
2741.3,4223.76
2742.75,4174.32
2744.2,4142.76
2745.66,3945.75
2747.11,3854.96
2748.56,3784.05
2750.01,3732.3
2751.46,3671.7
2752.91,3621.12
2754.37,3511.6
2755.82,3453.11
2757.27,3378.64
2758.72,3329.58
2760.17,3196.79
2761.63,3193.34
2763.08,3157.44
2764.53,3061.77
2765.98,3069.34
2767.43,3018.2
2768.88,2913.94
2770.34,2920.12
2771.79,2853.07
2773.24,2800.69
2774.69,2761.69
2776.14,2735.84
2777.59,2768.98
2779.05,2672.21
2780.5,2646.78
2781.95,2632.49
2783.4,2645.93
2784.85,2614.75
2786.31,2556.41
2787.76,2513.97
2789.21,2512.23
2790.66,2474.1
2792.11,2442.81
2793.56,2396.96
2795.02,2392.49
2796.47,2383.7
2797.92,2380.25
2799.37,2346.65
2800.82,2347.6
2802.28,2342.1
2803.73,2284.18
2805.18,2268.11
2806.63,2271.53
2808.08,2239.64
2809.53,2191.19
2810.99,2205.71
2812.44,2200.9
2813.89,2138.55
2815.34,2147.28
2816.79,2116.61
2818.24,2137.92
2819.7,2135.57
2821.15,2116.57
2822.6,2086.89
2824.05,2074.1
2825.5,2067.3
2826.96,2088.13
2828.41,2059.21
2829.86,2078.63
2831.31,2009.47
2832.76,1985.97
2834.21,2011.31
2835.67,2024.66
2837.12,2020.28
2838.57,2018.14
2840.02,1961.56
2841.47,1995.88
2842.93,1923.22
2844.38,1950.83
2845.83,1932.76
2847.28,1910.56
2848.73,1898.57
2850.18,1929.45
2851.64,1921.87
2853.09,1932.22
2854.54,1920.69
2855.99,1903.34
2857.44,1874.78
2858.9,1920.19
2860.35,1892.03
2861.8,1876.04
2863.25,1907.79
2864.7,1879.03
2866.15,1885.94
2867.61,1904.19
2869.06,1920.83
2870.51,1908.08
2871.96,1990.33
2873.41,1929.24
2874.86,1929.18
2876.32,1879.39
2877.77,1901.72
2879.22,1887.25
2880.67,1912.33
2882.12,1944.53
2883.58,1939.6
2885.03,1933.69
2886.48,1920.79
2887.93,1867.6
2889.38,1899.7
2890.83,1882.38
2892.29,1949.55
2893.74,1919.71
2895.19,1890.12
2896.64,1882.93
2898.09,1883.35
2899.54,1890.17
2901,1868.38
2902.45,1870.1
2903.9,1950.32
2905.35,1872.57
2906.8,1910.34
2908.26,1912.23
2909.71,1903.89
2911.16,1872.45
2912.61,1854.71
2914.06,1829.9
2915.51,1846.46
2916.97,1824.12
2918.42,1845.97
2919.87,1832.33
2921.32,1839.39
2922.77,1810.3
2924.23,1795.5
2925.68,1773.37
2927.13,1775.49
2928.58,1810.84
2930.03,1764.7
2931.48,1763.03
2932.94,1710.59
2934.39,1733.73
2935.84,1719
2937.29,1706.11
2938.74,1674.97
2940.2,1684.67
2941.65,1646.73
2943.1,1598.62
2944.55,1607.54
2946,1615.58
2947.45,1561.44
2948.91,1537.79
2950.36,1554.89
2951.81,1571.57
2953.26,1514.13
2954.71,1527.14
2956.16,1547.39
2957.62,1514.69
2959.07,1485.73
2960.52,1497.55
2961.97,1464.18
2963.42,1460.92
2964.88,1411.66
2966.33,1416.25
2967.78,1448.41
2969.23,1425.41
2970.68,1407.82
2972.13,1415.72
2973.59,1380.55
2975.04,1372.18
2976.49,1389.08
2977.94,1379
2979.39,1366.19
2980.84,1358.69
2982.3,1362.64
2983.75,1335.55
2985.2,1328.47
2986.65,1302.61
2988.1,1333.69
2989.56,1334.86
2991.01,1329.88
2992.46,1339.66
2993.91,1320.91
2995.36,1305.21
2996.81,1285.38
2998.27,1293.45
2999.72,1299.42
3001.17,1270.03
3002.62,1265.63
3004.07,1255.4
3005.53,1298.32
3006.98,1285.37
3008.43,1266.83
3009.88,1269.31
3011.33,1262.95
3012.78,1267.95
3014.24,1267.69
3015.69,1220.36
3017.14,1251.2
3018.59,1240.28
3020.04,1228.58
3021.5,1251.4
3022.95,1240.31
3024.4,1237.22
3025.85,1253.99
3027.3,1249.49
3028.75,1223.35
3030.21,1282.56
3031.66,1216.21
3033.11,1243.16
3034.56,1256.7
3036.01,1228
3037.46,1230.28
3038.92,1237.75
3040.37,1216.79
3041.82,1235.23
3043.27,1253.94
3044.72,1209.17
3046.18,1224.48
3047.63,1233.12
3049.08,1238.99
3050.53,1242.75
3051.98,1241.06
3053.43,1233.81
3054.89,1233.4
3056.34,1236.6
3057.79,1238.31
3059.24,1262.64
3060.69,1255.86
3062.15,1251.72
3063.6,1249.04
3065.05,1257.68
3066.5,1274.91
3067.95,1260.92
3069.4,1241.35
3070.86,1256.24
3072.31,1264.87
3073.76,1266.22
3075.21,1306.57
3076.66,1264.11
3078.11,1313.55
3079.57,1310.43
3081.02,1311.42
3082.47,1311.01
3083.92,1330.49
3085.37,1335.32
3086.83,1363.28
3088.28,1341.93
3089.73,1346.49
3091.18,1347.01
3092.63,1382.17
3094.08,1419.51
3095.54,1414.16
3096.99,1422.98
3098.44,1475.55
3099.89,1459.61
3101.34,1459.28
3102.8,1521.84
3104.25,1558.57
3105.7,1578.76
3107.15,1606.83
3108.6,1596.9
3110.05,1607.44
3111.51,1630.18
3112.96,1654.03
3114.41,1731.34
3115.86,1719.23
3117.31,1733.44
3118.76,1707.44
3120.22,1772.93
3121.67,1804.57
3123.12,1803.1
3124.57,1838.3
3126.02,1887.05
3127.48,1877.11
3128.93,1985.09
3130.38,1960.72
3131.83,1945.4
3133.28,1959.48
3134.73,2000.98
3136.19,1980.63
3137.64,1991.4
3139.09,1967.23
3140.54,2033.21
3141.99,2043.49
3143.45,2057.06
3144.9,2033.85
3146.35,2056.57
3147.8,2076.11
3149.25,2113.27
3150.7,2084.25
3152.16,2144.93
3153.61,2127.41
3155.06,2083.89
3156.51,2101.6
3157.96,2112.69
3159.42,2141.01
3160.87,2075.14
3162.32,2126.95
3163.77,2137.36
3165.22,2132.72
3166.67,2165.43
3168.13,2169.83
3169.58,2131.46
3171.03,2111.11
3172.48,2158.11
3173.93,2153.84
3175.38,2196.59
3176.84,2243.07
3178.29,2240.71
3179.74,2288.29
3181.19,2292.01
3182.64,2318.48
3184.1,2384.05
3185.55,2345.66
3187,2392.99
3188.45,2408.67
3189.9,2400.18
3191.35,2463.79
3192.81,2446.42
3194.26,2448.68
3195.71,2488.72
3197.16,2491.12
3198.61,2465.64
3200.06,2540.72
3201.52,2529.18
3202.97,2535.48
3204.42,2480
3205.87,2506.33
3207.32,2518.02
3208.78,2473.94
3210.23,2510.68
3211.68,2400.49
3213.13,2331.56
3214.58,2314.5
3216.03,2265.87
3217.49,2251.11
3218.94,2199.17
3220.39,2154.26
3221.84,2099.19
3223.29,2061.91
3224.75,1969.21
3226.2,1926.45
3227.65,1906.15
3229.1,1848.92
3230.55,1790.41
3232,1755.55
3233.46,1698.63
3234.91,1649.83
3236.36,1617.65
3237.81,1621.63
3239.26,1521.67
3240.72,1457.68
3242.17,1444.4
3243.62,1443.92
3245.07,1404.03
3246.52,1360.68
3247.97,1307.35
3249.43,1346.36
3250.88,1265.63
3252.33,1231.16
3253.78,1221.27
3255.23,1204.42
3256.68,1178.79
3258.14,1226.06
3259.59,1181.83
3261.04,1160.1
3262.49,1134.14
3263.94,1132.69
3265.4,1109.37
3266.85,1074.83
3268.3,1115.15
3269.75,1112.22
3271.2,1078.51
3272.65,1088.67
3274.11,1070.46
3275.56,1065.01
3277.01,1058.46
3278.46,1051.97
3279.91,1034.1
3281.37,1035.77
3282.82,1054.29
3284.27,1062.95
3285.72,1001.38
3287.17,1026.9
3288.62,1020.27
3290.08,1011.75
3291.53,1000.1
3292.98,978.054
3294.43,1017.55
3295.88,993.069
3297.33,1006.46
3298.79,1005.09
3300.24,1028.63
3301.69,1004.99
3303.14,1006
3304.59,986.646
3306.05,1059.14
3307.5,1006.15
3308.95,995.301
3310.4,999.462
3311.85,984.564
3313.3,983.859
3314.76,975.821
3316.21,995.984
3317.66,988.537
3319.11,967.032
3320.56,986.151
3322.02,971.017
3323.47,978.023
3324.92,986.405
3326.37,993.827
3327.82,993.3
3329.27,984.739
3330.73,976.744
3332.18,985.676
3333.63,997.224
3335.08,952.226
3336.53,946.166
3337.98,994.926
3339.44,960.436
3340.89,961.852
3342.34,971.584
3343.79,983.956
3345.24,971.284
3346.7,964.423
3348.15,954.798
3349.6,963.862
3351.05,969.006
3352.5,937.806
3353.95,974.252
3355.41,953.663
3356.86,918.439
3358.31,943.984
3359.76,980.322
3361.21,961.92
3362.67,971.2
3364.12,949.047
3365.57,957.319
3367.02,965.186
3368.47,942.757
3369.92,958.711
3371.38,973.391
3372.83,958.991
3374.28,916.63
3375.73,930.375
3377.18,957.064
3378.63,965.066
3380.09,974.646
3381.54,929.343
3382.99,928.593
3384.44,928.202
3385.89,920.015
3387.35,946.76
3388.8,924.648
3390.25,937.167
3391.7,923.015
3393.15,918.17
3394.6,932.417
3396.06,944.013
3397.51,950.193
3398.96,961.798
3400.41,932.928
3401.86,927.452
3403.32,939.892
3404.77,947.392
3406.22,970.647
3407.67,921.676
3409.12,934.624
3410.57,924.06
3412.03,915.238
3413.48,895.68
3414.93,948.094
3416.38,944.379
3417.83,927.315
3419.28,924.181
3420.74,968.564
3422.19,920.124
3423.64,952.695
3425.09,934.615
3426.54,916.728
3428,888.911
3429.45,933.87
3430.9,940.803
3432.35,948.512
3433.8,949.485
3435.25,907.28
3436.71,912.821
3438.16,912.768
3439.61,945.695
3441.06,939.142
3442.51,912.905
3443.97,901.831
3445.42,891.26
3446.87,935.252
3448.32,907.621
3449.77,899.466
3451.22,906.502
3452.68,949.808
3454.13,889.299
3455.58,893.721
3457.03,939.961
3458.48,916.012
3459.94,918.209
3461.39,898.077
3462.84,915.652
3464.29,923.282
3465.74,919.227
3467.19,919.682
3468.65,884.943
3470.1,929.832
3471.55,915.246
3473,889.536
3474.45,867.534
3475.9,920.497
3477.36,941.791
3478.81,948.256
3480.26,934.319
3481.71,892.214
3483.16,916.136
3484.62,873.194
3486.07,927.738
3487.52,902.182
3488.97,881.308
3490.42,909.43
3491.87,916.657
3493.33,929.205
3494.78,908.208
3496.23,908.388
3497.68,911.927
3499.13,910.242
3500.58,923.606
3502.04,943.174
3503.49,908.313
3504.94,886.255
3506.39,875.592
3507.84,919.202
3509.3,950.942
3510.75,954.97
3512.2,904.763
3513.65,907.528
3515.1,925.296
3516.55,912.147
3518.01,927.167
3519.46,917.225
3520.91,911.352
3522.36,908.743
3523.81,913.885
3525.27,915.194
3526.72,894.479
3528.17,922.344
3529.62,903.283
3531.07,919.175
3532.52,930.47
3533.98,923.334
3535.43,936.562
3536.88,920.537
3538.33,883.712
3539.78,913.665
3541.24,921.687
3542.69,897.721
3544.14,923.639
3545.59,929.117
3547.04,909.853
3548.49,899.414
3549.95,919.261
3551.4,900.802
3552.85,886.363
3554.3,891.28
3555.75,925.692
3557.2,935.809
3558.66,902.506
3560.11,895.459
3561.56,905.272
3563.01,907.028
3564.46,912.669
3565.92,912.529
3567.37,904.753
3568.82,908.493
3570.27,910.25
3571.72,888.269
3573.17,898.295
3574.63,916.841
3576.08,911.949
3577.53,934.164
3578.98,871.559
3580.43,896.294
3581.89,889.765
3583.34,892.309
3584.79,879.085
3586.24,920.439
3587.69,892.353
3589.14,917.093
3590.6,919.113
3592.05,895.01
3593.5,897.316
3594.95,889.701
3596.4,879.312
3597.85,880.259
3599.31,911.893
3600.76,916.056
3602.21,885.068
3603.66,914.411
3605.11,860.503
3606.57,912.952
3608.02,909.565
3609.47,901.125
3610.92,908.121
3612.37,935.135
3613.82,897.436
3615.28,902.728
3616.73,882.548
3618.18,935.639
3619.63,880.402
3621.08,919.235
3622.54,908.767
3623.99,917.573
3625.44,925.524
3626.89,914.219
3628.34,886.911
3629.79,893.573
3631.25,896.988
3632.7,907.112
3634.15,896.686
3635.6,890.473
3637.05,881.495
3638.5,906.096
3639.96,896.782
3641.41,909.227
3642.86,902.019
3644.31,885.659
3645.76,908.012
3647.22,897.007
3648.67,897.198
3650.12,881.811
3651.57,888.296
3653.02,872.25
3654.47,905.357
3655.93,942.804
3657.38,907.364
3658.83,917.494
3660.28,906.351
3661.73,906.043
3663.19,890.039
3664.64,917.35
3666.09,870.72
3667.54,901.299
3668.99,906.928
3670.44,929.795
3671.9,905.543
3673.35,894.958
3674.8,934.069
3676.25,920.93
3677.7,879.147
3679.16,905.25
3680.61,906.358
3682.06,928.907
3683.51,906.915
3684.96,915.659
3686.41,915.274
3687.87,904.42
3689.32,919.496
3690.77,884.902
3692.22,923.064
3693.67,897.299
3695.12,904.626
3696.58,912.863
3698.03,921.95
3699.48,922.605
3700.93,921.772
3702.38,904.843
3703.84,932.512
3705.29,913.928
3706.74,890.022
3708.19,914.72
3709.64,957.591
3711.09,934.384
3712.55,924.787
3714,901.953
3715.45,908.686
3716.9,916.884
3718.35,926.529
3719.8,936.905
3721.26,916.458
3722.71,896.473
3724.16,916.055
3725.61,931.253
3727.06,930.737
3728.52,915.21
3729.97,909.911
3731.42,930.543
3732.87,924.443
3734.32,917.028
3735.77,949.289
3737.23,944.236
3738.68,926.842
3740.13,893.361
3741.58,939.012
3743.03,903.235
3744.49,909.656
3745.94,954.38
3747.39,928.333
3748.84,937.805
3750.29,949.813
3751.74,919.956
3753.2,921.594
3754.65,921.505
3756.1,898.997
3757.55,927.711
3759,915.68
3760.46,934.607
3761.91,942.901
3763.36,948.141
3764.81,951.142
3766.26,956.984
3767.71,910.223
3769.17,925.878
3770.62,947.273
3772.07,901.269
3773.52,913.806
3774.97,932.876
3776.42,908.894
3777.88,928.286
3779.33,931.344
3780.78,954.092
3782.23,955.934
3783.68,958.512
3785.14,979.573
3786.59,933.925
3788.04,924.139
3789.49,910.534
3790.94,950.698
3792.39,951.429
3793.85,941.488
3795.3,957.172
3796.75,962.941
3798.2,953.747
3799.65,944.768
3801.1,947.975
3802.56,892.205
3804.01,961.417
3805.46,946.266
3806.91,942.005
3808.36,973.275
3809.82,963.642
3811.27,943.889
3812.72,938.556
3814.17,943.087
3815.62,979.682
3817.07,968.026
3818.53,966.974
3819.98,1010.24
3821.43,934.532
3822.88,936.417
3824.33,937.323
3825.79,965.237
3827.24,1020.36
3828.69,1016.17
3830.14,945.521
3831.59,983.559
3833.04,947.817
3834.5,958.798
3835.95,964.844
3837.4,978.164
3838.85,965.497
3840.3,963.334
3841.76,1026.14
3843.21,923.154
3844.66,958.082
3846.11,959.648
3847.56,936.971
3849.01,1018.04
3850.47,934.455
3851.92,974.332
3853.37,929.685
3854.82,946.433
3856.27,984.283
3857.72,985.465
3859.18,1001.1
3860.63,996.982
3862.08,948.32
3863.53,985.089
3864.98,999.26
3866.44,1033.88
3867.89,978.943
3869.34,967.237
3870.79,992.653
3872.24,997.555
3873.69,982.554
3875.15,997.34
3876.6,961.826
3878.05,976.781
3879.5,1010.44
3880.95,972.948
3882.41,990.223
3883.86,1009.48
3885.31,987.923
3886.76,982.305
3888.21,1000.29
3889.66,1004.37
3891.12,995.513
3892.57,1035.81
3894.02,1031.81
3895.47,1039.94
3896.92,1023.4
3898.37,1022.37
3899.83,1014.1
3901.28,998.808
3902.73,1028.83
3904.18,1014.87
3905.63,1043.05
3907.09,1030.08
3908.54,1033.44
3909.99,1062.2
3911.44,1046.05
3912.89,1049.54
3914.34,1047.6
3915.8,1009.22
3917.25,1036.31
3918.7,1085.69
3920.15,1070.3
3921.6,1104.87
3923.06,1071.04
3924.51,1031.16
3925.96,1089.44
3927.41,1079.95
3928.86,1065.76
3930.31,1127.67
3931.77,1096.08
3933.22,1101.75
3934.67,1106.48
3936.12,1101.11
3937.57,1107.29
3939.02,1112.31
3940.48,1100.69
3941.93,1086.55
3943.38,1097.14
3944.83,1114.37
3946.28,1108.49
3947.74,1113.31
3949.19,1109.18
3950.64,1120.87
3952.09,1096.1
3953.54,1084.88
3954.99,1130.81
3956.45,1122.58
3957.9,1110.36
3959.35,1178.05
3960.8,1128.56
3962.25,1145.8
3963.71,1127.6
3965.16,1133.34
3966.61,1150.97
3968.06,1148.32
3969.51,1158.5
3970.96,1137.02
3972.42,1155.26
3973.87,1159.42
3975.32,1173.02
3976.77,1159.98
3978.22,1172.53
3979.68,1168.87
3981.13,1162.81
3982.58,1198.8
3984.03,1179.77
3985.48,1218.12
3986.93,1167.28
3988.39,1203.65
3989.84,1243.03
3991.29,1203.84
3992.74,1198.31
3994.19,1185.97
3995.64,1218.89
3997.1,1219.3
3998.55,1230.18
4000,1226.63
