-1.1,83.7705
0.3,83.7705
1.77681,83.7705
3.2286,83.7705
4.68039,83.7705
6.13218,83.7705
7.58397,415.33
9.03575,89.5273
10.4875,77.7217
11.9393,79.3773
13.3911,83.3723
14.8429,82.3762
16.2947,78.1556
17.7465,73.3905
19.1983,61.8907
20.6501,53.2286
22.1018,47.2497
23.5536,42.471
25.0054,37.6306
26.4572,34.2355
27.909,31.5044
29.3608,29.6452
30.8126,26.6653
32.2644,26.2828
33.7161,24.052
35.1679,23.1351
36.6197,24.0355
38.0715,27.0694
39.5233,27.1383
40.9751,28.202
42.4269,30.9856
43.8787,33.7177
45.3304,40.2655
46.7822,46.678
48.234,65.5919
49.6858,107.428
51.1376,177.578
52.5894,290.603
54.0412,461.502
55.493,695.196
56.9447,977.555
58.3965,1277.18
59.8483,1573.21
61.3001,1777.2
62.7519,1933.32
64.2037,2075.53
65.6555,2144.52
67.1073,2213.69
68.559,2252.63
70.0108,2282.84
71.4626,2352.81
72.9144,2398.73
74.3662,2428.09
75.818,2457.51
77.2698,2505.8
78.7216,2604.58
80.1733,2677.74
81.6251,2744.67
83.0769,2779.53
84.5287,2796.33
85.9805,2814.44
87.4323,2764.21
88.8841,2683.46
90.3359,2607.06
91.7877,2510.23
93.2394,2410.78
94.6912,2283.97
96.143,2193.36
97.5948,2115.5
99.0466,1996.44
100.498,1954.83
101.95,1870.79
103.402,1807.03
104.854,1766.46
106.306,1746.88
107.757,1727.13
109.209,1714.96
110.661,1691.23
112.113,1655.12
113.564,1638.63
115.016,1625.15
116.468,1594.51
117.92,1566.88
119.372,1548.5
120.823,1521.49
122.275,1471.54
123.727,1429.79
125.179,1392.51
126.631,1377.35
128.082,1378.17
129.534,1324.57
130.986,1300.01
132.438,1288.26
133.889,1258.32
135.341,1237.3
136.793,1227.39
138.245,1203.62
139.697,1183.94
141.148,1156.67
142.6,1151.4
144.052,1124.35
145.504,1098.82
146.956,1085.46
148.407,1079.15
149.859,1080.28
151.311,1051.31
152.763,1027.99
154.215,1026.4
155.666,1026.76
157.118,1005.18
158.57,1038.63
160.022,1047.77
161.473,1041.17
162.925,1047.92
164.377,1089.5
165.829,1104.16
167.281,1114.22
168.732,1128.39
170.184,1109.6
171.636,1060.24
173.088,1022.41
174.54,986.571
175.991,942.781
177.443,930.525
178.895,920.12
180.347,922.619
181.798,909.109
183.25,893.567
184.702,885.626
186.154,884.305
187.606,875.679
189.057,865.828
190.509,857.152
191.961,846.854
193.413,873.577
194.865,867.419
196.316,856
197.768,843.718
199.22,857.163
200.672,843.231
202.124,844.994
203.575,848.565
205.027,828.839
206.479,834.585
207.931,838.609
209.382,848.675
210.834,844.673
212.286,825.665
213.738,822.146
215.19,840.624
216.641,840.213
218.093,840.486
219.545,837.022
220.997,818.819
222.449,814.611
223.9,809.279
225.352,818.851
226.804,824.754
228.256,811.467
229.707,806.76
231.159,815.909
232.611,823.39
234.063,825.952
235.515,841.6
236.966,814.13
238.418,816.475
239.87,827.342
241.322,821.307
242.774,805.761
244.225,799.973
245.677,804.901
247.129,804.385
248.581,801.263
250.033,778.335
251.484,796.026
252.936,789.594
254.388,778.9
255.84,777.104
257.291,802.519
258.743,800.375
260.195,775.325
261.647,779.803
263.099,781.453
264.55,750.253
266.002,743.263
267.454,757.71
268.906,763.488
270.358,757.498
271.809,759.331
273.261,762.88
274.713,747.028
276.165,752.071
277.616,747.154
279.068,722.447
280.52,718.276
281.972,738.037
283.424,727.504
284.875,718.46
286.327,713.908
287.779,722.333
289.231,724.383
290.683,711.559
292.134,697.252
293.586,690.219
295.038,703.737
296.49,692.146
297.941,676.594
299.393,691.013
300.845,690.144
302.297,654.368
303.749,655.311
305.2,656.361
306.652,658.89
308.104,656.536
309.556,651.046
311.008,645.091
312.459,648.306
313.911,636.088
315.363,642.17
316.815,656.884
318.267,621.735
319.718,615.981
321.17,619.346
322.622,620.096
324.074,623.991
325.525,619.789
326.977,621.479
328.429,614.7
329.881,622.107
331.333,626.862
332.784,612.513
334.236,618.361
335.688,598.517
337.14,607.156
338.592,604.598
340.043,584.419
341.495,593.147
342.947,624.209
344.399,603.121
345.85,590.542
347.302,600.672
348.754,613.812
350.206,610.848
351.658,609.547
353.109,597.889
354.561,590.928
356.013,591.745
357.465,577.431
358.917,586.366
360.368,596.367
361.82,593.291
363.272,581.849
364.724,575.789
366.176,580.73
367.627,587.633
369.079,585.588
370.531,584.023
371.983,598.804
373.434,584.321
374.886,584.128
376.338,578.697
377.79,575.624
379.242,581.885
380.693,588.474
382.145,572.096
383.597,561.229
385.049,552.865
386.501,557.514
387.952,566.73
389.404,571.289
390.856,569.449
392.308,569.511
393.759,572.637
395.211,572.655
396.663,575.955
398.115,561.112
399.567,573.389
401.018,578.428
402.47,571.697
403.922,566.829
405.374,582.621
406.826,568.325
408.277,577.533
409.729,580.673
411.181,566.681
412.633,573.796
414.085,575.525
415.536,562.13
416.988,553.783
418.44,559.841
419.892,575.649
421.343,574.931
422.795,572.651
424.247,562.758
425.699,552.08
427.151,550.561
428.602,574.263
430.054,574.462
431.506,574.597
432.958,564.339
434.41,560.18
435.861,576.718
437.313,558.572
438.765,568.417
440.217,571.395
441.668,562.419
443.12,555.339
444.572,575.903
446.024,571.606
447.476,565.566
448.927,563.101
450.379,557.519
451.831,555.771
453.283,540.173
454.735,544.968
456.186,545.974
457.638,550.678
459.09,557.739
460.542,552
461.993,513.298
463.445,541.996
464.897,550.268
466.349,549.857
467.801,550.375
469.252,539.285
470.704,558.446
472.156,554.286
473.608,554.315
475.06,554.076
476.511,550.823
477.963,545.88
479.415,548.491
480.867,558.18
482.319,547.5
483.77,537.396
485.222,548.648
486.674,565.059
488.126,543.412
489.577,548.215
491.029,558.3
492.481,556.902
493.933,543.238
495.385,533.479
496.836,548.803
498.288,550.48
499.74,548.435
501.192,547.714
502.644,533.344
504.095,535.429
505.547,534.208
506.999,539.859
508.451,545.859
509.902,548.381
511.354,541.635
512.806,530.32
514.258,533.238
515.71,551.709
517.161,560.423
518.613,547.731
520.065,522.959
521.517,527.418
522.969,531.036
524.42,531.625
525.872,530.158
527.324,531.665
528.776,541.455
530.228,541.958
531.679,551.967
533.131,551.133
534.583,541.317
536.035,541.362
537.486,524.948
538.938,506.736
540.39,521.811
541.842,533.536
543.294,532.296
544.745,536.297
546.197,540.142
547.649,538.254
549.101,534.629
550.553,534.954
552.004,535.442
553.456,540.659
554.908,538.651
556.36,538.763
557.811,538.197
559.263,547.896
560.715,542.882
562.167,526.991
563.619,539.819
565.07,534.98
566.522,532.346
567.974,522.819
569.426,520.031
570.878,537.872
572.329,516.647
573.781,542.387
575.233,548.903
576.685,541.966
578.137,534.389
579.588,534.289
581.04,528.591
582.492,525.746
583.944,534.741
585.395,536.236
586.847,528.635
588.299,522.656
589.751,527.494
591.203,547.482
592.654,530.484
594.106,519.546
595.558,529.347
597.01,526.029
598.462,526.884
599.913,525.355
601.365,541.687
602.817,544.362
604.269,537.005
605.72,544.178
607.172,542.917
608.624,520.473
610.076,530.753
611.528,533.746
612.979,531.807
614.431,530.67
615.883,538.772
617.335,538.098
618.787,544.135
620.238,544.954
621.69,533.148
623.142,530.228
624.594,546.23
626.046,530.121
627.497,530.981
628.949,539.44
630.401,537.494
631.853,524.423
633.304,533.819
634.756,547.803
636.208,534.693
637.66,548.991
639.112,558.033
640.563,549.659
642.015,551.578
643.467,559.933
644.919,545.196
646.371,541.144
647.822,543.564
649.274,550.437
650.726,553.645
652.178,579.157
653.629,562.447
655.081,567.619
656.533,563.018
657.985,555.923
659.437,554.683
660.888,570.904
662.34,559.981
663.792,560.376
665.244,556.629
666.696,553.256
668.147,558.92
669.599,561.343
671.051,556.424
672.503,556.867
673.954,563.439
675.406,563.978
676.858,562.71
678.31,565.642
679.762,561.786
681.213,572.56
682.665,571.473
684.117,571.133
685.569,564.882
687.021,555.733
688.472,567.752
689.924,555.6
691.376,560.018
692.828,551.257
694.28,550.941
695.731,562.551
697.183,556.401
698.635,550.555
700.087,561.759
701.538,569.562
702.99,566.629
704.442,570.94
705.894,577.757
707.346,566.975
708.797,582.299
710.249,568.406
711.701,582.17
713.153,590.662
714.605,586.668
716.056,581.134
717.508,567.182
718.96,575.837
720.412,564.737
721.863,572.133
723.315,582.506
724.767,585.075
726.219,579.952
727.671,568.215
729.122,573.305
730.574,578.578
732.026,573.012
733.478,565.197
734.93,569.507
736.381,572.501
737.833,577.838
739.285,583.75
740.737,580.406
742.189,583.861
743.64,591.42
745.092,583.905
746.544,559.387
747.996,570.197
749.447,592.794
750.899,586.191
752.351,571.071
753.803,566.613
755.255,568.7
756.706,571.749
758.158,562.357
759.61,570.223
761.062,579.192
762.514,577.538
763.965,577.819
765.417,592.523
766.869,582.8
768.321,562.687
769.772,577.819
771.224,577.025
772.676,573.512
774.128,599.712
775.58,574.346
777.031,583.855
778.483,572.743
779.935,587.581
781.387,596.211
782.839,590.739
784.29,603.939
785.742,604.986
787.194,580.968
788.646,586.294
790.098,593.86
791.549,584.689
793.001,589.036
794.453,588.204
795.905,595.732
797.356,589.202
798.808,588.019
800.26,587.064
801.712,590.684
803.164,601.915
804.615,614.337
806.067,587.503
807.519,596.743
808.971,601.571
810.423,599.848
811.874,599.75
813.326,607.029
814.778,584.62
816.23,605.018
817.681,597.909
819.133,611.919
820.585,628.575
822.037,620.122
823.489,608.534
824.94,606.947
826.392,607.834
827.844,617.694
829.296,623.701
830.748,608.594
832.199,596.909
833.651,597.869
835.103,632.873
836.555,622.371
838.007,627.136
839.458,640.967
840.91,639.418
842.362,622.932
843.814,618.074
845.265,614.19
846.717,617.354
848.169,627.061
849.621,656.998
851.073,646.337
852.524,636.557
853.976,650.841
855.428,647.537
856.88,654.54
858.332,654.972
859.783,653.795
861.235,642.631
862.687,655.63
864.139,661.008
865.59,658.831
867.042,663.512
868.494,633.56
869.946,628.339
871.398,630.082
872.849,644.904
874.301,646.761
875.753,642.776
877.205,642.103
878.657,646.757
880.108,633.308
881.56,636.561
883.012,635.803
884.464,637.732
885.915,633.993
887.367,628.862
888.819,637.524
890.271,632.455
891.723,638.063
893.174,654.732
894.626,662.67
896.078,668.429
897.53,664.008
898.982,653.416
900.433,647.738
901.885,640.169
903.337,656.612
904.789,666.228
906.241,667.924
907.692,670.639
909.144,663.996
910.596,668.65
912.048,661.269
913.499,676.306
914.951,671.107
916.403,665.131
917.855,653.243
919.307,639.08
920.758,656.618
922.21,681.113
923.662,673.216
925.114,676.746
926.566,674.438
928.017,674.602
929.469,690.995
930.921,683.376
932.373,677.763
933.824,646.694
935.276,677.491
936.728,691.878
938.18,683.789
939.632,689.054
941.083,688.713
942.535,675.409
943.987,680.629
945.439,696.822
946.891,684.594
948.342,676.025
949.794,679.127
951.246,680.734
952.698,687.249
954.15,703.508
955.601,681.112
957.053,671.424
958.505,679.416
959.957,683.443
961.408,675.787
962.86,672.477
964.312,701.942
965.764,703.548
967.216,694.224
968.667,680.214
970.119,695.136
971.571,689.678
973.023,690.472
974.475,698.345
975.926,685.223
977.378,692.473
978.83,690.896
980.282,696.708
981.733,696.22
983.185,705.054
984.637,703.079
986.089,696.669
987.541,695.222
988.992,712.577
990.444,704.412
991.896,721.774
993.348,703.633
994.8,711.05
996.251,721.137
997.703,707.238
999.155,730.293
1000.61,711.874
1002.06,718.53
1003.51,724.298
1004.96,720.905
1006.41,713.57
1007.87,721.265
1009.32,733.189
1010.77,736.136
1012.22,743.722
1013.67,742.413
1015.12,733.656
1016.58,741.17
1018.03,732.938
1019.48,734.682
1020.93,754.709
1022.38,766.498
1023.84,775.598
1025.29,782.015
1026.74,772.891
1028.19,775.887
1029.64,788.624
1031.09,791.496
1032.55,778.537
1034,789.795
1035.45,800.625
1036.9,806.928
1038.35,821.841
1039.8,822.094
1041.26,826.069
1042.71,845.845
1044.16,853.091
1045.61,823.294
1047.06,827.75
1048.52,843.124
1049.97,854.62
1051.42,861.544
1052.87,873.671
1054.32,867.934
1055.77,871.959
1057.23,892.821
1058.68,903.522
1060.13,918.26
1061.58,907.322
1063.03,915.544
1064.49,933.856
1065.94,942.159
1067.39,923.206
1068.84,918.847
1070.29,957.483
1071.74,964.36
1073.2,967.068
1074.65,979.45
1076.1,990.758
1077.55,999.35
1079,988.8
1080.46,983.141
1081.91,991.941
1083.36,984.991
1084.81,1028.64
1086.26,1033.23
1087.71,1042.35
1089.17,1028.85
1090.62,990.091
1092.07,1011.07
1093.52,1035.08
1094.97,1012.63
1096.42,1002.51
1097.88,1019.78
1099.33,993.755
1100.78,990.921
1102.23,997.022
1103.68,996.868
1105.14,980.876
1106.59,978.584
1108.04,984.008
1109.49,974.847
1110.94,978.304
1112.39,953.097
1113.85,961.833
1115.3,957.979
1116.75,956.202
1118.2,955.471
1119.65,943.72
1121.11,940.137
1122.56,930.913
1124.01,940.191
1125.46,940.615
1126.91,925.607
1128.36,928.486
1129.82,926.031
1131.27,912.963
1132.72,915.535
1134.17,897.531
1135.62,911.762
1137.07,896.486
1138.53,891.169
1139.98,909.867
1141.43,910.607
1142.88,887.662
1144.33,892.591
1145.79,907.033
1147.24,921.401
1148.69,899.327
1150.14,888.81
1151.59,902.963
1153.04,879.03
1154.5,880.706
1155.95,890.739
1157.4,899.961
1158.85,899.361
1160.3,896.071
1161.76,895.419
1163.21,889.087
1164.66,887.377
1166.11,877.128
1167.56,892.685
1169.01,897.026
1170.47,905.309
1171.92,910.49
1173.37,901.326
1174.82,923.45
1176.27,906.97
1177.72,906.871
1179.18,939
1180.63,911.555
1182.08,909.687
1183.53,924.451
1184.98,920.887
1186.44,918.044
1187.89,912.692
1189.34,915.336
1190.79,918.468
1192.24,903.766
1193.69,929.424
1195.15,941.193
1196.6,933.666
1198.05,920.724
1199.5,926.978
1200.95,946.184
1202.41,947.438
1203.86,941.22
1205.31,938.188
1206.76,968.503
1208.21,962.14
1209.66,948.53
1211.12,935.814
1212.57,949.189
1214.02,948.106
1215.47,930.002
1216.92,947.312
1218.37,957.149
1219.83,958.665
1221.28,963.322
1222.73,963.196
1224.18,959.243
1225.63,972.167
1227.09,976.697
1228.54,962.032
1229.99,949.514
1231.44,965.813
1232.89,949.785
1234.34,980.343
1235.8,977.347
1237.25,970.362
1238.7,954.045
1240.15,975.822
1241.6,1003.56
1243.06,994.585
1244.51,992.789
1245.96,1000.79
1247.41,1037.96
1248.86,1020.37
1250.31,1001.37
1251.77,1026.62
1253.22,1040.25
1254.67,1041.02
1256.12,1034.93
1257.57,1038.84
1259.02,1057.64
1260.48,1068.8
1261.93,1101.92
1263.38,1084
1264.83,1103.07
1266.28,1106.06
1267.74,1128.88
1269.19,1138.53
1270.64,1144.07
1272.09,1173.31
1273.54,1209.11
1274.99,1212.47
1276.45,1208.4
1277.9,1195.85
1279.35,1230.3
1280.8,1271.96
1282.25,1278.6
1283.71,1291.31
1285.16,1294.2
1286.61,1304.85
1288.06,1344.39
1289.51,1372.59
1290.96,1375.17
1292.42,1417.18
1293.87,1474.36
1295.32,1487.86
1296.77,1543.79
1298.22,1592.43
1299.67,1625.06
1301.13,1649.49
1302.58,1701.45
1304.03,1767.51
1305.48,1803.91
1306.93,1857.82
1308.39,1936.29
1309.84,2008.58
1311.29,2080.97
1312.74,2173.1
1314.19,2294.44
1315.64,2396.61
1317.1,2487.82
1318.55,2580.11
1320,2670
1321.45,2783.39
1322.9,2933.43
1324.36,3006.13
1325.81,3123.9
1327.26,3223.43
1328.71,3326.44
1330.16,3406.55
1331.61,3467.09
1333.07,3517.63
1334.52,3587.75
1335.97,3626.44
1337.42,3569.12
1338.87,3572.35
1340.33,3511.47
1341.78,3447.34
1343.23,3391.3
1344.68,3293.17
1346.13,3221.99
1347.58,3125.87
1349.04,2983.66
1350.49,2851.38
1351.94,2732.09
1353.39,2587.91
1354.84,2476.22
1356.29,2419.72
1357.75,2310.08
1359.2,2213.5
1360.65,2148.51
1362.1,2035.54
1363.55,1941.44
1365.01,1878.53
1366.46,1819.87
1367.91,1764.74
1369.36,1725.68
1370.81,1686.12
1372.26,1647.4
1373.72,1613.31
1375.17,1583.88
1376.62,1515.18
1378.07,1500.28
1379.52,1468.99
1380.98,1453.8
1382.43,1446.83
1383.88,1419.17
1385.33,1382.07
1386.78,1382.32
1388.23,1386.08
1389.69,1350.75
1391.14,1341.45
1392.59,1379.62
1394.04,1385.2
1395.49,1333.93
1396.94,1331.49
1398.4,1309.71
1399.85,1312.09
1401.3,1319.2
1402.75,1303.93
1404.2,1297.98
1405.66,1295.06
1407.11,1314.12
1408.56,1331.35
1410.01,1317.23
1411.46,1323.49
1412.91,1290.61
1414.37,1312.53
1415.82,1315.87
1417.27,1305.4
1418.72,1296.76
1420.17,1298.87
1421.63,1313.42
1423.08,1304.98
1424.53,1322.53
1425.98,1300.09
1427.43,1310.12
1428.88,1307.3
1430.34,1344.7
1431.79,1352.61
1433.24,1347.94
1434.69,1357.55
1436.14,1369.55
1437.59,1389.67
1439.05,1382.41
1440.5,1383.31
1441.95,1409.83
1443.4,1425.47
1444.85,1424.55
1446.31,1392.59
1447.76,1418.21
1449.21,1434.67
1450.66,1453.32
1452.11,1448.02
1453.56,1445.85
1455.02,1460.55
1456.47,1486.13
1457.92,1504.4
1459.37,1525.68
1460.82,1518.59
1462.28,1526.29
1463.73,1594.49
1465.18,1610.06
1466.63,1618.65
1468.08,1612.45
1469.53,1622.27
1470.99,1633.65
1472.44,1648.11
1473.89,1690.52
1475.34,1727.03
1476.79,1734.98
1478.24,1764.11
1479.7,1764.56
1481.15,1833.34
1482.6,1830.09
1484.05,1870.57
1485.5,1895.81
1486.96,1903.51
1488.41,1937.75
1489.86,1983.37
1491.31,2003.56
1492.76,2047.66
1494.21,2091.68
1495.67,2137.79
1497.12,2165.65
1498.57,2220.69
1500.02,2253.87
1501.47,2332.79
1502.93,2349.17
1504.38,2423.98
1505.83,2500.93
1507.28,2599.49
1508.73,2674.64
1510.18,2759.42
1511.64,2844.59
1513.09,2944.42
1514.54,3071.48
1515.99,3187.98
1517.44,3306.11
1518.89,3394.57
1520.35,3539.09
1521.8,3681.57
1523.25,3897.04
1524.7,4087.78
1526.15,4379.83
1527.61,4587.53
1529.06,4913.96
1530.51,5255.59
1531.96,5642.49
1533.41,6088.68
1534.86,6515.54
1536.32,7032.11
1537.77,7678.73
1539.22,8388.46
1540.67,9195.15
1542.12,10026.5
1543.58,10954.6
1545.03,11950.4
1546.48,13039.1
1547.93,14235.2
1549.38,15494.7
1550.83,16824.4
1552.29,18257
1553.74,19687.7
1555.19,21049.4
1556.64,22438.5
1558.09,23888
1559.54,25163.9
1561,26470.4
1562.45,27536.8
1563.9,28316
1565.35,28769.4
1566.8,29970.6
1568.26,28786.9
1569.71,28305.7
1571.16,27666.7
1572.61,26666.4
1574.06,25370.9
1575.51,23823.5
1576.97,22260
1578.42,20671.5
1579.87,19110
1581.32,17563
1582.77,16058.5
1584.23,14695.4
1585.68,13281.2
1587.13,12071.7
1588.58,11080.5
1590.03,10102.3
1591.48,9225.83
1592.94,8555.12
1594.39,7987.56
1595.84,7399.28
1597.29,6934.44
1598.74,6481.9
1600.2,6087.22
1601.65,5808.93
1603.1,5528.57
1604.55,5229.48
1606,5002.39
1607.45,4763.79
1608.91,4521.29
1610.36,4294.36
1611.81,4046.72
1613.26,3940.88
1614.71,3740.11
1616.16,3580.24
1617.62,3386.93
1619.07,3234.65
1620.52,3119.21
1621.97,2973
1623.42,2832.92
1624.88,2752.14
1626.33,2660.27
1627.78,2553.31
1629.23,2427.03
1630.68,2348.36
1632.13,2305.58
1633.59,2255.44
1635.04,2178.47
1636.49,2122.7
1637.94,2074.4
1639.39,2030.22
1640.85,1992.43
1642.3,1985.26
1643.75,1929.44
1645.2,1870.34
1646.65,1846.83
1648.1,1813.13
1649.56,1755.53
1651.01,1728.04
1652.46,1710.2
1653.91,1670.79
1655.36,1641.48
1656.81,1629.1
1658.27,1617.43
1659.72,1608.03
1661.17,1580.37
1662.62,1533.32
1664.07,1523.37
1665.53,1494.03
1666.98,1495.38
1668.43,1493.93
1669.88,1447.96
1671.33,1427.67
1672.78,1413.85
1674.24,1395.45
1675.69,1387.3
1677.14,1361.34
1678.59,1358.53
1680.04,1354.81
1681.5,1347.91
1682.95,1323.39
1684.4,1311.99
1685.85,1289.78
1687.3,1299.75
1688.75,1270.98
1690.21,1269.86
1691.66,1248.89
1693.11,1248.49
1694.56,1232.39
1696.01,1221.74
1697.46,1225.68
1698.92,1220.07
1700.37,1222.54
1701.82,1222.62
1703.27,1209.15
1704.72,1201.17
1706.18,1201.31
1707.63,1204.98
1709.08,1194.44
1710.53,1178.61
1711.98,1185.73
1713.43,1191.95
1714.89,1183.46
1716.34,1160.61
1717.79,1146.52
1719.24,1135.62
1720.69,1152.92
1722.15,1151.02
1723.6,1166.14
1725.05,1145.56
1726.5,1139.15
1727.95,1138.44
1729.4,1137.18
1730.86,1159.7
1732.31,1153.51
1733.76,1142.35
1735.21,1136.85
1736.66,1136.19
1738.11,1128.31
1739.57,1133.58
1741.02,1115.56
1742.47,1119.07
1743.92,1124.66
1745.37,1114.51
1746.83,1117.37
1748.28,1109.03
1749.73,1096.51
1751.18,1121.67
1752.63,1090.54
1754.08,1058.38
1755.54,1080.12
1756.99,1099.28
1758.44,1085.42
1759.89,1052.23
1761.34,1066.02
1762.8,1079.86
1764.25,1070.56
1765.7,1061.6
1767.15,1065.4
1768.6,1048.6
1770.05,1027.54
1771.51,1036.03
1772.96,1041.07
1774.41,1029.44
1775.86,1040.24
1777.31,1030.11
1778.76,1014.02
1780.22,1025.48
1781.67,1011.58
1783.12,1001.62
1784.57,993.565
1786.02,974.161
1787.48,1016.27
1788.93,967.329
1790.38,995.37
1791.83,986.309
1793.28,998.547
1794.73,978.665
1796.19,976.264
1797.64,983.529
1799.09,974.206
1800.54,966.716
1801.99,983.24
1803.45,981.066
1804.9,952.555
1806.35,950.732
1807.8,957.384
1809.25,951.617
1810.7,970.957
1812.16,967.727
1813.61,947.808
1815.06,946.924
1816.51,944.099
1817.96,935.137
1819.41,946.328
1820.87,963.792
1822.32,966.021
1823.77,970.389
1825.22,983.141
1826.67,980.091
1828.13,976.661
1829.58,1005.68
1831.03,956.418
1832.48,950.498
1833.93,951.743
1835.38,961.436
1836.84,953.972
1838.29,980.786
1839.74,985.479
1841.19,989.919
1842.64,997.401
1844.1,983.529
1845.55,987.699
1847,999.639
1848.45,1014.14
1849.9,1041
1851.35,1045.77
1852.81,1031.49
1854.26,1020.19
1855.71,1023.62
1857.16,1028.54
1858.61,1026.04
1860.07,1023.47
1861.52,1036.63
1862.97,1039.68
1864.42,1033.31
1865.87,1035.33
1867.32,1038.17
1868.78,1040.2
1870.23,1033.83
1871.68,1050.41
1873.13,1023.01
1874.58,1029.9
1876.03,1018.34
1877.49,1003.88
1878.94,999.341
1880.39,984.134
1881.84,985.587
1883.29,1000.42
1884.75,1017.49
1886.2,967.23
1887.65,985.777
1889.1,998.249
1890.55,978.954
1892,971.652
1893.46,971.779
1894.91,962.627
1896.36,948.918
1897.81,930.435
1899.26,914.082
1900.72,936.292
1902.17,944.785
1903.62,932.953
1905.07,932.114
1906.52,922.105
1907.97,924.605
1909.43,913.847
1910.88,921.609
1912.33,911.455
1913.78,908.54
1915.23,907.024
1916.68,896.348
1918.14,878.553
1919.59,887.554
1921.04,899.294
1922.49,901.224
1923.94,918.964
1925.4,907.827
1926.85,888.799
1928.3,860.469
1929.75,898.054
1931.2,895.53
1932.65,884.545
1934.11,902.674
1935.56,905.616
1937.01,893.744
1938.46,878.076
1939.91,863.649
1941.37,874.762
1942.82,896.408
1944.27,909.362
1945.72,911.41
1947.17,901.712
1948.62,906.492
1950.08,906.167
1951.53,888.897
1952.98,914.786
1954.43,909.659
1955.88,903.36
1957.33,905.788
1958.79,903.279
1960.24,902.936
1961.69,903.712
1963.14,913.874
1964.59,913.703
1966.05,899.432
1967.5,904.461
1968.95,925.417
1970.4,916.609
1971.85,903.45
1973.3,899.224
1974.76,895.683
1976.21,898.638
1977.66,923.242
1979.11,940.769
1980.56,936.798
1982.02,925.544
1983.47,925.688
1984.92,932.755
1986.37,926.284
1987.82,948.494
1989.27,942.691
1990.73,937.023
1992.18,946.265
1993.63,944.298
1995.08,932.538
1996.53,958.647
1997.98,948.395
1999.44,953.738
2000.89,950.209
2002.34,927.105
2003.79,966.725
2005.24,955.245
2006.7,934.848
2008.15,931.13
2009.6,924.641
2011.05,910.21
2012.5,925.011
2013.95,923.901
2015.41,880.37
2016.86,968.494
2018.31,913.125
2019.76,894.857
2021.21,924.686
2022.67,914.289
2024.12,905.517
2025.57,904.362
2027.02,921.085
2028.47,912.06
2029.92,967.393
2031.38,915.129
2032.83,899.612
2034.28,878.465
2035.73,880.546
2037.18,895.858
2038.63,864.128
2040.09,874.812
2041.54,882.21
2042.99,869.251
2044.44,863.993
2045.89,870.788
2047.35,858.858
2048.8,869.413
2050.25,850.163
2051.7,843.305
2053.15,842.809
2054.6,839.883
2056.06,841.156
2057.51,848.311
2058.96,846.298
2060.41,821.563
2061.86,824.217
2063.32,826.455
2064.77,853.003
2066.22,838.007
2067.67,829.867
2069.12,836.466
2070.57,832.197
2072.03,823.326
2073.48,818.04
2074.93,806.14
2076.38,806.923
2077.83,808.064
2079.28,811.966
2080.74,806.614
2082.19,813.059
2083.64,808.89
2085.09,802.861
2086.54,810.464
2088,817.074
2089.45,811.782
2090.9,809.092
2092.35,808.135
2093.8,803.396
2095.25,795.29
2096.71,799.56
2098.16,799.461
2099.61,800.363
2101.06,790.452
2102.51,793.129
2103.97,815.862
2105.42,829.581
2106.87,813.867
2108.32,810.23
2109.77,803.794
2111.22,796.132
2112.68,813.405
2114.13,830.302
2115.58,808.537
2117.03,807.614
2118.48,837.527
2119.94,838.439
2121.39,825.105
2122.84,816.232
2124.29,820.777
2125.74,833.029
2127.19,836.135
2128.65,806.09
2130.1,818.369
2131.55,844.657
2133,827.496
2134.45,818.737
2135.9,832.774
2137.36,819.919
2138.81,812.632
2140.26,827.021
2141.71,846.142
2143.16,826.405
2144.62,836.977
2146.07,837.605
2147.52,833.508
2148.97,844.635
2150.42,841.108
2151.87,850.259
2153.33,861.672
2154.78,848.452
2156.23,844.578
2157.68,847.621
2159.13,855.486
2160.58,857.663
2162.04,859.99
2163.49,846.695
2164.94,842.087
2166.39,851.167
2167.84,865.331
2169.3,858.322
2170.75,848.214
2172.2,845.094
2173.65,869.364
2175.1,864.764
2176.55,856.545
2178.01,869.139
2179.46,871.76
2180.91,856.257
2182.36,857.474
2183.81,863.213
2185.27,861.504
2186.72,894.45
2188.17,902.411
2189.62,901.064
2191.07,893.033
2192.52,867.453
2193.98,882.105
2195.43,859.064
2196.88,870.623
2198.33,903.432
2199.78,897.816
2201.24,923.748
2202.69,892.568
2204.14,888.068
2205.59,894.224
2207.04,907.096
2208.49,876.391
2209.95,884.445
2211.4,904.524
2212.85,876.622
2214.3,892.969
2215.75,854.603
2217.2,876.183
2218.66,891.689
2220.11,880.519
2221.56,900.141
2223.01,901.675
2224.46,894.727
2225.92,866.757
2227.37,866.76
2228.82,871.231
2230.27,904.615
2231.72,907.773
2233.17,888.355
2234.63,913.288
2236.08,905.86
2237.53,886.275
2238.98,905.373
2240.43,908.965
2241.89,919.56
2243.34,914.425
2244.79,913.802
2246.24,928.423
2247.69,931.816
2249.14,924.659
2250.6,920.634
2252.05,915.499
2253.5,922.006
2254.95,918.378
2256.4,909.172
2257.85,933.251
2259.31,949.424
2260.76,927.719
2262.21,931.663
2263.66,927.998
2265.11,931.969
2266.57,945.931
2268.02,940.985
2269.47,935.092
2270.92,932.475
2272.37,923.739
2273.82,952.898
2275.28,940.408
2276.73,933.043
2278.18,937.186
2279.63,938.422
2281.08,953.476
2282.54,963.936
2283.99,955.516
2285.44,986.345
2286.89,978.511
2288.34,975.317
2289.79,982.464
2291.25,987.843
2292.7,978.683
2294.15,968.015
2295.6,984.008
2297.05,975.659
2298.5,991.192
2299.96,1002.6
2301.41,1015.43
2302.86,989.865
2304.31,971.689
2305.76,1030.92
2307.22,1035.98
2308.67,1010
2310.12,1002.92
2311.57,999.883
2313.02,1036.83
2314.47,1055.8
2315.93,1024.51
2317.38,1025.96
2318.83,1041.04
2320.28,1006.16
2321.73,1014.46
2323.19,1037.62
2324.64,1055.96
2326.09,1060.47
2327.54,1064.29
2328.99,1053.59
2330.44,1058.26
2331.9,1066.32
2333.35,1065.6
2334.8,1078.03
2336.25,1081.96
2337.7,1085.23
2339.16,1081.9
2340.61,1082.08
2342.06,1103.5
2343.51,1112.54
2344.96,1110.67
2346.41,1125.1
2347.87,1107.42
2349.32,1115.72
2350.77,1150.8
2352.22,1156.45
2353.67,1160.57
2355.12,1163.02
2356.58,1165.65
2358.03,1156.13
2359.48,1181.61
2360.93,1154.13
2362.38,1173.97
2363.84,1190.47
2365.29,1193.82
2366.74,1191.44
2368.19,1210.88
2369.64,1238.69
2371.09,1261.25
2372.55,1285.25
2374,1286.81
2375.45,1315.87
2376.9,1315.51
2378.35,1326.87
2379.8,1362.79
2381.26,1359.58
2382.71,1371.11
2384.16,1373.74
2385.61,1396.28
2387.06,1417.49
2388.52,1410.9
2389.97,1466.26
2391.42,1493.02
2392.87,1522.02
2394.32,1545.15
2395.77,1593.83
2397.23,1571.21
2398.68,1582.58
2400.13,1636.16
2401.58,1677.34
2403.03,1717.14
2404.49,1725.07
2405.94,1756.33
2407.39,1803.15
2408.84,1823.55
2410.29,1850.68
2411.74,1871.26
2413.2,1896.92
2414.65,1913.61
2416.1,1976.08
2417.55,2015.38
2419,2013.47
2420.46,2016.73
2421.91,2026.52
2423.36,1997.72
2424.81,2017.17
2426.26,2078.84
2427.71,2068.48
2429.17,2074.38
2430.62,2124.28
2432.07,2097.12
2433.52,2102.34
2434.97,2043.93
2436.42,2062.4
2437.88,2087.32
2439.33,2062.53
2440.78,2055.44
2442.23,2028.77
2443.68,2007.03
2445.14,2026.21
2446.59,1997.65
2448.04,2008.76
2449.49,2007.03
2450.94,1983.38
2452.39,1948.98
2453.85,1943.19
2455.3,1925.69
2456.75,1915.98
2458.2,1900.87
2459.65,1891.32
2461.1,1876.38
2462.56,1856.1
2464.01,1867.47
2465.46,1848.12
2466.91,1807.5
2468.36,1823.06
2469.82,1784.33
2471.27,1841.13
2472.72,1831.84
2474.17,1794.26
2475.62,1777.19
2477.07,1757.8
2478.53,1750.66
2479.98,1733.91
2481.43,1741.69
2482.88,1779.09
2484.33,1780.99
2485.79,1783.53
2487.24,1748.01
2488.69,1747.41
2490.14,1742.4
2491.59,1765.41
2493.04,1761.27
2494.5,1759.6
2495.95,1741.14
2497.4,1766.5
2498.85,1747.52
2500.3,1779.21
2501.76,1792.86
2503.21,1784.71
2504.66,1812.82
2506.11,1794.08
2507.56,1778.04
2509.01,1766.32
2510.47,1830.9
2511.92,1813.66
2513.37,1814.34
2514.82,1852.59
2516.27,1861.45
2517.72,1875.66
2519.18,1869.02
2520.63,1851.43
2522.08,1878.05
2523.53,1904.1
2524.98,1919.61
2526.44,1896.91
2527.89,1923.2
2529.34,1957.3
2530.79,1991.99
2532.24,2004.22
2533.69,2010.05
2535.15,2039.53
2536.6,2030.83
2538.05,2117.7
2539.5,2093.73
2540.95,2116.36
2542.41,2142.23
2543.86,2174.45
2545.31,2200.64
2546.76,2223.85
2548.21,2208.6
2549.66,2251.46
2551.12,2290.9
2552.57,2360.28
2554.02,2399.38
2555.47,2404.16
2556.92,2427.86
2558.37,2461.92
2559.83,2513.84
2561.28,2539.73
2562.73,2567.17
2564.18,2665.23
2565.63,2726.97
2567.09,2746.68
2568.54,2790.72
2569.99,2839.46
2571.44,2902.92
2572.89,2940.93
2574.34,3006
2575.8,3017.7
2577.25,3171.21
2578.7,3272.6
2580.15,3324.28
2581.6,3381.62
2583.06,3449.14
2584.51,3526.09
2585.96,3638.34
2587.41,3776.33
2588.86,3868.55
2590.31,3956.73
2591.77,4040.9
2593.22,4197.49
2594.67,4310.14
2596.12,4443.72
2597.57,4620.76
2599.02,4759.2
2600.48,4903.03
2601.93,5065.41
2603.38,5228.84
2604.83,5455.62
2606.28,5630.66
2607.74,5875.31
2609.19,6036.68
2610.64,6285.12
2612.09,6464.92
2613.54,6750.27
2614.99,7032.19
2616.45,7318.17
2617.9,7625.05
2619.35,7937.28
2620.8,8231.32
2622.25,8584.97
2623.71,8928.17
2625.16,9326.28
2626.61,9684.03
2628.06,10038.4
2629.51,10534.3
2630.96,10891
2632.42,11390.9
2633.87,11787.2
2635.32,12228.9
2636.77,12657.2
2638.22,13143.1
2639.68,13554.7
2641.13,13896.6
2642.58,14299.7
2644.03,14754.6
2645.48,15133.5
2646.93,15588.1
2648.39,15810.3
2649.84,16234.4
2651.29,16526.6
2652.74,16751.9
2654.19,16951.6
2655.64,17252.1
2657.1,17350.7
2658.55,17468.6
2660,17578.9
2661.45,17547.5
2662.9,17428.1
2664.36,17332.7
2665.81,17231
2667.26,16997.6
2668.71,16879.6
2670.16,16698.4
2671.61,16458
2673.07,16060.7
2674.52,15713.8
2675.97,15207.6
2677.42,14872.7
2678.87,14447.6
2680.32,14080.6
2681.78,13597.6
2683.23,13114.1
2684.68,12646.5
2686.13,12216.3
2687.58,11719.8
2689.04,11350.9
2690.49,10862.8
2691.94,10452.8
2693.39,10001.6
2694.84,9563.73
2696.29,9164.82
2697.75,8760.44
2699.2,8442.09
2700.65,8072.24
2702.1,7687.14
2703.55,7353.78
2705.01,7009.37
2706.46,6770.64
2707.91,6453.24
2709.36,6201.43
2710.81,5922.57
2712.26,5641.97
2713.72,5463.92
2715.17,5266.92
2716.62,5047.3
2718.07,4811.3
2719.52,4663.85
2720.98,4509.27
2722.43,4312.82
2723.88,4171.76
2725.33,4046.02
2726.78,3886.31
2728.23,3739.71
2729.69,3680.13
2731.14,3529.69
2732.59,3412.99
2734.04,3336.28
2735.49,3240.25
2736.94,3133.2
2738.4,3052.29
2739.85,2968.1
2741.3,2856.3
2742.75,2822.87
2744.2,2801.53
2745.66,2668.3
2747.11,2606.91
2748.56,2558.96
2750.01,2523.96
2751.46,2482.97
2752.91,2448.77
2754.37,2374.71
2755.82,2335.15
2757.27,2284.79
2758.72,2251.62
2760.17,2161.82
2761.63,2159.49
2763.08,2135.21
2764.53,2070.51
2765.98,2075.63
2767.43,2041.05
2768.88,1970.54
2770.34,1974.72
2771.79,1929.38
2773.24,1893.96
2774.69,1867.58
2776.14,1850.1
2777.59,1872.51
2779.05,1807.07
2780.5,1789.88
2781.95,1780.21
2783.4,1789.3
2784.85,1768.22
2786.31,1728.76
2787.76,1700.06
2789.21,1698.89
2790.66,1673.1
2792.11,1651.94
2793.56,1620.94
2795.02,1617.92
2796.47,1611.97
2797.92,1609.64
2799.37,1586.92
2800.82,1587.56
2802.28,1583.84
2803.73,1544.67
2805.18,1533.8
2806.63,1536.11
2808.08,1514.55
2809.53,1481.78
2810.99,1491.6
2812.44,1488.35
2813.89,1446.19
2815.34,1452.09
2816.79,1431.35
2818.24,1445.76
2819.7,1444.18
2821.15,1431.32
2822.6,1411.25
2824.05,1402.61
2825.5,1398
2826.96,1412.09
2828.41,1392.53
2829.86,1405.67
2831.31,1358.9
2832.76,1343.01
2834.21,1360.14
2835.67,1369.17
2837.12,1366.21
2838.57,1364.76
2840.02,1326.5
2841.47,1349.71
2842.93,1300.57
2844.38,1319.24
2845.83,1307.02
2847.28,1292.01
2848.73,1283.9
2850.18,1304.78
2851.64,1299.66
2853.09,1306.66
2854.54,1298.86
2855.99,1287.13
2857.44,1267.82
2858.9,1298.52
2860.35,1279.48
2861.8,1268.67
2863.25,1290.14
2864.7,1270.69
2866.15,1275.36
2867.61,1287.7
2869.06,1298.95
2870.51,1290.34
2871.96,1345.96
2873.41,1304.64
2874.86,1304.6
2876.32,1270.93
2877.77,1286.03
2879.22,1276.25
2880.67,1293.21
2882.12,1314.98
2883.58,1311.65
2885.03,1307.65
2886.48,1298.93
2887.93,1262.96
2889.38,1284.67
2890.83,1272.95
2892.29,1318.38
2893.74,1298.2
2895.19,1278.19
2896.64,1273.32
2898.09,1273.61
2899.54,1278.22
2901,1263.49
2902.45,1264.65
2903.9,1318.9
2905.35,1266.32
2906.8,1291.86
2908.26,1293.14
2909.71,1287.5
2911.16,1266.24
2912.61,1254.24
2914.06,1237.47
2915.51,1248.67
2916.97,1233.56
2918.42,1248.33
2919.87,1239.11
2921.32,1243.88
2922.77,1224.21
2924.23,1214.2
2925.68,1199.24
2927.13,1200.67
2928.58,1224.58
2930.03,1193.37
2931.48,1192.24
2932.94,1156.78
2934.39,1172.43
2935.84,1162.47
2937.29,1153.75
2938.74,1132.7
2940.2,1139.26
2941.65,1113.6
2943.1,1081.06
2944.55,1087.09
2946,1092.53
2947.45,1055.92
2948.91,1039.93
2950.36,1051.49
2951.81,1062.77
2953.26,1023.93
2954.71,1032.72
2956.16,1046.42
2957.62,1024.3
2959.07,1004.72
2960.52,1012.72
2961.97,990.145
2963.42,987.943
2964.88,954.631
2966.33,957.736
2967.78,979.486
2969.23,963.927
2970.68,952.032
2972.13,957.375
2973.59,933.594
2975.04,927.935
2976.49,939.361
2977.94,932.547
2979.39,923.883
2980.84,918.811
2982.3,921.482
2983.75,903.161
2985.2,898.377
2986.65,880.886
2988.1,901.901
2989.56,902.692
2991.01,899.329
2992.46,905.941
2993.91,893.258
2995.36,882.644
2996.81,869.236
2998.27,874.692
2999.72,878.731
3001.17,858.854
3002.62,855.879
3004.07,848.962
3005.53,877.984
3006.98,869.228
3008.43,856.693
3009.88,858.364
3011.33,854.064
3012.78,857.447
3014.24,857.27
3015.69,825.264
3017.14,846.12
3018.59,838.733
3020.04,830.826
3021.5,846.258
3022.95,838.758
3024.4,836.666
3025.85,848.007
3027.3,844.964
3028.75,827.29
3030.21,867.327
3031.66,822.461
3033.11,840.685
3034.56,849.837
3036.01,830.431
3037.46,831.97
3038.92,837.027
3040.37,822.853
3041.82,835.319
3043.27,847.975
3044.72,817.698
3046.18,828.049
3047.63,833.894
3049.08,837.865
3050.53,840.409
3051.98,839.264
3053.43,834.36
3054.89,834.086
3056.34,836.246
3057.79,837.407
3059.24,853.855
3060.69,849.275
3062.15,846.474
3063.6,844.662
3065.05,850.505
3066.5,862.155
3067.95,852.696
3069.4,839.459
3070.86,849.532
3072.31,855.363
3073.76,856.281
3075.21,883.565
3076.66,854.853
3078.11,888.282
3079.57,886.175
3081.02,886.842
3082.47,886.567
3083.92,899.742
3085.37,903.008
3086.83,921.916
3088.28,907.475
3089.73,910.562
3091.18,910.914
3092.63,934.686
3094.08,959.938
3095.54,956.319
3096.99,962.284
3098.44,997.834
3099.89,987.058
3101.34,986.833
3102.8,1029.14
3104.25,1053.98
3105.7,1067.63
3107.15,1086.61
3108.6,1079.9
3110.05,1087.03
3111.51,1102.41
3112.96,1118.53
3114.41,1170.82
3115.86,1162.62
3117.31,1172.23
3118.76,1154.65
3120.22,1198.94
3121.67,1220.34
3123.12,1219.34
3124.57,1243.14
3126.02,1276.11
3127.48,1269.39
3128.93,1342.41
3130.38,1325.93
3131.83,1315.57
3133.28,1325.09
3134.73,1353.16
3136.19,1339.4
3137.64,1346.68
3139.09,1330.33
3140.54,1374.95
3141.99,1381.9
3143.45,1391.08
3144.9,1375.39
3146.35,1390.75
3147.8,1403.96
3149.25,1429.09
3150.7,1409.47
3152.16,1450.5
3153.61,1438.65
3155.06,1409.22
3156.51,1421.2
3157.96,1428.7
3159.42,1447.85
3160.87,1403.31
3162.32,1438.35
3163.77,1445.39
3165.22,1442.24
3166.67,1464.36
3168.13,1467.34
3169.58,1441.4
3171.03,1427.63
3172.48,1459.42
3173.93,1456.53
3175.38,1485.44
3176.84,1516.87
3178.29,1515.27
3179.74,1547.45
3181.19,1549.97
3182.64,1567.86
3184.1,1612.2
3185.55,1586.25
3187,1618.25
3188.45,1628.85
3189.9,1623.11
3191.35,1666.13
3192.81,1654.39
3194.26,1655.91
3195.71,1682.99
3197.16,1684.61
3198.61,1667.38
3200.06,1718.16
3201.52,1710.35
3202.97,1714.61
3204.42,1677.09
3205.87,1694.9
3207.32,1702.81
3208.78,1673
3210.23,1697.84
3211.68,1623.32
3213.13,1576.71
3214.58,1565.17
3216.03,1532.29
3217.49,1522.31
3218.94,1487.18
3220.39,1456.81
3221.84,1419.57
3223.29,1394.36
3224.75,1331.67
3226.2,1302.75
3227.65,1289.03
3229.1,1250.33
3230.55,1210.76
3232,1187.19
3233.46,1148.7
3234.91,1115.69
3236.36,1093.93
3237.81,1096.62
3239.26,1029.02
3240.72,985.749
3242.17,976.77
3243.62,976.445
3245.07,949.469
3246.52,920.156
3247.97,884.093
3249.43,910.472
3250.88,855.876
3252.33,832.569
3253.78,825.88
3255.23,814.482
3256.68,797.152
3258.14,829.122
3259.59,799.208
3261.04,784.515
3262.49,766.956
3263.94,765.978
3265.4,750.206
3266.85,726.848
3268.3,754.12
3269.75,752.133
3271.2,729.341
3272.65,736.207
3274.11,723.898
3275.56,720.208
3277.01,715.778
3278.46,711.39
3279.91,699.309
3281.37,700.439
3282.82,712.96
3284.27,718.815
3285.72,677.178
3287.17,694.441
3288.62,689.954
3290.08,684.193
3291.53,676.316
3292.98,661.406
3294.43,688.118
3295.88,671.56
3297.33,680.615
3298.79,679.691
3300.24,695.609
3301.69,679.62
3303.14,680.306
3304.59,667.217
3306.05,716.238
3307.5,680.405
3308.95,673.069
3310.4,675.883
3311.85,665.809
3313.3,665.332
3314.76,659.896
3316.21,673.531
3317.66,668.495
3319.11,653.953
3320.56,666.882
3322.02,656.647
3323.47,661.385
3324.92,667.053
3326.37,672.073
3327.82,671.716
3329.27,665.927
3330.73,660.52
3332.18,666.56
3333.63,674.37
3335.08,643.94
3336.53,639.842
3337.98,672.816
3339.44,649.492
3340.89,650.45
3342.34,657.031
3343.79,665.397
3345.24,656.828
3346.7,652.188
3348.15,645.679
3349.6,651.809
3351.05,655.287
3352.5,634.189
3353.95,658.835
3355.41,644.912
3356.86,621.091
3358.31,638.366
3359.76,662.94
3361.21,650.496
3362.67,656.771
3364.12,641.79
3365.57,647.384
3367.02,652.704
3368.47,637.537
3369.92,648.325
3371.38,658.253
3372.83,648.515
3374.28,619.869
3375.73,629.163
3377.18,647.212
3378.63,652.623
3380.09,659.101
3381.54,628.466
3382.99,627.959
3384.44,627.694
3385.89,622.157
3387.35,640.244
3388.8,625.291
3390.25,633.756
3391.7,624.186
3393.15,620.91
3394.6,630.544
3396.06,638.386
3397.51,642.566
3398.96,650.413
3400.41,630.89
3401.86,627.187
3403.32,635.599
3404.77,640.671
3406.22,656.397
3407.67,623.281
3409.12,632.037
3410.57,624.893
3412.03,618.927
3413.48,605.701
3414.93,641.146
3416.38,638.633
3417.83,627.094
3419.28,624.975
3420.74,654.989
3422.19,622.231
3423.64,644.257
3425.09,632.031
3426.54,619.935
3428,601.124
3429.45,631.527
3430.9,636.216
3432.35,641.428
3433.8,642.086
3435.25,613.546
3436.71,617.293
3438.16,617.257
3439.61,639.523
3441.06,635.092
3442.51,617.35
3443.97,609.861
3445.42,602.712
3446.87,632.461
3448.32,613.776
3449.77,608.261
3451.22,613.02
3452.68,642.305
3454.13,601.386
3455.58,604.376
3457.03,635.646
3458.48,619.451
3459.94,620.936
3461.39,607.322
3462.84,619.207
3464.29,624.367
3465.74,621.625
3467.19,621.933
3468.65,598.44
3470.1,628.796
3471.55,618.933
3473,601.546
3474.45,586.667
3475.9,622.483
3477.36,636.883
3478.81,641.255
3480.26,631.83
3481.71,603.357
3483.16,619.535
3484.62,590.495
3486.07,627.38
3487.52,610.098
3488.97,595.982
3490.42,615
3491.87,619.887
3493.33,628.372
3494.78,614.173
3496.23,614.295
3497.68,616.688
3499.13,615.548
3500.58,624.586
3502.04,637.819
3503.49,614.244
3504.94,599.328
3506.39,592.117
3507.84,621.608
3509.3,643.072
3510.75,645.796
3512.2,611.844
3513.65,613.713
3515.1,625.729
3516.55,616.837
3518.01,626.994
3519.46,620.271
3520.91,616.299
3522.36,614.535
3523.81,618.012
3525.27,618.898
3526.72,604.889
3528.17,623.732
3529.62,610.843
3531.07,621.59
3532.52,629.228
3533.98,624.402
3535.43,633.347
3536.88,622.51
3538.33,597.607
3539.78,617.863
3541.24,623.288
3542.69,607.081
3544.14,624.608
3545.59,628.312
3547.04,615.286
3548.49,608.226
3549.95,621.647
3551.4,609.165
3552.85,599.401
3554.3,602.726
3555.75,625.997
3557.2,632.838
3558.66,610.317
3560.11,605.551
3561.56,612.187
3563.01,613.375
3564.46,617.19
3565.92,617.095
3567.37,611.836
3568.82,614.366
3570.27,615.554
3571.72,600.689
3573.17,607.469
3574.63,620.011
3576.08,616.703
3577.53,631.726
3578.98,589.389
3580.43,606.116
3581.89,601.701
3583.34,603.421
3584.79,594.478
3586.24,622.444
3587.69,603.451
3589.14,620.182
3590.6,621.547
3592.05,605.248
3593.5,606.808
3594.95,601.658
3596.4,594.632
3597.85,595.273
3599.31,616.665
3600.76,619.481
3602.21,598.524
3603.66,618.368
3605.11,581.913
3606.57,617.381
3608.02,615.091
3609.47,609.383
3610.92,614.114
3612.37,632.383
3613.82,606.889
3615.28,610.467
3616.73,596.82
3618.18,632.723
3619.63,595.369
3621.08,621.63
3622.54,614.551
3623.99,620.506
3625.44,625.883
3626.89,618.238
3628.34,599.771
3629.79,604.276
3631.25,606.586
3632.7,613.432
3634.15,606.382
3635.6,602.18
3637.05,596.108
3638.5,612.745
3639.96,606.447
3641.41,614.862
3642.86,609.988
3644.31,598.924
3645.76,614.04
3647.22,606.598
3648.67,606.727
3650.12,596.322
3651.57,600.708
3653.02,589.857
3654.47,612.245
3655.93,637.568
3657.38,613.602
3658.83,620.452
3660.28,612.918
3661.73,612.709
3663.19,601.886
3664.64,620.355
3666.09,588.822
3667.54,609.501
3668.99,613.307
3670.44,628.771
3671.9,612.371
3673.35,605.213
3674.8,631.662
3676.25,622.776
3677.7,594.521
3679.16,612.173
3680.61,612.922
3682.06,628.171
3683.51,613.298
3684.96,619.212
3686.41,618.952
3687.87,611.612
3689.32,621.806
3690.77,598.413
3692.22,624.22
3693.67,606.796
3695.12,611.751
3696.58,617.321
3698.03,623.466
3699.48,623.909
3700.93,623.346
3702.38,611.898
3703.84,630.608
3705.29,618.041
3706.74,601.875
3708.19,618.577
3709.64,647.568
3711.09,631.875
3712.55,625.385
3714,609.943
3715.45,614.496
3716.9,620.04
3718.35,626.562
3719.8,633.579
3721.26,619.752
3722.71,606.237
3724.16,619.48
3725.61,629.757
3727.06,629.408
3728.52,618.908
3729.97,615.324
3731.42,629.277
3732.87,625.152
3734.32,620.138
3735.77,641.954
3737.23,638.537
3738.68,626.775
3740.13,604.133
3741.58,635.005
3743.03,610.81
3744.49,615.152
3745.94,645.397
3747.39,627.783
3748.84,634.188
3750.29,642.308
3751.74,622.118
3753.2,623.225
3754.65,623.165
3756.1,607.944
3757.55,627.362
3759,619.226
3760.46,632.025
3761.91,637.634
3763.36,641.178
3764.81,643.207
3766.26,647.158
3767.71,615.536
3769.17,626.122
3770.62,640.591
3772.07,609.481
3773.52,617.959
3774.97,630.855
3776.42,614.637
3777.88,627.751
3779.33,629.819
3780.78,645.202
3782.23,646.447
3783.68,648.191
3785.14,662.433
3786.59,631.564
3788.04,624.946
3789.49,615.746
3790.94,642.907
3792.39,643.401
3793.85,636.679
3795.3,647.285
3796.75,651.186
3798.2,644.969
3799.65,638.897
3801.1,641.066
3802.56,603.351
3804.01,650.156
3805.46,639.91
3806.91,637.028
3808.36,658.174
3809.82,651.66
3811.27,638.302
3812.72,634.696
3814.17,637.76
3815.62,662.507
3817.07,654.625
3818.53,653.914
3819.98,683.174
3821.43,631.975
3822.88,633.249
3824.33,633.862
3825.79,652.739
3827.24,690.017
3828.69,687.181
3830.14,639.406
3831.59,665.129
3833.04,640.958
3834.5,648.384
3835.95,652.473
3837.4,661.48
3838.85,652.915
3840.3,651.452
3841.76,693.922
3843.21,624.28
3844.66,647.9
3846.11,648.959
3847.56,633.624
3849.01,688.45
3850.47,631.922
3851.92,658.889
3853.37,628.697
3854.82,640.022
3856.27,665.618
3857.72,666.418
3859.18,676.992
3860.63,674.206
3862.08,641.299
3863.53,666.163
3864.98,675.747
3866.44,699.162
3867.89,662.007
3869.34,654.092
3870.79,671.279
3872.24,674.594
3873.69,664.449
3875.15,674.448
3876.6,650.432
3878.05,660.545
3879.5,683.306
3880.95,657.953
3882.41,669.635
3883.86,682.66
3885.31,668.08
3886.76,664.281
3888.21,676.445
3889.66,679.203
3891.12,673.213
3892.57,700.463
3894.02,697.762
3895.47,703.257
3896.92,692.069
3898.37,691.378
3899.83,685.78
3901.28,675.441
3902.73,695.745
3904.18,686.303
3905.63,705.36
3907.09,696.586
3908.54,698.864
3909.99,718.306
3911.44,707.387
3912.89,709.747
3914.34,708.436
3915.8,682.485
3917.25,700.799
3918.7,734.197
3920.15,723.787
3921.6,747.162
3923.06,724.291
3924.51,697.32
3925.96,736.73
3927.41,730.316
3928.86,720.72
3930.31,762.581
3931.77,741.221
3933.22,745.054
3934.67,748.251
3936.12,744.625
3937.57,748.805
3939.02,752.195
3940.48,744.34
3941.93,734.774
3943.38,741.935
3944.83,753.589
3946.28,749.611
3947.74,752.875
3949.19,750.083
3950.64,757.985
3952.09,741.234
3953.54,733.65
3954.99,764.706
3956.45,759.142
3957.9,750.878
3959.35,796.653
3960.8,763.184
3962.25,774.843
3963.71,762.534
3965.16,766.419
3966.61,778.34
3968.06,776.546
3969.51,783.435
3970.96,768.906
3972.42,781.238
3973.87,784.056
3975.32,793.255
3976.77,784.43
3978.22,792.919
3979.68,790.443
3981.13,786.347
3982.58,810.683
3984.03,797.818
3985.48,823.751
3986.93,789.372
3988.39,813.963
3989.84,840.598
3991.29,814.091
3992.74,810.356
3994.19,802.007
3995.64,824.272
3997.1,824.55
3998.55,831.906
4000,829.504
