-2.57855,85.9673
-1.12676,85.9673
0.325027,85.9673
1.77681,85.9673
3.2286,85.9673
4.68039,85.9673
6.13218,85.9673
7.58397,426.221
9.03575,91.875
10.4875,79.7599
11.9393,81.4588
13.3911,85.5586
14.8429,84.5364
16.2947,80.2052
17.7465,75.3151
19.1983,63.5137
20.6501,54.6245
22.1018,48.4888
23.5536,43.5847
25.0054,38.6174
26.4572,35.1333
27.909,32.3305
29.3608,30.4226
30.8126,27.3645
32.2644,26.972
33.7161,24.6827
35.1679,23.7418
36.6197,24.6658
38.0715,27.7793
39.5233,27.8499
40.9751,28.9416
42.4269,31.7982
43.8787,34.6019
45.3304,41.3214
46.7822,47.902
48.234,67.312
49.6858,110.245
51.1376,182.235
52.5894,298.224
54.0412,473.604
55.493,713.427
56.9447,1003.19
58.3965,1310.67
59.8483,1614.46
61.3001,1823.8
62.7519,1984.02
64.2037,2129.96
65.6555,2200.75
67.1073,2271.75
68.559,2311.7
70.0108,2342.71
71.4626,2414.51
72.9144,2461.63
74.3662,2491.77
75.818,2521.96
77.2698,2571.51
78.7216,2672.88
80.1733,2747.96
81.6251,2816.65
83.0769,2852.42
84.5287,2869.66
85.9805,2888.24
87.4323,2836.7
88.8841,2753.83
90.3359,2675.43
91.7877,2576.06
93.2394,2474
94.6912,2343.87
96.143,2250.88
97.5948,2170.98
99.0466,2048.8
100.498,2006.09
101.95,1919.85
103.402,1854.41
104.854,1812.78
106.306,1792.68
107.757,1772.42
109.209,1759.94
110.661,1735.58
112.113,1698.52
113.564,1681.6
115.016,1667.77
116.468,1636.33
117.92,1607.97
119.372,1589.1
120.823,1561.39
122.275,1510.13
123.727,1467.28
125.179,1429.02
126.631,1413.46
128.082,1414.31
129.534,1359.3
130.986,1334.1
132.438,1322.04
133.889,1291.32
135.341,1269.75
136.793,1259.58
138.245,1235.19
139.697,1214.99
141.148,1187
142.6,1181.6
144.052,1153.83
145.504,1127.63
146.956,1113.92
148.407,1107.45
149.859,1108.61
151.311,1078.88
152.763,1054.94
154.215,1053.31
155.666,1053.68
157.118,1031.54
158.57,1065.86
160.022,1075.25
161.473,1068.48
162.925,1075.4
164.377,1118.07
165.829,1133.11
167.281,1143.44
168.732,1157.98
170.184,1138.7
171.636,1088.05
173.088,1049.22
174.54,1012.44
175.991,967.505
177.443,954.927
178.895,944.248
180.347,946.814
181.798,932.949
183.25,917
184.702,908.85
186.154,907.494
187.606,898.642
189.057,888.533
190.509,879.63
191.961,869.062
193.413,896.485
194.865,890.166
196.316,878.448
197.768,865.844
199.22,879.641
200.672,865.343
202.124,867.153
203.575,870.817
205.027,850.574
206.479,856.471
207.931,860.6
209.382,870.931
210.834,866.823
212.286,847.317
213.738,843.705
215.19,862.669
216.641,862.246
218.093,862.527
219.545,858.972
220.997,840.291
222.449,835.974
223.9,830.501
225.352,840.324
226.804,846.382
228.256,832.747
229.707,827.916
231.159,837.305
232.611,844.982
234.063,847.612
235.515,863.67
236.966,835.48
238.418,837.886
239.87,849.038
241.322,842.845
242.774,826.891
244.225,820.951
245.677,826.008
247.129,825.479
248.581,822.276
250.033,798.746
251.484,816.9
252.936,810.3
254.388,799.326
255.84,797.483
257.291,823.564
258.743,821.363
260.195,795.657
261.647,800.252
263.099,801.945
264.55,769.927
266.002,762.754
267.454,777.58
268.906,783.51
270.358,777.362
271.809,779.244
273.261,782.886
274.713,766.618
276.165,771.793
277.616,766.747
279.068,741.392
280.52,737.112
281.972,757.391
283.424,746.582
284.875,737.3
286.327,732.629
287.779,741.275
289.231,743.379
290.683,730.219
292.134,715.536
293.586,708.319
295.038,722.192
296.49,710.297
297.941,694.336
299.393,709.134
300.845,708.242
302.297,671.528
303.749,672.495
305.2,673.573
306.652,676.169
308.104,673.753
309.556,668.118
311.008,662.008
312.459,665.307
313.911,652.769
315.363,659.01
316.815,674.11
318.267,638.039
319.718,632.134
321.17,635.588
322.622,636.357
324.074,640.355
325.525,636.042
326.977,637.776
328.429,630.82
329.881,638.421
331.333,643.301
332.784,628.576
334.236,634.577
335.688,614.213
337.14,623.078
338.592,620.453
340.043,599.745
341.495,608.702
342.947,640.578
344.399,618.937
345.85,606.028
347.302,616.424
348.754,629.908
350.206,626.867
351.658,625.531
353.109,613.568
354.561,606.424
356.013,607.263
357.465,592.573
358.917,601.743
360.368,612.005
361.82,608.849
363.272,597.107
364.724,590.889
366.176,595.959
367.627,603.043
369.079,600.944
370.531,599.338
371.983,614.507
373.434,599.644
374.886,599.446
376.338,593.873
377.79,590.719
379.242,597.144
380.693,603.906
382.145,587.098
383.597,575.947
385.049,567.363
386.501,572.134
387.952,581.592
389.404,586.27
390.856,584.382
392.308,584.445
393.759,587.654
395.211,587.672
396.663,591.058
398.115,575.826
399.567,588.425
401.018,593.597
402.47,586.689
403.922,581.694
405.374,597.9
406.826,583.228
408.277,592.678
409.729,595.9
411.181,581.542
412.633,588.843
414.085,590.617
415.536,576.871
416.988,568.305
418.44,574.522
419.892,590.744
421.343,590.008
422.795,587.668
424.247,577.516
425.699,566.557
427.151,564.999
428.602,589.323
430.054,589.526
431.506,589.665
432.958,579.138
434.41,574.87
435.861,591.842
437.313,573.219
438.765,583.323
440.217,586.379
441.668,577.168
443.12,569.902
444.572,591.005
446.024,586.595
447.476,580.397
448.927,577.868
450.379,572.139
451.831,570.345
453.283,554.338
454.735,559.259
456.186,560.291
457.638,565.119
459.09,572.365
460.542,566.476
461.993,526.759
463.445,556.209
464.897,564.698
466.349,564.276
467.801,564.808
469.252,553.427
470.704,573.091
472.156,568.821
473.608,568.852
475.06,568.606
476.511,565.267
477.963,560.195
479.415,562.874
480.867,572.817
482.319,561.857
483.77,551.489
485.222,563.036
486.674,579.877
488.126,557.662
489.577,562.592
491.029,572.94
492.481,571.506
493.933,557.484
495.385,547.469
496.836,563.194
498.288,564.915
499.74,562.817
501.192,562.077
502.644,547.33
504.095,549.47
505.547,548.217
506.999,554.016
508.451,560.173
509.902,562.762
511.354,555.839
512.806,544.227
514.258,547.222
515.71,566.177
517.161,575.119
518.613,562.094
520.065,536.673
521.517,541.249
522.969,544.962
524.42,545.566
525.872,544.061
527.324,545.607
528.776,555.654
530.228,556.17
531.679,566.442
533.131,565.586
534.583,555.512
536.035,555.558
537.486,538.714
538.938,520.025
540.39,535.495
541.842,547.527
543.294,546.255
544.745,550.36
546.197,554.307
547.649,552.369
549.101,548.649
550.553,548.982
552.004,549.483
553.456,554.837
554.908,552.776
556.36,552.892
557.811,552.31
559.263,562.264
560.715,557.118
562.167,540.811
563.619,553.975
565.07,549.009
566.522,546.306
567.974,536.529
569.426,533.668
570.878,551.977
572.329,530.195
573.781,556.61
575.233,563.297
576.685,556.179
578.137,548.403
579.588,548.3
581.04,542.453
582.492,539.533
583.944,548.764
585.395,550.298
586.847,542.497
588.299,536.362
589.751,541.327
591.203,561.839
592.654,544.395
594.106,533.171
595.558,543.228
597.01,539.823
598.462,540.701
599.913,539.132
601.365,555.892
602.817,558.637
604.269,551.088
605.72,558.448
607.172,557.154
608.624,534.122
610.076,544.671
611.528,547.743
612.979,545.753
614.431,544.586
615.883,552.901
617.335,552.209
618.787,558.404
620.238,559.244
621.69,547.129
623.142,544.133
624.594,560.554
626.046,544.023
627.497,544.905
628.949,553.586
630.401,551.589
631.853,538.175
633.304,547.818
634.756,562.168
636.208,548.715
637.66,563.387
639.112,572.666
640.563,564.073
642.015,566.042
643.467,574.617
644.919,559.493
646.371,555.335
647.822,557.818
649.274,564.872
650.726,568.163
652.178,594.344
653.629,577.196
655.081,582.504
656.533,577.783
657.985,570.501
659.437,569.228
660.888,585.875
662.34,574.666
663.792,575.071
665.244,571.226
666.696,567.764
668.147,573.577
669.599,576.064
671.051,571.015
672.503,571.47
673.954,578.214
675.406,578.768
676.858,577.466
678.31,580.475
679.762,576.518
681.213,587.575
682.665,586.459
684.117,586.111
685.569,579.695
687.021,570.306
688.472,582.64
689.924,570.169
691.376,574.704
692.828,565.713
694.28,565.389
695.731,577.304
697.183,570.992
698.635,564.993
700.087,576.491
701.538,584.498
702.99,581.488
704.442,585.912
705.894,592.908
707.346,581.843
708.797,597.569
710.249,583.312
711.701,597.437
713.153,606.151
714.605,602.053
716.056,596.374
717.508,582.056
718.96,590.938
720.412,579.547
721.863,587.137
723.315,597.781
724.767,600.418
726.219,595.16
727.671,583.115
729.122,588.339
730.574,593.751
732.026,588.038
733.478,580.018
734.93,584.442
736.381,587.514
737.833,592.991
739.285,599.059
740.737,595.626
742.189,599.172
743.64,606.929
745.092,599.217
746.544,574.057
747.996,585.149
749.447,608.339
750.899,601.563
752.351,586.047
753.803,581.471
755.255,583.614
756.706,586.742
758.158,577.104
759.61,585.176
761.062,594.38
762.514,592.683
763.965,592.972
765.417,608.061
766.869,598.083
768.321,577.443
769.772,592.972
771.224,592.157
772.676,588.552
774.128,615.439
775.58,589.408
777.031,599.166
778.483,587.762
779.935,602.989
781.387,611.846
782.839,606.231
784.29,619.777
785.742,620.851
787.194,596.203
788.646,601.668
790.098,609.433
791.549,600.022
793.001,604.483
794.453,603.629
795.905,611.354
797.356,604.653
798.808,603.439
800.26,602.458
801.712,606.174
803.164,617.7
804.615,630.447
806.067,602.91
807.519,612.392
808.971,617.347
810.423,615.578
811.874,615.478
813.326,622.947
814.778,599.951
816.23,620.884
817.681,613.588
819.133,627.966
820.585,645.059
822.037,636.384
823.489,624.492
824.94,622.863
826.392,623.773
827.844,633.892
829.296,640.057
830.748,624.554
832.199,612.562
833.651,613.547
835.103,649.469
836.555,638.692
838.007,643.582
839.458,657.776
840.91,656.186
842.362,639.267
843.814,634.282
845.265,630.296
846.717,633.544
848.169,643.505
849.621,674.226
851.073,663.286
852.524,653.25
853.976,667.908
855.428,664.517
856.88,671.704
858.332,672.148
859.783,670.94
861.235,659.483
862.687,672.823
864.139,678.342
865.59,676.108
867.042,680.911
868.494,650.175
869.946,644.816
871.398,646.605
872.849,661.816
874.301,663.722
875.753,659.632
877.205,658.941
878.657,663.717
880.108,649.915
881.56,653.254
883.012,652.476
884.464,654.455
885.915,650.618
887.367,645.353
888.819,654.242
890.271,649.04
891.723,654.795
893.174,671.902
894.626,680.047
896.078,685.957
897.53,681.421
898.982,670.551
900.433,664.724
901.885,656.956
903.337,673.831
904.789,683.699
906.241,685.44
907.692,688.225
909.144,681.409
910.596,686.184
912.048,678.61
913.499,694.041
914.951,688.706
916.403,682.573
917.855,670.374
919.307,655.839
920.758,673.837
922.21,698.975
923.662,690.87
925.114,694.493
926.566,692.124
928.017,692.292
929.469,709.115
930.921,701.297
932.373,695.537
933.824,663.652
935.276,695.257
936.728,710.021
938.18,701.721
939.632,707.123
941.083,706.773
942.535,693.12
943.987,698.477
945.439,715.095
946.891,702.547
948.342,693.753
949.794,696.936
951.246,698.586
952.698,705.272
954.15,721.957
955.601,698.974
957.053,689.031
958.505,697.232
959.957,701.365
961.408,693.508
962.86,690.112
964.312,720.35
965.764,721.997
967.216,712.429
968.667,698.051
970.119,713.365
971.571,707.764
973.023,708.579
974.475,716.658
975.926,703.192
977.378,710.632
978.83,709.013
980.282,714.978
981.733,714.478
983.185,723.543
984.637,721.517
986.089,714.938
987.541,713.453
988.992,731.264
990.444,722.885
991.896,740.701
993.348,722.085
994.8,729.697
996.251,740.047
997.703,725.784
999.155,749.444
1000.61,730.542
1002.06,737.373
1003.51,743.292
1004.96,739.809
1006.41,732.282
1007.87,740.179
1009.32,752.416
1010.77,755.44
1012.22,763.225
1013.67,761.882
1015.12,752.895
1016.58,760.607
1018.03,752.158
1019.48,753.948
1020.93,774.5
1022.38,786.599
1023.84,795.937
1025.29,802.522
1026.74,793.159
1028.19,796.234
1029.64,809.305
1031.09,812.252
1032.55,798.953
1034,810.507
1035.45,821.62
1036.9,828.088
1038.35,843.392
1039.8,843.653
1041.26,847.731
1042.71,868.026
1044.16,875.462
1045.61,844.884
1047.06,849.457
1048.52,865.234
1049.97,877.032
1051.42,884.137
1052.87,896.582
1054.32,890.695
1055.77,894.825
1057.23,916.234
1058.68,927.216
1060.13,942.34
1061.58,931.115
1063.03,939.553
1064.49,958.345
1065.94,966.865
1067.39,947.416
1068.84,942.942
1070.29,982.592
1071.74,989.649
1073.2,992.428
1074.65,1005.13
1076.1,1016.74
1077.55,1025.56
1079,1014.73
1080.46,1008.92
1081.91,1017.95
1083.36,1010.82
1084.81,1055.61
1086.26,1060.33
1087.71,1069.69
1089.17,1055.83
1090.62,1016.05
1092.07,1037.59
1093.52,1062.22
1094.97,1039.18
1096.42,1028.8
1097.88,1046.53
1099.33,1019.81
1100.78,1016.91
1102.23,1023.17
1103.68,1023.01
1105.14,1006.6
1106.59,1004.25
1108.04,1009.81
1109.49,1000.41
1110.94,1003.96
1112.39,978.091
1113.85,987.056
1115.3,983.101
1116.75,981.277
1118.2,980.526
1119.65,968.468
1121.11,964.791
1122.56,955.325
1124.01,964.846
1125.46,965.282
1126.91,949.879
1128.36,952.834
1129.82,950.315
1131.27,936.904
1132.72,939.543
1134.17,921.067
1135.62,935.672
1137.07,919.995
1138.53,914.539
1139.98,933.727
1141.43,934.487
1142.88,910.94
1144.33,915.997
1145.79,930.819
1147.24,945.564
1148.69,922.91
1150.14,912.118
1151.59,926.642
1153.04,902.082
1154.5,903.802
1155.95,914.097
1157.4,923.561
1158.85,922.945
1160.3,919.57
1161.76,918.9
1163.21,912.402
1164.66,910.647
1166.11,900.129
1167.56,916.095
1169.01,920.55
1170.47,929.05
1171.92,934.366
1173.37,924.962
1174.82,947.666
1176.27,930.754
1177.72,930.652
1179.18,963.624
1180.63,935.459
1182.08,933.542
1183.53,948.694
1184.98,945.036
1186.44,942.118
1187.89,936.626
1189.34,939.34
1190.79,942.554
1192.24,927.466
1193.69,953.797
1195.15,965.875
1196.6,958.15
1198.05,944.869
1199.5,951.287
1200.95,970.996
1202.41,972.284
1203.86,965.902
1205.31,962.79
1206.76,993.9
1208.21,987.371
1209.66,973.404
1211.12,960.354
1212.57,974.08
1214.02,972.969
1215.47,954.39
1216.92,972.154
1218.37,982.249
1219.83,983.805
1221.28,988.584
1222.73,988.454
1224.18,984.398
1225.63,997.661
1227.09,1002.31
1228.54,987.26
1229.99,974.414
1231.44,991.14
1232.89,974.692
1234.34,1006.05
1235.8,1002.98
1237.25,995.808
1238.7,979.063
1240.15,1001.41
1241.6,1029.88
1243.06,1020.67
1244.51,1018.82
1245.96,1027.04
1247.41,1065.18
1248.86,1047.13
1250.31,1027.63
1251.77,1053.55
1253.22,1067.53
1254.67,1068.32
1256.12,1062.07
1257.57,1066.09
1259.02,1085.38
1260.48,1096.83
1261.93,1130.82
1263.38,1112.42
1264.83,1132
1266.28,1135.07
1267.74,1158.48
1269.19,1168.39
1270.64,1174.07
1272.09,1204.08
1273.54,1240.82
1274.99,1244.26
1276.45,1240.09
1277.9,1227.21
1279.35,1262.56
1280.8,1305.32
1282.25,1312.13
1283.71,1325.17
1285.16,1328.14
1286.61,1339.07
1288.06,1379.64
1289.51,1408.58
1290.96,1411.23
1292.42,1454.35
1293.87,1513.03
1295.32,1526.87
1296.77,1584.28
1298.22,1634.19
1299.67,1667.67
1301.13,1692.74
1302.58,1746.07
1304.03,1813.86
1305.48,1851.22
1306.93,1906.54
1308.39,1987.07
1309.84,2061.26
1311.29,2135.54
1312.74,2230.09
1314.19,2354.61
1315.64,2459.46
1317.1,2553.06
1318.55,2647.77
1320,2740.02
1321.45,2856.38
1322.9,3010.36
1324.36,3084.96
1325.81,3205.82
1327.26,3307.96
1328.71,3413.67
1330.16,3495.88
1331.61,3558.01
1333.07,3609.88
1334.52,3681.83
1335.97,3721.53
1337.42,3662.71
1338.87,3666.03
1340.33,3603.55
1341.78,3537.75
1343.23,3480.23
1344.68,3379.53
1346.13,3306.48
1347.58,3207.84
1349.04,3061.91
1350.49,2926.15
1351.94,2803.74
1353.39,2655.77
1354.84,2541.16
1356.29,2483.17
1357.75,2370.66
1359.2,2271.54
1360.65,2204.85
1362.1,2088.92
1363.55,1992.35
1365.01,1927.79
1366.46,1867.59
1367.91,1811.01
1369.36,1770.94
1370.81,1730.33
1372.26,1690.6
1373.72,1655.62
1375.17,1625.42
1376.62,1554.92
1378.07,1539.63
1379.52,1507.51
1380.98,1491.92
1382.43,1484.77
1383.88,1456.38
1385.33,1418.31
1386.78,1418.57
1388.23,1422.43
1389.69,1386.17
1391.14,1376.63
1392.59,1415.8
1394.04,1421.52
1395.49,1368.91
1396.94,1366.41
1398.4,1344.06
1399.85,1346.49
1401.3,1353.79
1402.75,1338.12
1404.2,1332.02
1405.66,1329.03
1407.11,1348.58
1408.56,1366.27
1410.01,1351.77
1411.46,1358.2
1412.91,1324.45
1414.37,1346.95
1415.82,1350.37
1417.27,1339.63
1418.72,1330.77
1420.17,1332.93
1421.63,1347.86
1423.08,1339.2
1424.53,1357.21
1425.98,1334.18
1427.43,1344.47
1428.88,1341.58
1430.34,1379.96
1431.79,1388.08
1433.24,1383.29
1434.69,1393.15
1436.14,1405.46
1437.59,1426.12
1439.05,1418.66
1440.5,1419.59
1441.95,1446.8
1443.4,1462.85
1444.85,1461.9
1446.31,1429.11
1447.76,1455.4
1449.21,1472.29
1450.66,1491.43
1452.11,1485.99
1453.56,1483.76
1455.02,1498.85
1456.47,1525.1
1457.92,1543.85
1459.37,1565.69
1460.82,1558.41
1462.28,1566.32
1463.73,1636.3
1465.18,1652.29
1466.63,1661.09
1468.08,1654.73
1469.53,1664.81
1470.99,1676.49
1472.44,1691.33
1473.89,1734.85
1475.34,1772.32
1476.79,1780.48
1478.24,1810.37
1479.7,1810.84
1481.15,1881.42
1482.6,1878.08
1484.05,1919.63
1485.5,1945.52
1486.96,1953.43
1488.41,1988.56
1489.86,2035.38
1491.31,2056.11
1492.76,2101.36
1494.21,2146.53
1495.67,2193.85
1497.12,2222.44
1498.57,2278.92
1500.02,2312.98
1501.47,2393.96
1502.93,2410.77
1504.38,2487.54
1505.83,2566.52
1507.28,2667.66
1508.73,2744.78
1510.18,2831.78
1511.64,2919.18
1513.09,3021.64
1514.54,3152.02
1515.99,3271.58
1517.44,3392.81
1518.89,3483.59
1520.35,3631.9
1521.8,3778.11
1523.25,3999.24
1524.7,4194.97
1526.15,4494.68
1527.61,4707.83
1529.06,5042.82
1530.51,5393.41
1531.96,5790.46
1533.41,6248.35
1534.86,6686.4
1536.32,7216.52
1537.77,7880.09
1539.22,8608.44
1540.67,9436.28
1542.12,10289.5
1543.58,11241.8
1545.03,12263.8
1546.48,13381
1547.93,14608.5
1549.38,15901
1550.83,17265.6
1552.29,18735.8
1553.74,20204
1555.19,21601.4
1556.64,23026.9
1558.09,24514.4
1559.54,25823.8
1561,27164.6
1562.45,28258.9
1563.9,29058.6
1565.35,29523.9
1566.8,30756.5
1568.26,29541.8
1569.71,29048
1571.16,28392.2
1572.61,27365.7
1574.06,26036.2
1575.51,24448.3
1576.97,22843.7
1578.42,21213.5
1579.87,19611.1
1581.32,18023.5
1582.77,16479.6
1584.23,15080.8
1585.68,13629.5
1587.13,12388.3
1588.58,11371
1590.03,10367.2
1591.48,9467.77
1592.94,8779.47
1594.39,8197.03
1595.84,7593.32
1597.29,7116.29
1598.74,6651.88
1600.2,6246.85
1601.65,5961.26
1603.1,5673.55
1604.55,5366.62
1606,5133.57
1607.45,4888.71
1608.91,4639.86
1610.36,4406.97
1611.81,4152.84
1613.26,4044.22
1614.71,3838.19
1616.16,3674.12
1617.62,3475.75
1619.07,3319.48
1620.52,3201.01
1621.97,3050.96
1623.42,2907.21
1624.88,2824.31
1626.33,2730.03
1627.78,2620.26
1629.23,2490.67
1630.68,2409.94
1632.13,2366.04
1633.59,2314.58
1635.04,2235.6
1636.49,2178.36
1637.94,2128.8
1639.39,2083.46
1640.85,2044.68
1642.3,2037.32
1643.75,1980.04
1645.2,1919.38
1646.65,1895.26
1648.1,1860.67
1649.56,1801.57
1651.01,1773.36
1652.46,1755.04
1653.91,1714.6
1655.36,1684.53
1656.81,1671.82
1658.27,1659.84
1659.72,1650.2
1661.17,1621.82
1662.62,1573.53
1664.07,1563.32
1665.53,1533.21
1666.98,1534.6
1668.43,1533.11
1669.88,1485.93
1671.33,1465.11
1672.78,1450.93
1674.24,1432.04
1675.69,1423.68
1677.14,1397.04
1678.59,1394.15
1680.04,1390.34
1681.5,1383.26
1682.95,1358.1
1684.4,1346.39
1685.85,1323.6
1687.3,1333.83
1688.75,1304.31
1690.21,1303.16
1691.66,1281.64
1693.11,1281.23
1694.56,1264.7
1696.01,1253.78
1697.46,1257.82
1698.92,1252.06
1700.37,1254.6
1701.82,1254.68
1703.27,1240.86
1704.72,1232.67
1706.18,1232.81
1707.63,1236.58
1709.08,1225.76
1710.53,1209.51
1711.98,1216.82
1713.43,1223.21
1714.89,1214.5
1716.34,1191.04
1717.79,1176.59
1719.24,1165.4
1720.69,1183.15
1722.15,1181.2
1723.6,1196.72
1725.05,1175.6
1726.5,1169.02
1727.95,1168.3
1729.4,1167
1730.86,1190.11
1732.31,1183.76
1733.76,1172.31
1735.21,1166.66
1736.66,1165.98
1738.11,1157.9
1739.57,1163.31
1741.02,1144.81
1742.47,1148.41
1743.92,1154.16
1745.37,1143.74
1746.83,1146.67
1748.28,1138.11
1749.73,1125.27
1751.18,1151.08
1752.63,1119.14
1754.08,1086.14
1755.54,1108.45
1756.99,1128.1
1758.44,1113.89
1759.89,1079.82
1761.34,1093.97
1762.8,1108.18
1764.25,1098.63
1765.7,1089.44
1767.15,1093.34
1768.6,1076.1
1770.05,1054.48
1771.51,1063.2
1772.96,1068.37
1774.41,1056.44
1775.86,1067.52
1777.31,1057.12
1778.76,1040.62
1780.22,1052.37
1781.67,1038.11
1783.12,1027.89
1784.57,1019.62
1786.02,999.707
1787.48,1042.92
1788.93,992.696
1790.38,1021.47
1791.83,1012.17
1793.28,1024.73
1794.73,1004.33
1796.19,1001.87
1797.64,1009.32
1799.09,999.754
1800.54,992.067
1801.99,1009.02
1803.45,1006.79
1804.9,977.535
1806.35,975.664
1807.8,982.49
1809.25,976.572
1810.7,996.419
1812.16,993.104
1813.61,972.663
1815.06,971.756
1816.51,968.857
1817.96,959.66
1819.41,971.144
1820.87,989.066
1822.32,991.353
1823.77,995.836
1825.22,1008.92
1826.67,1005.79
1828.13,1002.27
1829.58,1032.05
1831.03,981.499
1832.48,975.423
1833.93,976.701
1835.38,986.648
1836.84,978.989
1838.29,1006.51
1839.74,1011.32
1841.19,1015.88
1842.64,1023.56
1844.1,1009.32
1845.55,1013.6
1847,1025.85
1848.45,1040.74
1849.9,1068.3
1851.35,1073.19
1852.81,1058.54
1854.26,1046.94
1855.71,1050.46
1857.16,1055.51
1858.61,1052.94
1860.07,1050.3
1861.52,1063.82
1862.97,1066.95
1864.42,1060.41
1865.87,1062.48
1867.32,1065.39
1868.78,1067.48
1870.23,1060.95
1871.68,1077.96
1873.13,1049.84
1874.58,1056.91
1876.03,1045.04
1877.49,1030.21
1878.94,1025.55
1880.39,1009.94
1881.84,1011.43
1883.29,1026.65
1884.75,1044.17
1886.2,992.594
1887.65,1011.63
1889.1,1024.43
1890.55,1004.63
1892,997.133
1893.46,997.262
1894.91,987.871
1896.36,973.802
1897.81,954.834
1899.26,938.052
1900.72,960.845
1902.17,969.561
1903.62,957.419
1905.07,956.557
1906.52,946.286
1907.97,948.851
1909.43,937.812
1910.88,945.777
1912.33,935.357
1913.78,932.366
1915.23,930.81
1916.68,919.853
1918.14,901.592
1919.59,910.828
1921.04,922.877
1922.49,924.857
1923.94,943.063
1925.4,931.634
1926.85,912.107
1928.3,883.033
1929.75,921.604
1931.2,919.014
1932.65,907.741
1934.11,926.346
1935.56,929.365
1937.01,917.181
1938.46,901.102
1939.91,886.297
1941.37,897.701
1942.82,919.915
1944.27,933.208
1945.72,935.311
1947.17,925.358
1948.62,930.263
1950.08,929.93
1951.53,912.207
1952.98,938.775
1954.43,933.514
1955.88,927.049
1957.33,929.541
1958.79,926.966
1960.24,926.614
1961.69,927.411
1963.14,937.839
1964.59,937.663
1966.05,923.019
1967.5,928.179
1968.95,949.685
1970.4,940.646
1971.85,927.142
1973.3,922.805
1974.76,919.171
1976.21,922.204
1977.66,947.453
1979.11,965.439
1980.56,961.364
1982.02,949.815
1983.47,949.963
1984.92,957.215
1986.37,950.574
1987.82,973.367
1989.27,967.412
1990.73,961.596
1992.18,971.08
1993.63,969.06
1995.08,956.992
1996.53,983.786
1997.98,973.265
1999.44,978.748
2000.89,975.127
2002.34,951.417
2003.79,992.076
2005.24,980.295
2006.7,959.363
2008.15,955.548
2009.6,948.889
2011.05,934.079
2012.5,949.268
2013.95,948.129
2015.41,903.456
2016.86,993.891
2018.31,937.071
2019.76,918.323
2021.21,948.935
2022.67,938.265
2024.12,929.263
2025.57,928.077
2027.02,945.239
2028.47,935.978
2029.92,992.761
2031.38,939.127
2032.83,923.203
2034.28,901.502
2035.73,903.637
2037.18,919.35
2038.63,886.789
2040.09,897.753
2041.54,905.345
2042.99,892.046
2044.44,886.65
2045.89,893.623
2047.35,881.38
2048.8,892.212
2050.25,872.457
2051.7,865.419
2053.15,864.911
2054.6,861.907
2056.06,863.214
2057.51,870.557
2058.96,868.491
2060.41,843.108
2061.86,845.831
2063.32,848.128
2064.77,875.372
2066.22,859.983
2067.67,851.63
2069.12,858.401
2070.57,854.02
2072.03,844.917
2073.48,839.492
2074.93,827.28
2076.38,828.084
2077.83,829.254
2079.28,833.259
2080.74,827.766
2082.19,834.381
2083.64,830.102
2085.09,823.915
2086.54,831.717
2088,838.5
2089.45,833.07
2090.9,830.309
2092.35,829.327
2093.8,824.464
2095.25,816.145
2096.71,820.528
2098.16,820.426
2099.61,821.351
2101.06,811.181
2102.51,813.928
2103.97,837.257
2105.42,851.335
2106.87,835.21
2108.32,831.477
2109.77,824.872
2111.22,817.009
2112.68,834.735
2114.13,852.076
2115.58,829.74
2117.03,828.793
2118.48,859.49
2119.94,860.426
2121.39,846.742
2122.84,837.637
2124.29,842.301
2125.74,854.874
2127.19,858.062
2128.65,827.229
2130.1,839.829
2131.55,866.807
2133,849.196
2134.45,840.207
2135.9,854.613
2137.36,841.42
2138.81,833.943
2140.26,848.708
2141.71,868.331
2143.16,848.076
2144.62,858.926
2146.07,859.57
2147.52,855.366
2148.97,866.784
2150.42,863.165
2151.87,872.556
2153.33,884.269
2154.78,870.701
2156.23,866.726
2157.68,869.849
2159.13,877.92
2160.58,880.154
2162.04,882.542
2163.49,868.898
2164.94,864.17
2166.39,873.487
2167.84,888.023
2169.3,880.83
2170.75,870.457
2172.2,867.256
2173.65,892.162
2175.1,887.441
2176.55,879.007
2178.01,891.931
2179.46,894.62
2180.91,878.712
2182.36,879.96
2183.81,885.85
2185.27,884.096
2186.72,917.905
2188.17,926.075
2189.62,924.693
2191.07,916.451
2192.52,890.201
2193.98,905.237
2195.43,881.592
2196.88,893.454
2198.33,927.124
2199.78,921.36
2201.24,947.972
2202.69,915.974
2204.14,911.356
2205.59,917.674
2207.04,930.884
2208.49,899.373
2209.95,907.639
2211.4,928.244
2212.85,899.611
2214.3,916.386
2215.75,877.014
2217.2,899.16
2218.66,915.072
2220.11,903.609
2221.56,923.746
2223.01,925.32
2224.46,918.19
2225.92,889.487
2227.37,889.49
2228.82,894.078
2230.27,928.337
2231.72,931.578
2233.17,911.651
2234.63,937.237
2236.08,929.615
2237.53,909.516
2238.98,929.115
2240.43,932.801
2241.89,943.674
2243.34,938.404
2244.79,937.765
2246.24,952.769
2247.69,956.252
2249.14,948.907
2250.6,944.776
2252.05,939.506
2253.5,946.184
2254.95,942.461
2256.4,933.014
2257.85,957.724
2259.31,974.321
2260.76,952.047
2262.21,956.094
2263.66,952.334
2265.11,956.409
2266.57,970.737
2268.02,965.661
2269.47,959.614
2270.92,956.928
2272.37,947.962
2273.82,977.887
2275.28,965.069
2276.73,957.511
2278.18,961.762
2279.63,963.031
2281.08,978.48
2282.54,989.214
2283.99,980.573
2285.44,1012.21
2286.89,1004.17
2288.34,1000.89
2289.79,1008.23
2291.25,1013.75
2292.7,1004.35
2294.15,993.4
2295.6,1009.81
2297.05,1001.24
2298.5,1017.18
2299.96,1028.89
2301.41,1042.06
2302.86,1015.82
2304.31,997.17
2305.76,1057.95
2307.22,1063.15
2308.67,1036.49
2310.12,1029.22
2311.57,1026.1
2313.02,1064.02
2314.47,1083.49
2315.93,1051.38
2317.38,1052.86
2318.83,1068.34
2320.28,1032.54
2321.73,1041.06
2323.19,1064.83
2324.64,1083.65
2326.09,1088.28
2327.54,1092.19
2328.99,1081.22
2330.44,1086.01
2331.9,1094.28
2333.35,1093.55
2334.8,1106.3
2336.25,1110.33
2337.7,1113.69
2339.16,1110.27
2340.61,1110.46
2342.06,1132.44
2343.51,1141.72
2344.96,1139.79
2346.41,1154.61
2347.87,1136.47
2349.32,1144.98
2350.77,1180.98
2352.22,1186.78
2353.67,1191.01
2355.12,1193.52
2356.58,1196.22
2358.03,1186.45
2359.48,1212.6
2360.93,1184.4
2362.38,1204.75
2363.84,1221.69
2365.29,1225.13
2366.74,1222.68
2368.19,1242.63
2369.64,1271.18
2371.09,1294.32
2372.55,1318.96
2374,1320.55
2375.45,1350.37
2376.9,1350
2378.35,1361.66
2379.8,1398.53
2381.26,1395.24
2382.71,1407.06
2384.16,1409.77
2385.61,1432.9
2387.06,1454.66
2388.52,1447.9
2389.97,1504.71
2391.42,1532.17
2392.87,1561.93
2394.32,1585.67
2395.77,1635.62
2397.23,1612.41
2398.68,1624.08
2400.13,1679.06
2401.58,1721.32
2403.03,1762.17
2404.49,1770.31
2405.94,1802.39
2407.39,1850.43
2408.84,1871.37
2410.29,1899.21
2411.74,1920.33
2413.2,1946.66
2414.65,1963.79
2416.1,2027.9
2417.55,2068.23
2419,2066.27
2420.46,2069.62
2421.91,2079.66
2423.36,2050.1
2424.81,2070.06
2426.26,2133.36
2427.71,2122.73
2429.17,2128.78
2430.62,2179.99
2432.07,2152.11
2433.52,2157.47
2434.97,2097.53
2436.42,2116.48
2437.88,2142.05
2439.33,2116.62
2440.78,2109.34
2442.23,2081.97
2443.68,2059.66
2445.14,2079.34
2446.59,2050.04
2448.04,2061.44
2449.49,2059.66
2450.94,2035.39
2452.39,2000.09
2453.85,1994.15
2455.3,1976.19
2456.75,1966.22
2458.2,1950.72
2459.65,1940.92
2461.1,1925.58
2462.56,1904.77
2464.01,1916.44
2465.46,1896.58
2466.91,1854.9
2468.36,1870.87
2469.82,1831.12
2471.27,1889.41
2472.72,1879.87
2474.17,1841.31
2475.62,1823.79
2477.07,1803.89
2478.53,1796.57
2479.98,1779.38
2481.43,1787.36
2482.88,1825.75
2484.33,1827.69
2485.79,1830.3
2487.24,1793.85
2488.69,1793.23
2490.14,1788.09
2491.59,1811.71
2493.04,1807.46
2494.5,1805.74
2495.95,1786.8
2497.4,1812.82
2498.85,1793.35
2500.3,1825.87
2501.76,1839.87
2503.21,1831.51
2504.66,1860.36
2506.11,1841.12
2507.56,1824.67
2509.01,1812.64
2510.47,1878.91
2511.92,1861.22
2513.37,1861.92
2514.82,1901.17
2516.27,1910.26
2517.72,1924.85
2519.18,1918.03
2520.63,1899.98
2522.08,1927.3
2523.53,1954.03
2524.98,1969.94
2526.44,1946.65
2527.89,1973.63
2529.34,2008.63
2530.79,2044.23
2532.24,2056.78
2533.69,2062.76
2535.15,2093.01
2536.6,2084.09
2538.05,2173.23
2539.5,2148.64
2540.95,2171.86
2542.41,2198.4
2543.86,2231.48
2545.31,2258.35
2546.76,2282.17
2548.21,2266.52
2549.66,2310.5
2551.12,2350.98
2552.57,2422.17
2554.02,2462.3
2555.47,2467.2
2556.92,2491.53
2558.37,2526.48
2559.83,2579.76
2561.28,2606.33
2562.73,2634.49
2564.18,2735.12
2565.63,2798.48
2567.09,2818.7
2568.54,2863.9
2569.99,2913.92
2571.44,2979.04
2572.89,3018.05
2574.34,3084.83
2575.8,3096.83
2577.25,3254.37
2578.7,3358.42
2580.15,3411.45
2581.6,3470.3
2583.06,3539.59
2584.51,3618.55
2585.96,3733.75
2587.41,3875.36
2588.86,3970
2590.31,4060.49
2591.77,4146.87
2593.22,4307.56
2594.67,4423.16
2596.12,4560.25
2597.57,4741.93
2599.02,4884.01
2600.48,5031.6
2601.93,5198.25
2603.38,5365.96
2604.83,5598.69
2606.28,5778.32
2607.74,6029.38
2609.19,6194.98
2610.64,6449.94
2612.09,6634.46
2613.54,6927.29
2614.99,7216.6
2616.45,7510.08
2617.9,7825
2619.35,8145.42
2620.8,8447.18
2622.25,8810.1
2623.71,9162.3
2625.16,9570.85
2626.61,9937.98
2628.06,10301.7
2629.51,10810.5
2630.96,11176.6
2632.42,11689.6
2633.87,12096.3
2635.32,12549.6
2636.77,12989.2
2638.22,13487.8
2639.68,13910.1
2641.13,14261
2642.58,14674.7
2644.03,15141.5
2645.48,15530.4
2646.93,15996.9
2648.39,16224.9
2649.84,16660.1
2651.29,16960
2652.74,17191.2
2654.19,17396.2
2655.64,17704.5
2657.1,17805.7
2658.55,17926.7
2660,18039.9
2661.45,18007.7
2662.9,17885.2
2664.36,17787.3
2665.81,17682.9
2667.26,17443.4
2668.71,17322.2
2670.16,17136.3
2671.61,16889.6
2673.07,16481.8
2674.52,16125.9
2675.97,15606.4
2677.42,15262.7
2678.87,14826.5
2680.32,14449.8
2681.78,13954.1
2683.23,13458
2684.68,12978.1
2686.13,12536.6
2687.58,12027.1
2689.04,11648.5
2690.49,11147.7
2691.94,10726.9
2693.39,10263.9
2694.84,9814.53
2696.29,9405.16
2697.75,8990.17
2699.2,8663.47
2700.65,8283.92
2702.1,7888.72
2703.55,7546.62
2705.01,7193.18
2706.46,6948.19
2707.91,6622.46
2709.36,6364.05
2710.81,6077.88
2712.26,5789.92
2713.72,5607.21
2715.17,5405.03
2716.62,5179.66
2718.07,4937.47
2719.52,4786.16
2720.98,4627.52
2722.43,4425.91
2723.88,4281.16
2725.33,4152.12
2726.78,3988.23
2728.23,3837.78
2729.69,3776.63
2731.14,3622.25
2732.59,3502.49
2734.04,3423.77
2735.49,3325.22
2736.94,3215.36
2738.4,3132.33
2739.85,3045.93
2741.3,2931.21
2742.75,2896.9
2744.2,2875
2745.66,2738.28
2747.11,2675.27
2748.56,2626.06
2750.01,2590.14
2751.46,2548.09
2752.91,2512.99
2754.37,2436.98
2755.82,2396.39
2757.27,2344.71
2758.72,2310.66
2760.17,2218.51
2761.63,2216.12
2763.08,2191.21
2764.53,2124.81
2765.98,2130.06
2767.43,2094.57
2768.88,2022.22
2770.34,2026.51
2771.79,1979.97
2773.24,1943.62
2774.69,1916.56
2776.14,1898.62
2777.59,1921.62
2779.05,1854.46
2780.5,1836.82
2781.95,1826.9
2783.4,1836.22
2784.85,1814.59
2786.31,1774.1
2787.76,1744.64
2789.21,1743.44
2790.66,1716.98
2792.11,1695.26
2793.56,1663.45
2795.02,1660.34
2796.47,1654.24
2797.92,1651.85
2799.37,1628.53
2800.82,1629.19
2802.28,1625.37
2803.73,1585.18
2805.18,1574.03
2806.63,1576.4
2808.08,1554.27
2809.53,1520.64
2810.99,1530.72
2812.44,1527.38
2813.89,1484.11
2815.34,1490.17
2816.79,1468.89
2818.24,1483.68
2819.7,1482.05
2821.15,1468.86
2822.6,1448.26
2824.05,1439.39
2825.5,1434.66
2826.96,1449.12
2828.41,1429.05
2829.86,1442.53
2831.31,1394.53
2832.76,1378.22
2834.21,1395.81
2835.67,1405.07
2837.12,1402.04
2838.57,1400.55
2840.02,1361.28
2841.47,1385.11
2842.93,1334.68
2844.38,1353.84
2845.83,1341.3
2847.28,1325.9
2848.73,1317.57
2850.18,1339
2851.64,1333.74
2853.09,1340.93
2854.54,1332.92
2855.99,1320.88
2857.44,1301.06
2858.9,1332.57
2860.35,1313.03
2861.8,1301.94
2863.25,1323.97
2864.7,1304.01
2866.15,1308.81
2867.61,1321.47
2869.06,1333.02
2870.51,1324.17
2871.96,1381.25
2873.41,1338.85
2874.86,1338.82
2876.32,1304.26
2877.77,1319.75
2879.22,1309.71
2880.67,1327.12
2882.12,1349.47
2883.58,1346.05
2885.03,1341.95
2886.48,1332.99
2887.93,1296.08
2889.38,1318.36
2890.83,1306.33
2892.29,1352.95
2893.74,1332.24
2895.19,1311.71
2896.64,1306.71
2898.09,1307.01
2899.54,1311.74
2901,1296.62
2902.45,1297.81
2903.9,1353.49
2905.35,1299.53
2906.8,1325.74
2908.26,1327.05
2909.71,1321.26
2911.16,1299.44
2912.61,1287.13
2914.06,1269.92
2915.51,1281.41
2916.97,1265.91
2918.42,1281.07
2919.87,1271.6
2921.32,1276.5
2922.77,1256.31
2924.23,1246.04
2925.68,1230.68
2927.13,1232.16
2928.58,1256.69
2930.03,1224.66
2931.48,1223.51
2932.94,1187.12
2934.39,1203.18
2935.84,1192.95
2937.29,1184.01
2938.74,1162.4
2940.2,1169.13
2941.65,1142.8
2943.1,1109.41
2944.55,1115.6
2946,1121.18
2947.45,1083.61
2948.91,1067.2
2950.36,1079.06
2951.81,1090.64
2953.26,1050.78
2954.71,1059.81
2956.16,1073.86
2957.62,1051.17
2959.07,1031.07
2960.52,1039.27
2961.97,1016.11
2963.42,1013.85
2964.88,979.665
2966.33,982.851
2967.78,1005.17
2969.23,989.205
2970.68,976.998
2972.13,982.481
2973.59,958.076
2975.04,952.269
2976.49,963.994
2977.94,957.002
2979.39,948.111
2980.84,942.905
2982.3,945.647
2983.75,926.846
2985.2,921.936
2986.65,903.986
2988.1,925.552
2989.56,926.364
2991.01,922.912
2992.46,929.698
2993.91,916.683
2995.36,905.79
2996.81,892.031
2998.27,897.63
2999.72,901.774
3001.17,881.376
3002.62,878.324
3004.07,871.225
3005.53,901.008
3006.98,892.023
3008.43,879.158
3009.88,880.873
3011.33,876.461
3012.78,879.932
3014.24,879.751
3015.69,846.905
3017.14,868.309
3018.59,860.727
3020.04,852.613
3021.5,868.45
3022.95,860.753
3024.4,858.606
3025.85,870.245
3027.3,867.122
3028.75,848.984
3030.21,890.071
3031.66,844.029
3033.11,862.731
3034.56,872.123
3036.01,852.208
3037.46,853.788
3038.92,858.977
3040.37,844.431
3041.82,857.225
3043.27,870.212
3044.72,839.141
3046.18,849.763
3047.63,855.762
3049.08,859.837
3050.53,862.447
3051.98,861.273
3053.43,856.24
3054.89,855.958
3056.34,858.176
3057.79,859.367
3059.24,876.246
3060.69,871.546
3062.15,868.671
3063.6,866.812
3065.05,872.808
3066.5,884.764
3067.95,875.057
3069.4,861.473
3070.86,871.81
3072.31,877.794
3073.76,878.736
3075.21,906.736
3076.66,877.271
3078.11,911.576
3079.57,909.414
3081.02,910.099
3082.47,909.816
3083.92,923.336
3085.37,926.688
3086.83,946.091
3088.28,931.273
3089.73,934.44
3091.18,934.801
3092.63,959.197
3094.08,985.111
3095.54,981.397
3096.99,987.519
3098.44,1024
3099.89,1012.94
3101.34,1012.71
3102.8,1056.13
3104.25,1081.62
3105.7,1095.63
3107.15,1115.11
3108.6,1108.22
3110.05,1115.53
3111.51,1131.32
3112.96,1147.87
3114.41,1201.52
3115.86,1193.11
3117.31,1202.97
3118.76,1184.93
3120.22,1230.38
3121.67,1252.34
3123.12,1251.32
3124.57,1275.74
3126.02,1309.58
3127.48,1302.68
3128.93,1377.61
3130.38,1360.7
3131.83,1350.07
3133.28,1359.84
3134.73,1388.64
3136.19,1374.52
3137.64,1381.99
3139.09,1365.22
3140.54,1411.01
3141.99,1418.14
3143.45,1427.56
3144.9,1411.45
3146.35,1427.22
3147.8,1440.78
3149.25,1466.57
3150.7,1446.43
3152.16,1488.54
3153.61,1476.38
3155.06,1446.18
3156.51,1458.47
3157.96,1466.16
3159.42,1485.82
3160.87,1440.11
3162.32,1476.06
3163.77,1483.29
3165.22,1480.07
3166.67,1502.77
3168.13,1505.82
3169.58,1479.19
3171.03,1465.07
3172.48,1497.69
3173.93,1494.73
3175.38,1524.39
3176.84,1556.65
3178.29,1555.01
3179.74,1588.03
3181.19,1590.61
3182.64,1608.98
3184.1,1654.48
3185.55,1627.84
3187,1660.69
3188.45,1671.57
3189.9,1665.68
3191.35,1709.82
3192.81,1697.77
3194.26,1699.34
3195.71,1727.12
3197.16,1728.79
3198.61,1711.11
3200.06,1763.21
3201.52,1755.2
3202.97,1759.57
3204.42,1721.07
3205.87,1739.35
3207.32,1747.46
3208.78,1716.87
3210.23,1742.37
3211.68,1665.89
3213.13,1618.06
3214.58,1606.22
3216.03,1572.47
3217.49,1562.23
3218.94,1526.18
3220.39,1495.01
3221.84,1456.8
3223.29,1430.92
3224.75,1366.59
3226.2,1336.92
3227.65,1322.83
3229.1,1283.12
3230.55,1242.51
3232,1218.32
3233.46,1178.82
3234.91,1144.95
3236.36,1122.62
3237.81,1125.38
3239.26,1056.01
3240.72,1011.6
3242.17,1002.38
3243.62,1002.05
3245.07,974.367
3246.52,944.285
3247.97,907.278
3249.43,934.348
3250.88,878.32
3252.33,854.402
3253.78,847.538
3255.23,835.841
3256.68,818.056
3258.14,850.865
3259.59,820.166
3261.04,805.088
3262.49,787.068
3263.94,786.065
3265.4,769.879
3266.85,745.908
3268.3,773.895
3269.75,771.857
3271.2,748.467
3272.65,755.513
3274.11,742.882
3275.56,739.094
3277.01,734.549
3278.46,730.045
3279.91,717.647
3281.37,718.807
3282.82,731.656
3284.27,737.665
3285.72,694.936
3287.17,712.652
3288.62,708.047
3290.08,702.135
3291.53,694.051
3292.98,678.751
3294.43,706.163
3295.88,689.171
3297.33,698.463
3298.79,697.515
3300.24,713.851
3301.69,697.442
3303.14,698.147
3304.59,684.714
3306.05,735.02
3307.5,698.248
3308.95,690.72
3310.4,693.607
3311.85,683.269
3313.3,682.78
3314.76,677.201
3316.21,691.194
3317.66,686.026
3319.11,671.102
3320.56,684.37
3322.02,673.867
3323.47,678.729
3324.92,684.546
3326.37,689.697
3327.82,689.331
3329.27,683.39
3330.73,677.841
3332.18,684.04
3333.63,692.054
3335.08,660.827
3336.53,656.621
3337.98,690.459
3339.44,666.524
3340.89,667.507
3342.34,674.261
3343.79,682.846
3345.24,674.052
3346.7,669.291
3348.15,662.611
3349.6,668.902
3351.05,672.471
3352.5,650.819
3353.95,676.112
3355.41,661.824
3356.86,637.379
3358.31,655.107
3359.76,680.324
3361.21,667.554
3362.67,673.994
3364.12,658.62
3365.57,664.361
3367.02,669.821
3368.47,654.255
3369.92,665.327
3371.38,675.515
3372.83,665.521
3374.28,636.124
3375.73,645.662
3377.18,664.184
3378.63,669.737
3380.09,676.385
3381.54,644.947
3382.99,644.426
3384.44,644.155
3385.89,638.473
3387.35,657.033
3388.8,641.688
3390.25,650.376
3391.7,640.555
3393.15,637.193
3394.6,647.079
3396.06,655.127
3397.51,659.416
3398.96,667.469
3400.41,647.434
3401.86,643.634
3403.32,652.267
3404.77,657.472
3406.22,673.61
3407.67,639.626
3409.12,648.611
3410.57,641.28
3412.03,635.158
3413.48,621.585
3414.93,657.959
3416.38,655.381
3417.83,643.539
3419.28,641.364
3420.74,672.165
3422.19,638.549
3423.64,661.152
3425.09,648.605
3426.54,636.191
3428,616.887
3429.45,648.088
3430.9,652.9
3432.35,658.249
3433.8,658.924
3435.25,629.635
3436.71,633.481
3438.16,633.444
3439.61,656.294
3441.06,651.746
3442.51,633.539
3443.97,625.854
3445.42,618.517
3446.87,649.047
3448.32,629.871
3449.77,624.212
3451.22,629.095
3452.68,659.148
3454.13,617.157
3455.58,620.225
3457.03,652.315
3458.48,635.695
3459.94,637.219
3461.39,623.248
3462.84,635.445
3464.29,640.74
3465.74,637.926
3467.19,638.242
3468.65,614.134
3470.1,645.285
3471.55,635.163
3473,617.321
3474.45,602.052
3475.9,638.807
3477.36,653.585
3478.81,658.071
3480.26,648.399
3481.71,619.18
3483.16,635.781
3484.62,605.98
3486.07,643.832
3487.52,626.097
3488.97,611.611
3490.42,631.127
3491.87,636.142
3493.33,644.85
3494.78,630.279
3496.23,630.404
3497.68,632.86
3499.13,631.69
3500.58,640.965
3502.04,654.544
3503.49,630.352
3504.94,615.044
3506.39,607.644
3507.84,637.909
3509.3,659.936
3510.75,662.731
3512.2,627.888
3513.65,629.807
3515.1,642.137
3516.55,633.013
3518.01,643.436
3519.46,636.537
3520.91,632.461
3522.36,630.65
3523.81,634.219
3525.27,635.127
3526.72,620.751
3528.17,640.089
3529.62,626.861
3531.07,637.89
3532.52,645.728
3533.98,640.776
3535.43,649.956
3536.88,638.835
3538.33,613.279
3539.78,634.066
3541.24,639.633
3542.69,623.001
3544.14,640.988
3545.59,644.789
3547.04,631.421
3548.49,624.176
3549.95,637.949
3551.4,625.139
3552.85,615.119
3554.3,618.531
3555.75,642.412
3557.2,649.434
3558.66,626.322
3560.11,621.431
3561.56,628.241
3563.01,629.46
3564.46,633.375
3565.92,633.278
3567.37,627.881
3568.82,630.477
3570.27,631.696
3571.72,616.442
3573.17,623.399
3574.63,636.27
3576.08,632.875
3577.53,648.292
3578.98,604.845
3580.43,622.011
3581.89,617.48
3583.34,619.245
3584.79,610.068
3586.24,638.767
3587.69,619.276
3589.14,636.445
3590.6,637.846
3592.05,621.12
3593.5,622.72
3594.95,617.436
3596.4,610.225
3597.85,610.883
3599.31,632.836
3600.76,635.726
3602.21,614.22
3603.66,634.584
3605.11,597.173
3606.57,633.571
3608.02,631.221
3609.47,625.364
3610.92,630.219
3612.37,648.966
3613.82,622.804
3615.28,626.476
3616.73,612.471
3618.18,649.315
3619.63,610.982
3621.08,637.932
3622.54,630.667
3623.99,636.778
3625.44,642.296
3626.89,634.45
3628.34,615.499
3629.79,620.122
3631.25,622.492
3632.7,629.518
3634.15,622.283
3635.6,617.971
3637.05,611.741
3638.5,628.814
3639.96,622.35
3641.41,630.986
3642.86,625.984
3644.31,614.63
3645.76,630.143
3647.22,622.505
3648.67,622.638
3650.12,611.96
3651.57,616.46
3653.02,605.325
3654.47,628.3
3655.93,654.288
3657.38,629.693
3658.83,636.723
3660.28,628.99
3661.73,628.777
3663.19,617.67
3664.64,636.623
3666.09,604.263
3667.54,625.484
3668.99,629.391
3670.44,645.26
3671.9,628.429
3673.35,621.084
3674.8,648.226
3676.25,639.108
3677.7,610.111
3679.16,628.226
3680.61,628.995
3682.06,644.644
3683.51,629.381
3684.96,635.45
3686.41,635.183
3687.87,627.65
3689.32,638.112
3690.77,614.105
3692.22,640.589
3693.67,622.708
3695.12,627.793
3696.58,633.509
3698.03,639.815
3699.48,640.27
3700.93,639.692
3702.38,627.944
3703.84,647.145
3705.29,634.248
3706.74,617.658
3708.19,634.798
3709.64,664.55
3711.09,648.445
3712.55,641.785
3714,625.938
3715.45,630.61
3716.9,636.3
3718.35,642.993
3719.8,650.194
3721.26,636.004
3722.71,622.135
3724.16,635.725
3725.61,646.272
3727.06,645.913
3728.52,635.138
3729.97,631.461
3731.42,645.779
3732.87,641.546
3734.32,636.4
3735.77,658.788
3737.23,655.282
3738.68,643.211
3740.13,619.975
3741.58,651.657
3743.03,626.828
3744.49,631.284
3745.94,662.321
3747.39,644.245
3748.84,650.818
3750.29,659.152
3751.74,638.432
3753.2,639.568
3754.65,639.507
3756.1,623.886
3757.55,643.814
3759,635.464
3760.46,648.599
3761.91,654.355
3763.36,657.992
3764.81,660.075
3766.26,664.128
3767.71,631.677
3769.17,642.541
3770.62,657.39
3772.07,625.464
3773.52,634.164
3774.97,647.398
3776.42,630.755
3777.88,644.213
3779.33,646.335
3780.78,662.121
3782.23,663.4
3783.68,665.189
3785.14,679.805
3786.59,648.126
3788.04,641.334
3789.49,631.893
3790.94,659.766
3792.39,660.274
3793.85,653.375
3795.3,664.259
3796.75,668.263
3798.2,661.882
3799.65,655.651
3801.1,657.877
3802.56,619.173
3804.01,667.205
3805.46,656.69
3806.91,653.733
3808.36,675.434
3809.82,668.749
3811.27,655.041
3812.72,651.34
3814.17,654.484
3815.62,679.881
3817.07,671.792
3818.53,671.062
3819.98,701.089
3821.43,648.547
3822.88,649.855
3824.33,650.484
3825.79,669.856
3827.24,708.111
3828.69,705.201
3830.14,656.174
3831.59,682.571
3833.04,657.767
3834.5,665.387
3835.95,669.584
3837.4,678.827
3838.85,670.036
3840.3,668.535
3841.76,712.119
3843.21,640.651
3844.66,664.891
3846.11,665.977
3847.56,650.24
3849.01,706.503
3850.47,648.494
3851.92,676.168
3853.37,645.184
3854.82,656.806
3856.27,683.073
3857.72,683.894
3859.18,694.745
3860.63,691.887
3862.08,658.116
3863.53,683.633
3864.98,693.468
3866.44,717.496
3867.89,679.368
3869.34,671.244
3870.79,688.882
3872.24,692.284
3873.69,681.874
3875.15,692.135
3876.6,667.489
3878.05,677.867
3879.5,701.225
3880.95,675.207
3882.41,687.196
3883.86,700.562
3885.31,685.6
3886.76,681.701
3888.21,694.184
3889.66,697.014
3891.12,690.867
3892.57,718.832
3894.02,716.06
3895.47,721.699
3896.92,710.217
3898.37,709.508
3899.83,703.764
3901.28,693.154
3902.73,713.99
3904.18,704.3
3905.63,723.857
3907.09,714.853
3908.54,717.191
3909.99,737.143
3911.44,725.937
3912.89,728.359
3914.34,727.014
3915.8,700.382
3917.25,719.176
3918.7,753.45
3920.15,742.768
3921.6,766.755
3923.06,743.284
3924.51,715.606
3925.96,756.05
3927.41,749.468
3928.86,739.62
3930.31,782.579
3931.77,760.658
3933.22,764.592
3934.67,767.873
3936.12,764.152
3937.57,768.441
3939.02,771.921
3940.48,763.859
3941.93,754.043
3943.38,761.391
3944.83,773.351
3946.28,769.268
3947.74,772.618
3949.19,769.752
3950.64,777.862
3952.09,760.671
3953.54,752.889
3954.99,784.759
3956.45,779.049
3957.9,770.568
3959.35,817.544
3960.8,783.198
3962.25,795.162
3963.71,782.531
3965.16,786.517
3966.61,798.751
3968.06,796.91
3969.51,803.979
3970.96,789.07
3972.42,801.725
3973.87,804.617
3975.32,814.057
3976.77,805.001
3978.22,813.712
3979.68,811.171
3981.13,806.968
3982.58,831.942
3984.03,818.739
3985.48,845.353
3986.93,810.072
3988.39,835.308
3989.84,862.642
3991.29,835.439
3992.74,831.607
3994.19,823.039
3995.64,845.887
3997.1,846.173
3998.55,853.722
4000,851.256
