-20,21.1738
-18.5482,25.5296
-17.0964,22.0481
-15.6446,18.4609
-14.1928,23.8652
-12.7411,28.2896
-11.2893,30.3642
-9.83749,32.2327
-8.3857,39.5693
-6.93391,52.1578
-5.48212,163.826
-4.03034,63.6643
-2.57855,63.6643
-1.12676,63.6643
0.325027,63.6643
1.77681,63.6643
3.2286,63.6643
4.68039,63.6643
6.13218,63.6643
7.58397,315.644
9.03575,68.0393
10.4875,59.0673
11.9393,60.3255
13.3911,63.3616
14.8429,62.6046
16.2947,59.397
17.7465,55.7756
19.1983,47.036
20.6501,40.4529
22.1018,35.909
23.5536,32.2773
25.0054,28.5986
26.4572,26.0185
27.909,23.9428
29.3608,22.5299
30.8126,20.2652
32.2644,19.9745
33.7161,18.2791
35.1679,17.5823
36.6197,18.2666
38.0715,20.5723
39.5233,20.6246
40.9751,21.4331
42.4269,23.5486
43.8787,25.6249
45.3304,30.6011
46.7822,35.4745
48.234,49.8488
49.6858,81.6432
51.1376,134.957
52.5894,220.854
54.0412,350.734
55.493,528.338
56.9447,742.926
58.3965,970.634
59.8483,1195.61
61.3001,1350.64
62.7519,1469.29
64.2037,1577.37
65.6555,1629.8
67.1073,1682.37
68.559,1711.96
70.0108,1734.92
71.4626,1788.09
72.9144,1822.99
74.3662,1845.31
75.818,1867.67
77.2698,1904.37
78.7216,1979.44
80.1733,2035.04
81.6251,2085.91
83.0769,2112.4
84.5287,2125.17
85.9805,2138.93
87.4323,2100.76
88.8841,2039.38
90.3359,1981.32
91.7877,1907.73
93.2394,1832.16
94.6912,1735.78
96.143,1666.92
97.5948,1607.75
99.0466,1517.27
100.498,1485.64
101.95,1421.77
103.402,1373.31
104.854,1342.48
106.306,1327.6
107.757,1312.59
109.209,1303.34
110.661,1285.31
112.113,1257.86
113.564,1245.33
115.016,1235.09
116.468,1211.81
117.92,1190.8
119.372,1176.83
120.823,1156.31
122.275,1118.35
123.727,1086.62
125.179,1058.28
126.631,1046.76
128.082,1047.38
129.534,1006.65
130.986,987.987
132.438,979.056
133.889,956.305
135.341,940.331
136.793,932.8
138.245,914.734
139.697,899.775
141.148,879.047
142.6,875.048
144.052,854.486
145.504,835.082
146.956,824.931
148.407,820.136
149.859,820.994
151.311,798.977
152.763,781.253
154.215,780.046
155.666,780.321
157.118,763.921
158.57,789.34
160.022,796.288
161.473,791.274
162.925,796.404
164.377,828.003
165.829,839.142
167.281,846.79
168.732,857.558
170.184,843.278
171.636,805.767
173.088,777.015
174.54,749.778
175.991,716.499
177.443,707.184
178.895,699.276
180.347,701.176
181.798,690.908
183.25,679.097
184.702,673.061
186.154,672.057
187.606,665.502
189.057,658.015
190.509,651.422
191.961,643.596
193.413,663.904
194.865,659.224
196.316,650.546
197.768,641.212
199.22,651.43
200.672,640.842
202.124,642.182
203.575,644.895
205.027,629.904
206.479,634.271
207.931,637.329
209.382,644.98
210.834,641.938
212.286,627.492
213.738,624.817
215.19,638.861
216.641,638.548
218.093,638.756
219.545,636.124
220.997,622.289
222.449,619.092
223.9,615.039
225.352,622.313
226.804,626.8
228.256,616.702
229.707,613.124
231.159,620.078
232.611,625.763
234.063,627.711
235.515,639.602
236.966,618.726
238.418,620.508
239.87,628.767
241.322,624.18
242.774,612.365
244.225,607.967
245.677,611.712
247.129,611.32
248.581,608.947
250.033,591.522
251.484,604.967
252.936,600.079
254.388,591.952
255.84,590.587
257.291,609.901
258.743,608.272
260.195,589.234
261.647,592.638
263.099,593.891
264.55,570.18
266.002,564.868
267.454,575.848
268.906,580.239
270.358,575.686
271.809,577.08
273.261,579.777
274.713,567.73
276.165,571.562
277.616,567.825
279.068,549.048
280.52,545.878
281.972,560.896
283.424,552.891
284.875,546.018
286.327,542.558
287.779,548.961
289.231,550.519
290.683,540.774
292.134,529.9
293.586,524.555
295.038,534.829
296.49,526.02
297.941,514.2
299.393,525.159
300.845,524.498
302.297,497.309
303.749,498.026
305.2,498.824
306.652,500.746
308.104,498.957
309.556,494.784
311.008,490.259
312.459,492.702
313.911,483.417
315.363,488.039
316.815,499.221
318.267,472.509
319.718,468.135
321.17,470.693
322.622,471.263
324.074,474.223
325.525,471.03
326.977,472.314
328.429,467.162
329.881,472.791
331.333,476.405
332.784,465.5
334.236,469.945
335.688,454.863
337.14,461.429
338.592,459.485
340.043,444.149
341.495,450.782
342.947,474.389
344.399,458.362
345.85,448.802
347.302,456.501
348.754,466.487
350.206,464.235
351.658,463.246
353.109,454.386
354.561,449.096
356.013,449.717
357.465,438.838
358.917,445.629
360.368,453.229
361.82,450.891
363.272,442.196
364.724,437.591
366.176,441.345
367.627,446.592
369.079,445.037
370.531,443.848
371.983,455.082
373.434,444.074
374.886,443.928
376.338,439.801
377.79,437.465
379.242,442.223
380.693,447.231
382.145,434.783
383.597,426.525
385.049,420.169
386.501,423.702
387.952,430.706
389.404,434.17
390.856,432.772
392.308,432.819
393.759,435.195
395.211,435.209
396.663,437.716
398.115,426.436
399.567,435.766
401.018,439.596
402.47,434.48
403.922,430.781
405.374,442.783
406.826,431.918
408.277,438.916
409.729,441.302
411.181,430.669
412.633,436.076
414.085,437.39
415.536,427.21
416.988,420.866
418.44,425.47
419.892,437.484
421.343,436.938
422.795,435.205
424.247,427.687
425.699,419.572
427.151,418.417
428.602,436.431
430.054,436.582
431.506,436.685
432.958,428.888
434.41,425.728
435.861,438.297
437.313,424.505
438.765,431.988
440.217,434.251
441.668,427.429
443.12,422.048
444.572,437.677
446.024,434.411
447.476,429.821
448.927,427.948
450.379,423.706
451.831,422.377
453.283,410.523
454.735,414.167
456.186,414.931
457.638,418.507
459.09,423.872
460.542,419.511
461.993,390.098
463.445,411.908
464.897,418.195
466.349,417.882
467.801,418.276
469.252,409.848
470.704,424.41
472.156,421.248
473.608,421.271
475.06,421.089
476.511,418.616
477.963,414.86
479.415,416.844
480.867,424.208
482.319,416.091
483.77,408.412
485.222,416.964
486.674,429.436
488.126,412.985
489.577,416.635
491.029,424.299
492.481,423.237
493.933,412.852
495.385,405.436
496.836,417.081
498.288,418.356
499.74,416.802
501.192,416.253
502.644,405.333
504.095,406.917
505.547,405.99
506.999,410.284
508.451,414.844
509.902,416.761
511.354,411.634
512.806,403.035
514.258,405.253
515.71,419.29
517.161,425.912
518.613,416.266
520.065,397.44
521.517,400.829
522.969,403.579
524.42,404.026
525.872,402.912
527.324,404.057
528.776,411.497
530.228,411.88
531.679,419.486
533.131,418.852
534.583,411.392
536.035,411.426
537.486,398.952
538.938,385.111
540.39,396.568
541.842,405.479
543.294,404.536
544.745,407.577
546.197,410.5
547.649,409.065
549.101,406.309
550.553,406.556
552.004,406.927
553.456,410.892
554.908,409.366
556.36,409.452
557.811,409.021
559.263,416.392
560.715,412.581
562.167,400.505
563.619,410.254
565.07,406.576
566.522,404.574
567.974,397.334
569.426,395.215
570.878,408.774
572.329,392.643
573.781,412.205
575.233,417.157
576.685,411.886
578.137,406.127
579.588,406.051
581.04,401.721
582.492,399.558
583.944,406.394
585.395,407.531
586.847,401.754
588.299,397.211
589.751,400.887
591.203,416.078
592.654,403.159
594.106,394.847
595.558,402.295
597.01,399.774
598.462,400.423
599.913,399.261
601.365,411.673
602.817,413.706
604.269,408.115
605.72,413.566
607.172,412.608
608.624,395.551
610.076,403.364
611.528,405.639
612.979,404.165
614.431,403.301
615.883,409.458
617.335,408.946
618.787,413.534
620.238,414.156
621.69,405.184
623.142,402.965
624.594,415.126
626.046,402.883
627.497,403.537
628.949,409.966
630.401,408.486
631.853,398.553
633.304,405.694
634.756,416.321
636.208,406.358
637.66,417.224
639.112,424.096
640.563,417.732
642.015,419.19
643.467,425.54
644.919,414.341
646.371,411.261
647.822,413.1
649.274,418.323
650.726,420.761
652.178,440.15
653.629,427.451
655.081,431.381
656.533,427.885
657.985,422.492
659.437,421.55
660.888,433.878
662.34,425.577
663.792,425.876
665.244,423.029
666.696,420.465
668.147,424.77
669.599,426.612
671.051,422.873
672.503,423.21
673.954,428.204
675.406,428.615
676.858,427.65
678.31,429.879
679.762,426.948
681.213,435.137
682.665,434.31
684.117,434.052
685.569,429.301
687.021,422.348
688.472,431.482
689.924,422.247
691.376,425.605
692.828,418.946
694.28,418.706
695.731,427.53
697.183,422.856
698.635,418.413
700.087,426.928
701.538,432.858
702.99,430.629
704.442,433.905
705.894,439.086
707.346,430.892
708.797,442.538
710.249,431.979
711.701,442.44
713.153,448.893
714.605,445.858
716.056,441.653
717.508,431.049
718.96,437.627
720.412,429.191
721.863,434.812
723.315,442.695
724.767,444.648
726.219,440.754
727.671,431.834
729.122,435.703
730.574,439.71
732.026,435.48
733.478,429.54
734.93,432.816
736.381,435.091
737.833,439.148
739.285,443.641
740.737,441.099
742.189,443.725
743.64,449.47
745.092,443.758
746.544,425.125
747.996,433.34
749.447,450.514
750.899,445.496
752.351,434.005
753.803,430.617
755.255,432.203
756.706,434.52
758.158,427.382
759.61,433.36
761.062,440.177
762.514,438.919
763.965,439.133
765.417,450.308
766.869,442.919
768.321,427.633
769.772,439.133
771.224,438.53
772.676,435.86
774.128,455.772
775.58,436.494
777.031,443.721
778.483,435.275
779.935,446.552
781.387,453.111
782.839,448.952
784.29,458.984
785.742,459.78
787.194,441.526
788.646,445.574
790.098,451.324
791.549,444.354
793.001,447.658
794.453,447.026
795.905,452.747
797.356,447.784
798.808,446.885
800.26,446.159
801.712,448.911
803.164,457.446
804.615,466.886
806.067,446.493
807.519,453.515
808.971,457.185
810.423,455.874
811.874,455.8
813.326,461.332
814.778,444.302
816.23,459.804
817.681,454.401
819.133,465.049
820.585,477.707
822.037,471.283
823.489,462.476
824.94,461.27
826.392,461.944
827.844,469.437
829.296,474.003
830.748,462.522
832.199,453.641
833.651,454.371
835.103,480.973
836.555,472.992
838.007,476.614
839.458,487.125
840.91,485.947
842.362,473.418
843.814,469.726
845.265,466.775
846.717,469.179
848.169,476.557
849.621,499.308
851.073,491.206
852.524,483.773
853.976,494.628
855.428,492.117
856.88,497.44
858.332,497.768
859.783,496.874
861.235,488.389
862.687,498.268
864.139,502.356
865.59,500.701
867.042,504.258
868.494,481.496
869.946,477.527
871.398,478.852
872.849,490.117
874.301,491.528
875.753,488.499
877.205,487.988
878.657,491.525
880.108,481.304
881.56,483.776
883.012,483.2
884.464,484.666
885.915,481.824
887.367,477.925
888.819,484.508
890.271,480.656
891.723,484.918
893.174,497.586
894.626,503.618
896.078,507.995
897.53,504.636
898.982,496.586
900.433,492.27
901.885,486.518
903.337,499.015
904.789,506.323
906.241,507.612
907.692,509.675
909.144,504.627
910.596,508.163
912.048,502.554
913.499,513.981
914.951,510.031
916.403,505.489
917.855,496.454
919.307,485.691
920.758,499.019
922.21,517.635
923.662,511.633
925.114,514.316
926.566,512.562
928.017,512.687
929.469,525.145
930.921,519.355
932.373,515.089
933.824,491.477
935.276,514.882
936.728,525.816
938.18,519.669
939.632,523.67
941.083,523.41
942.535,513.3
943.987,517.267
945.439,529.574
946.891,520.281
948.342,513.768
949.794,516.126
951.246,517.347
952.698,522.299
954.15,534.655
955.601,517.635
957.053,510.271
958.505,516.345
959.957,519.405
961.408,513.587
962.86,511.072
964.312,533.465
965.764,534.685
967.216,527.599
968.667,516.951
970.119,528.292
971.571,524.144
973.023,524.748
974.475,530.731
975.926,520.759
977.378,526.268
978.83,525.07
980.282,529.487
981.733,529.116
983.185,535.83
984.637,534.329
986.089,529.457
987.541,528.358
988.992,541.547
990.444,535.342
991.896,548.536
993.348,534.75
994.8,540.387
996.251,548.052
997.703,537.49
999.155,555.011
1000.61,541.013
1002.06,546.071
1003.51,550.455
1004.96,547.876
1006.41,542.302
1007.87,548.15
1009.32,557.212
1010.77,559.452
1012.22,565.217
1013.67,564.222
1015.12,557.567
1016.58,563.278
1018.03,557.021
1019.48,558.347
1020.93,573.567
1022.38,582.526
1023.84,589.442
1025.29,594.319
1026.74,587.384
1028.19,589.662
1029.64,599.342
1031.09,601.524
1032.55,591.675
1034,600.232
1035.45,608.462
1036.9,613.252
1038.35,624.586
1039.8,624.778
1041.26,627.799
1042.71,642.829
1044.16,648.335
1045.61,625.691
1047.06,629.077
1048.52,640.761
1049.97,649.498
1051.42,654.76
1052.87,663.976
1054.32,659.616
1055.77,662.675
1057.23,678.53
1058.68,686.663
1060.13,697.863
1061.58,689.55
1063.03,695.799
1064.49,709.715
1065.94,716.025
1067.39,701.622
1068.84,698.309
1070.29,727.672
1071.74,732.898
1073.2,734.956
1074.65,744.366
1076.1,752.96
1077.55,759.49
1079,751.472
1080.46,747.172
1081.91,753.859
1083.36,748.578
1084.81,781.747
1086.26,785.238
1087.71,792.173
1089.17,781.912
1090.62,752.453
1092.07,768.4
1093.52,786.644
1094.97,769.579
1096.42,761.891
1097.88,775.019
1099.33,755.238
1100.78,753.084
1102.23,757.72
1103.68,757.604
1105.14,745.45
1106.59,743.708
1108.04,747.83
1109.49,740.868
1110.94,743.495
1112.39,724.338
1113.85,730.978
1115.3,728.049
1116.75,726.698
1118.2,726.142
1119.65,717.212
1121.11,714.489
1122.56,707.479
1124.01,714.53
1125.46,714.852
1126.91,703.446
1128.36,705.634
1129.82,703.768
1131.27,693.837
1132.72,695.792
1134.17,682.109
1135.62,692.925
1137.07,681.315
1138.53,677.274
1139.98,691.484
1141.43,692.047
1142.88,674.609
1144.33,678.354
1145.79,689.331
1147.24,700.25
1148.69,683.474
1150.14,675.481
1151.59,686.237
1153.04,668.049
1154.5,669.323
1155.95,676.947
1157.4,683.956
1158.85,683.5
1160.3,681
1161.76,680.504
1163.21,675.692
1164.66,674.392
1166.11,666.603
1167.56,678.426
1169.01,681.726
1170.47,688.021
1171.92,691.958
1173.37,684.993
1174.82,701.807
1176.27,689.283
1177.72,689.207
1179.18,713.625
1180.63,692.767
1182.08,691.347
1183.53,702.568
1184.98,699.859
1186.44,697.698
1187.89,693.631
1189.34,695.641
1190.79,698.021
1192.24,686.848
1193.69,706.347
1195.15,715.292
1196.6,709.571
1198.05,699.736
1199.5,704.489
1200.95,719.084
1202.41,720.038
1203.86,715.312
1205.31,713.008
1206.76,736.046
1208.21,731.211
1209.66,720.868
1211.12,711.204
1212.57,721.368
1214.02,720.545
1215.47,706.786
1216.92,719.942
1218.37,727.418
1219.83,728.57
1221.28,732.109
1222.73,732.013
1224.18,729.009
1225.63,738.831
1227.09,742.274
1228.54,731.129
1229.99,721.615
1231.44,734.003
1232.89,721.821
1234.34,745.045
1235.8,742.768
1237.25,737.459
1238.7,725.059
1240.15,741.609
1241.6,762.693
1243.06,755.869
1244.51,754.504
1245.96,760.588
1247.41,788.832
1248.86,775.464
1250.31,761.026
1251.77,780.218
1253.22,790.574
1254.67,791.158
1256.12,786.528
1257.57,789.504
1259.02,803.792
1260.48,812.269
1261.93,837.441
1263.38,823.819
1264.83,838.319
1266.28,840.589
1267.74,857.929
1269.19,865.268
1270.64,869.472
1272.09,891.695
1273.54,918.904
1274.99,921.456
1276.45,918.362
1277.9,908.828
1279.35,935.009
1280.8,966.669
1282.25,971.717
1283.71,981.375
1285.16,983.57
1286.61,991.663
1288.06,1021.71
1289.51,1043.15
1290.96,1045.11
1292.42,1077.04
1293.87,1120.49
1295.32,1130.75
1296.77,1173.26
1298.22,1210.22
1299.67,1235.02
1301.13,1253.58
1302.58,1293.08
1304.03,1343.28
1305.48,1370.95
1306.93,1411.91
1308.39,1471.55
1309.84,1526.49
1311.29,1581.51
1312.74,1651.52
1314.19,1743.74
1315.64,1821.39
1317.1,1890.7
1318.55,1960.84
1320,2029.16
1321.45,2115.33
1322.9,2229.36
1324.36,2284.61
1325.81,2374.12
1327.26,2449.76
1328.71,2528.04
1330.16,2588.92
1331.61,2634.93
1333.07,2673.34
1334.52,2726.63
1335.97,2756.03
1337.42,2712.47
1338.87,2714.93
1340.33,2668.66
1341.78,2619.93
1343.23,2577.33
1344.68,2502.76
1346.13,2448.66
1347.58,2375.61
1349.04,2267.54
1350.49,2167
1351.94,2076.35
1353.39,1966.77
1354.84,1881.89
1356.29,1838.95
1357.75,1755.63
1359.2,1682.22
1360.65,1632.83
1362.1,1546.98
1363.55,1475.46
1365.01,1427.65
1366.46,1383.07
1367.91,1341.17
1369.36,1311.49
1370.81,1281.42
1372.26,1252
1373.72,1226.09
1375.17,1203.73
1376.62,1151.52
1378.07,1140.19
1379.52,1116.41
1380.98,1104.86
1382.43,1099.57
1383.88,1078.54
1385.33,1050.35
1386.78,1050.54
1388.23,1053.4
1389.69,1026.55
1391.14,1019.48
1392.59,1048.49
1394.04,1052.73
1395.49,1013.76
1396.94,1011.91
1398.4,995.36
1399.85,997.164
1401.3,1002.57
1402.75,990.963
1404.2,986.443
1405.66,984.228
1407.11,998.707
1408.56,1011.81
1410.01,1001.07
1411.46,1005.83
1412.91,980.84
1414.37,997.5
1415.82,1000.04
1417.27,992.081
1418.72,985.517
1420.17,987.122
1421.63,998.179
1423.08,991.766
1424.53,1005.1
1425.98,988.048
1427.43,995.669
1428.88,993.529
1430.34,1021.95
1431.79,1027.96
1433.24,1024.41
1434.69,1031.72
1436.14,1040.83
1437.59,1056.13
1439.05,1050.61
1440.5,1051.29
1441.95,1071.45
1443.4,1083.33
1444.85,1082.63
1446.31,1058.34
1447.76,1077.82
1449.21,1090.33
1450.66,1104.5
1452.11,1100.47
1453.56,1098.82
1455.02,1109.99
1456.47,1129.44
1457.92,1143.32
1459.37,1159.49
1460.82,1154.1
1462.28,1159.96
1463.73,1211.78
1465.18,1223.62
1466.63,1230.15
1468.08,1225.43
1469.53,1232.9
1470.99,1241.55
1472.44,1252.54
1473.89,1284.77
1475.34,1312.51
1476.79,1318.56
1478.24,1340.7
1479.7,1341.04
1481.15,1393.31
1482.6,1390.84
1484.05,1421.6
1485.5,1440.78
1486.96,1446.64
1488.41,1472.66
1489.86,1507.33
1491.31,1522.68
1492.76,1556.19
1494.21,1589.64
1495.67,1624.68
1497.12,1645.86
1498.57,1687.69
1500.02,1712.91
1501.47,1772.88
1502.93,1785.33
1504.38,1842.18
1505.83,1900.67
1507.28,1975.57
1508.73,2032.68
1510.18,2097.11
1511.64,2161.84
1513.09,2237.71
1514.54,2334.27
1515.99,2422.82
1517.44,2512.59
1518.89,2579.82
1520.35,2689.65
1521.8,2797.93
1523.25,2961.69
1524.7,3106.65
1526.15,3328.6
1527.61,3486.45
1529.06,3734.53
1530.51,3994.16
1531.96,4288.2
1533.41,4627.3
1534.86,4951.7
1536.32,5344.29
1537.77,5835.71
1539.22,6375.1
1540.67,6988.16
1542.12,7620
1543.58,8325.3
1545.03,9082.11
1546.48,9909.5
1547.93,10818.5
1549.38,11775.7
1550.83,12786.2
1552.29,13875
1553.74,14962.4
1555.19,15997.2
1556.64,17052.9
1558.09,18154.5
1559.54,19124.2
1561,20117.1
1562.45,20927.5
1563.9,21519.7
1565.35,21864.3
1566.8,22777.2
1568.26,21877.6
1569.71,21511.9
1571.16,21026.2
1572.61,20266.1
1574.06,19281.5
1575.51,18105.5
1576.97,16917.2
1578.42,15710
1579.87,14523.3
1581.32,13347.6
1582.77,12204.2
1584.23,11168.3
1585.68,10093.5
1587.13,9174.29
1588.58,8420.98
1590.03,7677.55
1591.48,7011.48
1592.94,6501.75
1594.39,6070.42
1595.84,5623.34
1597.29,5270.06
1598.74,4926.14
1600.2,4626.19
1601.65,4414.69
1603.1,4201.62
1604.55,3974.32
1606,3801.74
1607.45,3620.4
1608.91,3436.11
1610.36,3263.64
1611.81,3075.44
1613.26,2995
1614.71,2842.42
1616.16,2720.92
1617.62,2574.01
1619.07,2458.28
1620.52,2370.55
1621.97,2259.43
1623.42,2152.97
1624.88,2091.58
1626.33,2021.76
1627.78,1940.47
1629.23,1844.5
1630.68,1784.71
1632.13,1752.2
1633.59,1714.09
1635.04,1655.6
1636.49,1613.21
1637.94,1576.51
1639.39,1542.94
1640.85,1514.21
1642.3,1508.77
1643.75,1466.35
1645.2,1421.43
1646.65,1403.56
1648.1,1377.95
1649.56,1334.17
1651.01,1313.28
1652.46,1299.72
1653.91,1269.77
1655.36,1247.5
1656.81,1238.09
1658.27,1229.22
1659.72,1222.08
1661.17,1201.06
1662.62,1165.3
1664.07,1157.74
1665.53,1135.44
1666.98,1136.47
1668.43,1135.36
1669.88,1100.42
1671.33,1085.01
1672.78,1074.5
1674.24,1060.52
1675.69,1054.33
1677.14,1034.6
1678.59,1032.46
1680.04,1029.63
1681.5,1024.39
1682.95,1005.76
1684.4,997.088
1685.85,980.209
1687.3,987.788
1688.75,965.922
1690.21,965.071
1691.66,949.138
1693.11,948.829
1694.56,936.593
1696.01,928.506
1697.46,931.497
1698.92,927.231
1700.37,929.11
1701.82,929.172
1703.27,918.938
1704.72,912.868
1706.18,912.978
1707.63,915.763
1709.08,907.751
1710.53,895.721
1711.98,901.133
1713.43,905.865
1714.89,899.411
1716.34,882.044
1717.79,871.338
1719.24,863.052
1720.69,876.201
1722.15,874.753
1723.6,886.249
1725.05,870.604
1726.5,865.734
1727.95,865.199
1729.4,864.239
1730.86,881.352
1732.31,876.647
1733.76,868.169
1735.21,863.985
1736.66,863.484
1738.11,857.497
1739.57,861.502
1741.02,847.805
1742.47,850.473
1743.92,854.726
1745.37,847.009
1746.83,849.184
1748.28,842.846
1749.73,833.333
1751.18,852.448
1752.63,828.792
1754.08,804.354
1755.54,820.877
1756.99,835.432
1758.44,824.903
1759.89,799.676
1761.34,810.157
1762.8,820.678
1764.25,813.607
1765.7,806.803
1767.15,809.69
1768.6,796.919
1770.05,780.91
1771.51,787.365
1772.96,791.199
1774.41,782.358
1775.86,790.568
1777.31,782.865
1778.76,770.643
1780.22,779.347
1781.67,768.784
1783.12,761.219
1784.57,755.094
1786.02,740.347
1787.48,772.35
1788.93,735.155
1790.38,756.465
1791.83,749.579
1793.28,758.88
1794.73,743.77
1796.19,741.945
1797.64,747.467
1799.09,740.381
1800.54,734.688
1801.99,747.247
1803.45,745.594
1804.9,723.927
1806.35,722.541
1807.8,727.596
1809.25,723.214
1810.7,737.912
1812.16,735.457
1813.61,720.319
1815.06,719.647
1816.51,717.5
1817.96,710.689
1819.41,719.194
1820.87,732.466
1822.32,734.16
1823.77,737.48
1825.22,747.172
1826.67,744.853
1828.13,742.247
1829.58,764.298
1831.03,726.862
1832.48,722.363
1833.93,723.31
1835.38,730.676
1836.84,725.004
1838.29,745.381
1839.74,748.948
1841.19,752.323
1842.64,758.009
1844.1,747.467
1845.55,750.635
1847,759.71
1848.45,770.732
1849.9,791.144
1851.35,794.765
1852.81,783.915
1854.26,775.327
1855.71,777.934
1857.16,781.672
1858.61,779.772
1860.07,777.817
1861.52,787.824
1862.97,790.142
1864.42,785.3
1865.87,786.836
1867.32,788.99
1868.78,790.533
1870.23,785.698
1871.68,798.298
1873.13,777.474
1874.58,782.707
1876.03,773.921
1877.49,762.933
1878.94,759.483
1880.39,747.926
1881.84,749.03
1883.29,760.299
1884.75,773.276
1886.2,735.079
1887.65,749.174
1889.1,758.653
1890.55,743.989
1892,738.44
1893.46,738.536
1894.91,731.581
1896.36,721.163
1897.81,707.116
1899.26,694.687
1900.72,711.567
1902.17,718.021
1903.62,709.029
1905.07,708.392
1906.52,700.785
1907.97,702.685
1909.43,694.509
1910.88,700.408
1912.33,692.691
1913.78,690.476
1915.23,689.324
1916.68,681.21
1918.14,667.686
1919.59,674.526
1921.04,683.449
1922.49,684.916
1923.94,698.398
1925.4,689.934
1926.85,675.473
1928.3,653.942
1929.75,682.507
1931.2,680.588
1932.65,672.24
1934.11,686.018
1935.56,688.254
1937.01,679.231
1938.46,667.323
1939.91,656.359
1941.37,664.805
1942.82,681.256
1944.27,691.1
1945.72,692.657
1947.17,685.287
1948.62,688.919
1950.08,688.672
1951.53,675.547
1952.98,695.222
1954.43,691.327
1955.88,686.539
1957.33,688.384
1958.79,686.477
1960.24,686.217
1961.69,686.807
1963.14,694.53
1964.59,694.399
1966.05,683.554
1967.5,687.376
1968.95,703.302
1970.4,696.608
1971.85,686.608
1973.3,683.396
1974.76,680.705
1976.21,682.951
1977.66,701.649
1979.11,714.969
1980.56,711.951
1982.02,703.398
1983.47,703.508
1984.92,708.878
1986.37,703.961
1987.82,720.84
1989.27,716.43
1990.73,712.123
1992.18,719.146
1993.63,717.651
1995.08,708.714
1996.53,728.557
1997.98,720.765
1999.44,724.825
2000.89,722.143
2002.34,704.585
2003.79,734.695
2005.24,725.971
2006.7,710.47
2008.15,707.644
2009.6,702.712
2011.05,691.745
2012.5,702.993
2013.95,702.15
2015.41,669.067
2016.86,736.04
2018.31,693.96
2019.76,680.077
2021.21,702.747
2022.67,694.845
2024.12,688.178
2025.57,687.3
2027.02,700.01
2028.47,693.151
2029.92,735.203
2031.38,695.483
2032.83,683.691
2034.28,667.62
2035.73,669.201
2037.18,680.837
2038.63,656.724
2040.09,664.843
2041.54,670.465
2042.99,660.617
2044.44,656.621
2045.89,661.785
2047.35,652.718
2048.8,660.74
2050.25,646.11
2051.7,640.898
2053.15,640.522
2054.6,638.297
2056.06,639.265
2057.51,644.703
2058.96,643.173
2060.41,624.375
2061.86,626.392
2063.32,628.093
2064.77,648.269
2066.22,636.872
2067.67,630.686
2069.12,635.7
2070.57,632.456
2072.03,625.715
2073.48,621.697
2074.93,612.653
2076.38,613.249
2077.83,614.116
2079.28,617.081
2080.74,613.013
2082.19,617.912
2083.64,614.743
2085.09,610.161
2086.54,615.939
2088,620.963
2089.45,616.941
2090.9,614.897
2092.35,614.17
2093.8,610.568
2095.25,604.407
2096.71,607.653
2098.16,607.578
2099.61,608.263
2101.06,600.731
2102.51,602.766
2103.97,620.042
2105.42,630.468
2106.87,618.526
2108.32,615.762
2109.77,610.871
2111.22,605.047
2112.68,618.175
2114.13,631.017
2115.58,614.475
2117.03,613.774
2118.48,636.507
2119.94,637.2
2121.39,627.067
2122.84,620.323
2124.29,623.778
2125.74,633.089
2127.19,635.449
2128.65,612.615
2130.1,621.947
2131.55,641.926
2133,628.883
2134.45,622.227
2135.9,632.895
2137.36,623.125
2138.81,617.588
2140.26,628.523
2141.71,643.055
2143.16,628.054
2144.62,636.089
2146.07,636.566
2147.52,633.453
2148.97,641.909
2150.42,639.229
2151.87,646.183
2153.33,654.857
2154.78,644.81
2156.23,641.866
2157.68,644.179
2159.13,650.156
2160.58,651.81
2162.04,653.579
2163.49,643.474
2164.94,639.973
2166.39,646.873
2167.84,657.638
2169.3,652.311
2170.75,644.629
2172.2,642.258
2173.65,660.702
2175.1,657.206
2176.55,650.961
2178.01,660.532
2179.46,662.523
2180.91,650.742
2182.36,651.667
2183.81,656.028
2185.27,654.729
2186.72,679.767
2188.17,685.818
2189.62,684.794
2191.07,678.69
2192.52,659.25
2193.98,670.386
2195.43,652.875
2196.88,661.659
2198.33,686.594
2199.78,682.326
2201.24,702.033
2202.69,678.337
2204.14,674.917
2205.59,679.596
2207.04,689.379
2208.49,666.043
2209.95,672.164
2211.4,687.424
2212.85,666.219
2214.3,678.642
2215.75,649.485
2217.2,665.885
2218.66,677.669
2220.11,669.18
2221.56,684.093
2223.01,685.259
2224.46,679.978
2225.92,658.722
2227.37,658.724
2228.82,662.122
2230.27,687.492
2231.72,689.893
2233.17,675.135
2234.63,694.084
2236.08,688.439
2237.53,673.555
2238.98,688.069
2240.43,690.798
2241.89,698.851
2243.34,694.948
2244.79,694.475
2246.24,705.586
2247.69,708.165
2249.14,702.726
2250.6,699.667
2252.05,695.764
2253.5,700.709
2254.95,697.952
2256.4,690.956
2257.85,709.256
2259.31,721.547
2260.76,705.051
2262.21,708.049
2263.66,705.264
2265.11,708.282
2266.57,718.892
2268.02,715.134
2269.47,710.655
2270.92,708.666
2272.37,702.026
2273.82,724.187
2275.28,714.695
2276.73,709.098
2278.18,712.246
2279.63,713.186
2281.08,724.626
2282.54,732.576
2283.99,726.177
2285.44,749.606
2286.89,743.653
2288.34,741.225
2289.79,746.657
2291.25,750.745
2292.7,743.783
2294.15,735.676
2295.6,747.83
2297.05,741.486
2298.5,753.29
2299.96,761.959
2301.41,771.713
2302.86,752.281
2304.31,738.468
2305.76,783.482
2307.22,787.33
2308.67,767.584
2310.12,762.199
2311.57,759.895
2313.02,787.975
2314.47,802.392
2315.93,778.613
2317.38,779.71
2318.83,791.171
2320.28,764.662
2321.73,770.972
2323.19,788.572
2324.64,802.509
2326.09,805.938
2327.54,808.84
2328.99,800.712
2330.44,804.258
2331.9,810.383
2333.35,809.841
2334.8,819.286
2336.25,822.269
2337.7,824.759
2339.16,822.228
2340.61,822.365
2342.06,838.641
2343.51,845.514
2344.96,844.088
2346.41,855.062
2347.87,841.625
2349.32,847.928
2350.77,874.589
2352.22,878.883
2353.67,882.017
2355.12,883.876
2356.58,885.879
2358.03,878.643
2359.48,898.005
2360.93,877.12
2362.38,892.196
2363.84,904.74
2365.29,907.285
2366.74,905.474
2368.19,920.248
2369.64,941.387
2371.09,958.528
2372.55,976.772
2374,977.952
2375.45,1000.04
2376.9,999.763
2378.35,1008.4
2379.8,1035.7
2381.26,1033.26
2382.71,1042.02
2384.16,1044.02
2385.61,1061.15
2387.06,1077.27
2388.52,1072.26
2389.97,1114.33
2391.42,1134.67
2392.87,1156.71
2394.32,1174.29
2395.77,1211.28
2397.23,1194.1
2398.68,1202.74
2400.13,1243.45
2401.58,1274.75
2403.03,1305
2404.49,1311.03
2405.94,1334.79
2407.39,1370.36
2408.84,1385.87
2410.29,1406.49
2411.74,1422.13
2413.2,1441.63
2414.65,1454.31
2416.1,1501.79
2417.55,1531.66
2419,1530.21
2420.46,1532.68
2421.91,1540.12
2423.36,1518.23
2424.81,1533.01
2426.26,1579.89
2427.71,1572.01
2429.17,1576.5
2430.62,1614.42
2432.07,1593.78
2433.52,1597.75
2434.97,1553.36
2436.42,1567.39
2437.88,1586.33
2439.33,1567.49
2440.78,1562.1
2442.23,1541.83
2443.68,1525.31
2445.14,1539.89
2446.59,1518.18
2448.04,1526.63
2449.49,1525.31
2450.94,1507.33
2452.39,1481.19
2453.85,1476.79
2455.3,1463.49
2456.75,1456.11
2458.2,1444.63
2459.65,1437.37
2461.1,1426.02
2462.56,1410.6
2464.01,1419.25
2465.46,1404.54
2466.91,1373.67
2468.36,1385.5
2469.82,1356.06
2471.27,1399.23
2472.72,1392.17
2474.17,1363.61
2475.62,1350.64
2477.07,1335.9
2478.53,1330.47
2479.98,1317.74
2481.43,1323.65
2482.88,1352.08
2484.33,1353.52
2485.79,1355.45
2487.24,1328.46
2488.69,1328
2490.14,1324.19
2491.59,1341.69
2493.04,1338.54
2494.5,1337.27
2495.95,1323.24
2497.4,1342.51
2498.85,1328.09
2500.3,1352.17
2501.76,1362.54
2503.21,1356.35
2504.66,1377.71
2506.11,1363.47
2507.56,1351.28
2509.01,1342.38
2510.47,1391.45
2511.92,1378.35
2513.37,1378.87
2514.82,1407.93
2516.27,1414.67
2517.72,1425.47
2519.18,1420.43
2520.63,1407.06
2522.08,1427.29
2523.53,1447.09
2524.98,1458.87
2526.44,1441.62
2527.89,1461.6
2529.34,1487.52
2530.79,1513.88
2532.24,1523.18
2533.69,1527.61
2535.15,1550.01
2536.6,1543.4
2538.05,1609.41
2539.5,1591.2
2540.95,1608.4
2542.41,1628.06
2543.86,1652.55
2545.31,1672.45
2546.76,1690.09
2548.21,1678.5
2549.66,1711.07
2551.12,1741.05
2552.57,1793.77
2554.02,1823.49
2555.47,1827.12
2556.92,1845.13
2558.37,1871.02
2559.83,1910.48
2561.28,1930.16
2562.73,1951.01
2564.18,2025.53
2565.63,2072.45
2567.09,2087.43
2568.54,2120.9
2569.99,2157.95
2571.44,2206.17
2572.89,2235.06
2574.34,2284.51
2575.8,2293.4
2577.25,2410.07
2578.7,2487.12
2580.15,2526.4
2581.6,2569.98
2583.06,2621.29
2584.51,2679.77
2585.96,2765.08
2587.41,2869.95
2588.86,2940.04
2590.31,3007.05
2591.77,3071.02
2593.22,3190.02
2594.67,3275.63
2596.12,3377.16
2597.57,3511.7
2599.02,3616.92
2600.48,3726.22
2601.93,3849.63
2603.38,3973.83
2604.83,4146.18
2606.28,4279.21
2607.74,4465.14
2609.19,4587.78
2610.64,4776.59
2612.09,4913.24
2613.54,5130.1
2614.99,5344.35
2616.45,5561.69
2617.9,5794.91
2619.35,6032.2
2620.8,6255.67
2622.25,6524.44
2623.71,6785.27
2625.16,7087.82
2626.61,7359.71
2628.06,7629.06
2629.51,8005.88
2630.96,8276.95
2632.42,8656.93
2633.87,8958.1
2635.32,9293.78
2636.77,9619.3
2638.22,9988.58
2639.68,10301.3
2641.13,10561.2
2642.58,10867.5
2644.03,11213.2
2645.48,11501.2
2646.93,11846.7
2648.39,12015.6
2649.84,12337.9
2651.29,12560
2652.74,12731.2
2654.19,12883
2655.64,13111.3
2657.1,13186.3
2658.55,13275.8
2660,13359.7
2661.45,13335.8
2662.9,13245.1
2664.36,13172.6
2665.81,13095.3
2667.26,12917.9
2668.71,12828.2
2670.16,12690.5
2671.61,12507.8
2673.07,12205.8
2674.52,11942.3
2675.97,11557.5
2677.42,11303
2678.87,10980
2680.32,10701
2681.78,10333.9
2683.23,9966.49
2684.68,9611.14
2686.13,9284.17
2687.58,8906.87
2689.04,8626.47
2690.49,8255.55
2691.94,7943.95
2693.39,7601.07
2694.84,7268.28
2696.29,6965.12
2697.75,6657.79
2699.2,6415.85
2700.65,6134.77
2702.1,5842.1
2703.55,5588.76
2705.01,5327.01
2706.46,5145.58
2707.91,4904.36
2709.36,4712.99
2710.81,4501.05
2712.26,4287.81
2713.72,4152.49
2715.17,4002.77
2716.62,3835.87
2718.07,3656.51
2719.52,3544.45
2720.98,3426.98
2722.43,3277.67
2723.88,3170.47
2725.33,3074.91
2726.78,2953.53
2728.23,2842.12
2729.69,2796.84
2731.14,2682.51
2732.59,2593.81
2734.04,2535.52
2735.49,2462.53
2736.94,2381.18
2738.4,2319.69
2739.85,2255.71
2741.3,2170.74
2742.75,2145.34
2744.2,2129.12
2745.66,2027.87
2747.11,1981.21
2748.56,1944.77
2750.01,1918.17
2751.46,1887.02
2752.91,1861.03
2754.37,1804.74
2755.82,1774.68
2757.27,1736.41
2758.72,1711.19
2760.17,1642.95
2761.63,1641.18
2763.08,1622.73
2764.53,1573.56
2765.98,1577.45
2767.43,1551.16
2768.88,1497.58
2770.34,1500.76
2771.79,1466.3
2773.24,1439.38
2774.69,1419.33
2776.14,1406.05
2777.59,1423.08
2779.05,1373.35
2780.5,1360.28
2781.95,1352.93
2783.4,1359.84
2784.85,1343.82
2786.31,1313.83
2787.76,1292.02
2789.21,1291.13
2790.66,1271.53
2792.11,1255.45
2793.56,1231.89
2795.02,1229.59
2796.47,1225.07
2797.92,1223.3
2799.37,1206.03
2800.82,1206.52
2802.28,1203.69
2803.73,1173.92
2805.18,1165.67
2806.63,1167.42
2808.08,1151.04
2809.53,1126.13
2810.99,1133.59
2812.44,1131.12
2813.89,1099.08
2815.34,1103.57
2816.79,1087.8
2818.24,1098.76
2819.7,1097.55
2821.15,1087.78
2822.6,1072.53
2824.05,1065.96
2825.5,1062.46
2826.96,1073.17
2828.41,1058.3
2829.86,1068.28
2831.31,1032.74
2832.76,1020.66
2834.21,1033.69
2835.67,1040.55
2837.12,1038.3
2838.57,1037.2
2840.02,1008.12
2841.47,1025.76
2842.93,988.412
2844.38,1002.6
2845.83,993.316
2847.28,981.91
2848.73,975.744
2850.18,991.615
2851.64,987.719
2853.09,993.042
2854.54,987.116
2855.99,978.199
2857.44,963.521
2858.9,986.855
2860.35,972.383
2861.8,964.166
2863.25,980.483
2864.7,965.702
2866.15,969.255
2867.61,978.631
2869.06,987.184
2870.51,980.634
2871.96,1022.91
2873.41,991.505
2874.86,991.478
2876.32,965.887
2877.77,977.362
2879.22,969.927
2880.67,982.815
2882.12,999.365
2883.58,996.835
2885.03,993.796
2886.48,987.164
2887.93,959.831
2889.38,976.326
2890.83,967.424
2892.29,1001.94
2893.74,986.608
2895.19,971.402
2896.64,967.705
2898.09,967.924
2899.54,971.429
2901,960.229
2902.45,961.114
2903.9,1002.34
2905.35,962.382
2906.8,981.793
2908.26,982.767
2909.71,978.48
2911.16,962.321
2912.61,953.205
2914.06,940.455
2915.51,948.967
2916.97,937.485
2918.42,948.713
2919.87,941.703
2921.32,945.331
2922.77,930.379
2924.23,922.772
2925.68,911.401
2927.13,912.491
2928.58,930.66
2930.03,906.942
2931.48,906.085
2932.94,879.136
2934.39,891.03
2935.84,883.457
2937.29,876.832
2938.74,860.83
2940.2,865.816
2941.65,846.317
2943.1,821.59
2944.55,826.172
2946,830.308
2947.45,802.482
2948.91,790.328
2950.36,799.114
2951.81,807.687
2953.26,778.167
2954.71,784.854
2956.16,795.259
2957.62,778.455
2959.07,763.571
2960.52,769.648
2961.97,752.494
2963.42,750.82
2964.88,725.504
2966.33,727.864
2967.78,744.394
2969.23,732.569
2970.68,723.529
2972.13,727.589
2973.59,709.516
2975.04,705.216
2976.49,713.899
2977.94,708.721
2979.39,702.136
2980.84,698.281
2982.3,700.312
2983.75,686.388
2985.2,682.752
2986.65,669.459
2988.1,685.43
2989.56,686.032
2991.01,683.475
2992.46,688.501
2993.91,678.862
2995.36,670.795
2996.81,660.606
2998.27,664.752
2999.72,667.821
3001.17,652.715
3002.62,650.455
3004.07,645.197
3005.53,667.254
3006.98,660.6
3008.43,651.073
3009.88,652.343
3011.33,649.075
3012.78,651.646
3014.24,651.512
3015.69,627.187
3017.14,643.038
3018.59,637.423
3020.04,631.414
3021.5,643.142
3022.95,637.443
3024.4,635.853
3025.85,644.471
3027.3,642.159
3028.75,628.727
3030.21,659.154
3031.66,625.057
3033.11,638.907
3034.56,645.863
3036.01,631.115
3037.46,632.284
3038.92,636.127
3040.37,625.355
3041.82,634.829
3043.27,644.448
3044.72,621.437
3046.18,629.304
3047.63,633.746
3049.08,636.764
3050.53,638.697
3051.98,637.827
3053.43,634.1
3054.89,633.892
3056.34,635.534
3057.79,636.416
3059.24,648.916
3060.69,645.435
3062.15,643.306
3063.6,641.93
3065.05,646.37
3066.5,655.224
3067.95,648.035
3069.4,637.976
3070.86,645.631
3072.31,650.062
3073.76,650.76
3075.21,671.495
3076.66,649.675
3078.11,675.08
3079.57,673.479
3081.02,673.986
3082.47,673.777
3083.92,683.789
3085.37,686.272
3086.83,700.641
3088.28,689.667
3089.73,692.012
3091.18,692.28
3092.63,710.346
3094.08,729.537
3095.54,726.787
3096.99,731.321
3098.44,758.338
3099.89,750.148
3101.34,749.977
3102.8,782.131
3104.25,801.007
3105.7,811.384
3107.15,825.809
3108.6,820.706
3110.05,826.124
3111.51,837.812
3112.96,850.068
3114.41,889.802
3115.86,883.574
3117.31,890.879
3118.76,877.518
3120.22,911.174
3121.67,927.437
3123.12,926.682
3124.57,944.769
3126.02,969.824
3127.48,964.714
3128.93,1020.21
3130.38,1007.69
3131.83,999.811
3133.28,1007.05
3134.73,1028.38
3136.19,1017.92
3137.64,1023.45
3139.09,1011.03
3140.54,1044.94
3141.99,1050.22
3143.45,1057.2
3144.9,1045.27
3146.35,1056.95
3147.8,1066.99
3149.25,1086.09
3150.7,1071.17
3152.16,1102.36
3153.61,1093.35
3155.06,1070.99
3156.51,1080.09
3157.96,1085.79
3159.42,1100.34
3160.87,1066.49
3162.32,1093.12
3163.77,1098.47
3165.22,1096.08
3166.67,1112.89
3168.13,1115.16
3169.58,1095.44
3171.03,1084.98
3172.48,1109.13
3173.93,1106.94
3175.38,1128.91
3176.84,1152.8
3178.29,1151.58
3179.74,1176.04
3181.19,1177.95
3182.64,1191.55
3184.1,1225.25
3185.55,1205.52
3187,1229.84
3188.45,1237.9
3189.9,1233.54
3191.35,1266.23
3192.81,1257.31
3194.26,1258.47
3195.71,1279.04
3197.16,1280.28
3198.61,1267.18
3200.06,1305.77
3201.52,1299.84
3202.97,1303.08
3204.42,1274.56
3205.87,1288.1
3207.32,1294.11
3208.78,1271.45
3210.23,1290.33
3211.68,1233.7
3213.13,1198.27
3214.58,1189.51
3216.03,1164.51
3217.49,1156.93
3218.94,1130.23
3220.39,1107.15
3221.84,1078.85
3223.29,1059.69
3224.75,1012.05
3226.2,990.072
3227.65,979.639
3229.1,950.229
3230.55,920.159
3232,902.244
3233.46,872.991
3234.91,847.908
3236.36,831.371
3237.81,833.415
3239.26,782.042
3240.72,749.154
3242.17,742.329
3243.62,742.082
3245.07,721.581
3246.52,699.303
3247.97,671.897
3249.43,691.944
3250.88,650.452
3252.33,632.739
3253.78,627.656
3255.23,618.994
3256.68,605.823
3258.14,630.119
3259.59,607.385
3261.04,596.219
3262.49,582.874
3263.94,582.131
3265.4,570.145
3266.85,552.393
3268.3,573.119
3269.75,571.609
3271.2,554.288
3272.65,559.505
3274.11,550.151
3275.56,547.346
3277.01,543.98
3278.46,540.645
3279.91,531.463
3281.37,532.322
3282.82,541.838
3284.27,546.288
3285.72,514.644
3287.17,527.764
3288.62,524.354
3290.08,519.975
3291.53,513.989
3292.98,502.658
3294.43,522.958
3295.88,510.375
3297.33,517.257
3298.79,516.554
3300.24,528.652
3301.69,516.5
3303.14,517.022
3304.59,507.074
3306.05,544.329
3307.5,517.097
3308.95,511.522
3310.4,513.66
3311.85,506.004
3313.3,505.642
3314.76,501.511
3316.21,511.873
3317.66,508.046
3319.11,496.993
3320.56,506.819
3322.02,499.041
3323.47,502.642
3324.92,506.95
3326.37,510.765
3327.82,510.494
3329.27,506.094
3330.73,501.985
3332.18,506.575
3333.63,512.51
3335.08,489.384
3336.53,486.27
3337.98,511.329
3339.44,493.604
3340.89,494.331
3342.34,499.333
3343.79,505.691
3345.24,499.179
3346.7,495.652
3348.15,490.706
3349.6,495.364
3351.05,498.008
3352.5,481.973
3353.95,500.704
3355.41,490.123
3356.86,472.02
3358.31,485.148
3359.76,503.823
3361.21,494.366
3362.67,499.135
3364.12,487.75
3365.57,492.001
3367.02,496.045
3368.47,484.518
3369.92,492.717
3371.38,500.262
3372.83,492.861
3374.28,471.09
3375.73,478.154
3377.18,491.87
3378.63,495.983
3380.09,500.906
3381.54,477.624
3382.99,477.238
3384.44,477.038
3385.89,472.83
3387.35,486.575
3388.8,475.211
3390.25,481.645
3391.7,474.371
3393.15,471.882
3394.6,479.204
3396.06,485.163
3397.51,488.34
3398.96,494.303
3400.41,479.466
3401.86,476.652
3403.32,483.045
3404.77,486.9
3406.22,498.851
3407.67,473.684
3409.12,480.338
3410.57,474.909
3412.03,470.375
3413.48,460.323
3414.93,487.261
3416.38,485.351
3417.83,476.581
3419.28,474.971
3420.74,497.781
3422.19,472.886
3423.64,489.625
3425.09,480.333
3426.54,471.14
3428,456.844
3429.45,479.95
3430.9,483.514
3432.35,487.475
3433.8,487.975
3435.25,466.285
3436.71,469.133
3438.16,469.105
3439.61,486.027
3441.06,482.66
3442.51,469.176
3443.97,463.484
3445.42,458.051
3446.87,480.66
3448.32,466.46
3449.77,462.269
3451.22,465.885
3452.68,488.141
3454.13,457.044
3455.58,459.316
3457.03,483.081
3458.48,470.773
3459.94,471.902
3461.39,461.555
3462.84,470.587
3464.29,474.509
3465.74,472.425
3467.19,472.659
3468.65,454.805
3470.1,477.875
3471.55,470.379
3473,457.165
3474.45,445.858
3475.9,473.077
3477.36,484.021
3478.81,487.344
3480.26,480.181
3481.71,458.542
3483.16,470.836
3484.62,448.767
3486.07,476.799
3487.52,463.665
3488.97,452.937
3490.42,467.39
3491.87,471.104
3493.33,477.553
3494.78,466.762
3496.23,466.854
3497.68,468.673
3499.13,467.807
3500.58,474.675
3502.04,484.732
3503.49,466.816
3504.94,455.479
3506.39,449.999
3507.84,472.412
3509.3,488.724
3510.75,490.794
3512.2,464.991
3513.65,466.412
3515.1,475.544
3516.55,468.786
3518.01,476.505
3519.46,471.396
3520.91,468.377
3522.36,467.037
3523.81,469.679
3525.27,470.352
3526.72,459.706
3528.17,474.026
3529.62,464.231
3531.07,472.398
3532.52,478.203
3533.98,474.535
3535.43,481.334
3536.88,473.098
3538.33,454.172
3539.78,469.566
3541.24,473.689
3542.69,461.372
3544.14,474.692
3545.59,477.507
3547.04,467.607
3548.49,462.242
3549.95,472.442
3551.4,462.956
3552.85,455.535
3554.3,458.062
3555.75,475.747
3557.2,480.947
3558.66,463.831
3560.11,460.209
3561.56,465.253
3563.01,466.155
3564.46,469.054
3565.92,468.982
3567.37,464.986
3568.82,466.908
3570.27,467.811
3571.72,456.514
3573.17,461.667
3574.63,471.199
3576.08,468.684
3577.53,480.101
3578.98,447.926
3580.43,460.639
3581.89,457.283
3583.34,458.591
3584.79,451.794
3586.24,473.048
3587.69,458.613
3589.14,471.328
3590.6,472.366
3592.05,459.979
3593.5,461.164
3594.95,457.25
3596.4,451.911
3597.85,452.398
3599.31,468.655
3600.76,470.795
3602.21,454.869
3603.66,469.949
3605.11,442.244
3606.57,469.2
3608.02,467.459
3609.47,463.122
3610.92,466.717
3612.37,480.601
3613.82,461.226
3615.28,463.945
3616.73,453.574
3618.18,480.859
3619.63,452.471
3621.08,472.429
3622.54,467.049
3623.99,471.574
3625.44,475.661
3626.89,469.851
3628.34,455.816
3629.79,459.24
3631.25,460.995
3632.7,466.198
3634.15,460.84
3635.6,457.647
3637.05,453.033
3638.5,465.676
3639.96,460.89
3641.41,467.286
3642.86,463.581
3644.31,455.173
3645.76,466.661
3647.22,461.005
3648.67,461.103
3650.12,453.195
3651.57,456.528
3653.02,448.282
3654.47,465.296
3655.93,484.542
3657.38,466.328
3658.83,471.534
3660.28,465.807
3661.73,465.649
3663.19,457.424
3664.64,471.46
3666.09,447.495
3667.54,463.211
3668.99,466.104
3670.44,477.856
3671.9,465.392
3673.35,459.952
3674.8,480.053
3676.25,473.3
3677.7,451.826
3679.16,465.242
3680.61,465.811
3682.06,477.4
3683.51,466.097
3684.96,470.591
3686.41,470.393
3687.87,464.815
3689.32,472.563
3690.77,454.784
3692.22,474.397
3693.67,461.155
3695.12,464.921
3696.58,469.154
3698.03,473.824
3699.48,474.161
3700.93,473.733
3702.38,465.032
3703.84,479.252
3705.29,469.701
3706.74,457.415
3708.19,470.109
3709.64,492.141
3711.09,480.215
3712.55,475.282
3714,463.547
3715.45,467.007
3716.9,471.22
3718.35,476.177
3719.8,481.51
3721.26,471.002
3722.71,460.731
3724.16,470.795
3725.61,478.605
3727.06,478.34
3728.52,470.36
3729.97,467.637
3731.42,478.241
3732.87,475.105
3734.32,471.295
3735.77,487.875
3737.23,485.278
3738.68,476.339
3740.13,459.131
3741.58,482.593
3743.03,464.206
3744.49,467.506
3745.94,490.491
3747.39,477.105
3748.84,481.972
3750.29,488.144
3751.74,472.799
3753.2,473.641
3754.65,473.596
3756.1,462.028
3757.55,476.785
3759,470.602
3760.46,480.329
3761.91,484.592
3763.36,487.285
3764.81,488.827
3766.26,491.829
3767.71,467.797
3769.17,475.843
3770.62,486.839
3772.07,463.196
3773.52,469.639
3774.97,479.439
3776.42,467.114
3777.88,477.081
3779.33,478.652
3780.78,490.343
3782.23,491.29
3783.68,492.615
3785.14,503.439
3786.59,479.979
3788.04,474.949
3789.49,467.957
3790.94,488.599
3792.39,488.975
3793.85,483.865
3795.3,491.926
3796.75,494.891
3798.2,490.166
3799.65,485.551
3801.1,487.2
3802.56,458.537
3804.01,494.108
3805.46,486.321
3806.91,484.131
3808.36,500.202
3809.82,495.251
3811.27,485.099
3812.72,482.359
3814.17,484.687
3815.62,503.495
3817.07,497.504
3818.53,496.964
3819.98,519.201
3821.43,480.291
3822.88,481.259
3824.33,481.725
3825.79,496.071
3827.24,524.401
3828.69,522.246
3830.14,485.938
3831.59,505.487
3833.04,487.118
3834.5,492.761
3835.95,495.869
3837.4,502.714
3838.85,496.205
3840.3,495.093
3841.76,527.369
3843.21,474.443
3844.66,492.394
3846.11,493.198
3847.56,481.544
3849.01,523.211
3850.47,480.251
3851.92,500.745
3853.37,477.799
3854.82,486.407
3856.27,505.859
3857.72,506.467
3859.18,514.503
3860.63,512.386
3862.08,487.377
3863.53,506.273
3864.98,513.557
3866.44,531.352
3867.89,503.115
3869.34,497.099
3870.79,510.161
3872.24,512.68
3873.69,504.971
3875.15,512.57
3876.6,494.318
3878.05,502.004
3879.5,519.302
3880.95,500.034
3882.41,508.912
3883.86,518.811
3885.31,507.73
3886.76,504.843
3888.21,514.087
3889.66,516.183
3891.12,511.631
3892.57,532.341
3894.02,530.288
3895.47,534.464
3896.92,525.961
3898.37,525.436
3899.83,521.182
3901.28,513.324
3902.73,528.755
3904.18,521.579
3905.63,536.062
3907.09,529.394
3908.54,531.125
3909.99,545.901
3911.44,537.603
3912.89,539.396
3914.34,538.4
3915.8,518.678
3917.25,532.596
3918.7,557.978
3920.15,550.067
3921.6,567.831
3923.06,550.449
3924.51,529.952
3925.96,559.903
3927.41,555.028
3928.86,547.735
3930.31,579.55
3931.77,563.316
3933.22,566.229
3934.67,568.659
3936.12,565.903
3937.57,569.079
3939.02,571.656
3940.48,565.686
3941.93,558.417
3943.38,563.859
3944.83,572.715
3946.28,569.692
3947.74,572.173
3949.19,570.051
3950.64,576.056
3952.09,563.326
3953.54,557.562
3954.99,581.164
3956.45,576.936
3957.9,570.655
3959.35,605.443
3960.8,580.008
3962.25,588.868
3963.71,579.514
3965.16,582.466
3966.61,591.526
3968.06,590.162
3969.51,595.398
3970.96,584.356
3972.42,593.728
3973.87,595.87
3975.32,602.861
3976.77,596.154
3978.22,602.606
3979.68,600.724
3981.13,597.611
3982.58,616.106
3984.03,606.329
3985.48,626.038
3986.93,599.91
3988.39,618.599
3989.84,638.841
3991.29,618.696
3992.74,615.858
3994.19,609.513
3995.64,626.433
3997.1,626.645
3998.55,632.235
4000,630.409
