-20,47.8199
-18.5482,57.6573
-17.0964,49.7947
-15.6446,41.693
-14.1928,53.8985
-12.7411,63.8906
-11.2893,68.576
-9.83749,72.7961
-8.3857,89.3653
-6.93391,117.796
-5.48212,369.994
-4.03034,143.783
-2.57855,143.783
-1.12676,143.783
0.325027,143.783
1.77681,143.783
3.2286,143.783
4.68039,143.783
6.13218,143.783
7.58397,712.867
9.03575,153.663
10.4875,133.401
11.9393,136.242
13.3911,143.099
14.8429,141.389
16.2947,134.145
17.7465,125.967
19.1983,106.228
20.6501,91.3609
22.1018,81.0988
23.5536,72.8966
25.0054,64.5886
26.4572,58.7614
27.909,54.0737
29.3608,50.8827
30.8126,45.7679
32.2644,45.1114
33.7161,41.2825
35.1679,39.7088
36.6197,41.2543
38.0715,46.4616
39.5233,46.5798
40.9751,48.4056
42.4269,53.1833
43.8787,57.8726
45.3304,69.1112
46.7822,80.1175
48.234,112.581
49.6858,184.387
51.1376,304.793
52.5894,498.788
54.0412,792.116
55.493,1193.23
56.9447,1677.86
58.3965,2192.13
59.8483,2700.23
61.3001,3050.36
62.7519,3318.33
64.2037,3562.41
65.6555,3680.82
67.1073,3799.56
68.559,3866.38
70.0108,3918.25
71.4626,4038.33
72.9144,4117.14
74.3662,4167.55
75.818,4218.05
77.2698,4300.92
78.7216,4470.46
80.1733,4596.05
81.6251,4710.92
83.0769,4770.75
84.5287,4799.59
85.9805,4830.66
87.4323,4744.46
88.8841,4605.85
90.3359,4474.72
91.7877,4308.53
93.2394,4137.84
94.6912,3920.18
96.143,3764.66
97.5948,3631.02
99.0466,3426.67
100.498,3355.25
101.95,3211
103.402,3101.56
104.854,3031.93
106.306,2998.31
107.757,2964.42
109.209,2943.54
110.661,2902.8
112.113,2840.82
113.564,2812.52
115.016,2789.4
116.468,2736.8
117.92,2689.37
119.372,2657.82
120.823,2611.47
122.275,2525.73
123.727,2454.07
125.179,2390.08
126.631,2364.06
128.082,2365.47
129.534,2273.47
130.986,2231.32
132.438,2211.15
133.889,2159.77
135.341,2123.69
136.793,2106.68
138.245,2065.88
139.697,2032.1
141.148,1985.29
142.6,1976.26
144.052,1929.82
145.504,1885.99
146.956,1863.07
148.407,1852.24
149.859,1854.17
151.311,1804.45
152.763,1764.42
154.215,1761.7
155.666,1762.32
157.118,1725.28
158.57,1782.69
160.022,1798.38
161.473,1787.06
162.925,1798.64
164.377,1870.01
165.829,1895.16
167.281,1912.43
168.732,1936.75
170.184,1904.5
171.636,1819.79
173.088,1754.85
174.54,1693.34
175.991,1618.18
177.443,1597.14
178.895,1579.28
180.347,1583.57
181.798,1560.38
183.25,1533.71
184.702,1520.08
186.154,1517.81
187.606,1503
189.057,1486.1
190.509,1471.2
191.961,1453.53
193.413,1499.4
194.865,1488.83
196.316,1469.23
197.768,1448.15
199.22,1471.22
200.672,1447.31
202.124,1450.34
203.575,1456.47
205.027,1422.61
206.479,1432.47
207.931,1439.38
209.382,1456.66
210.834,1449.79
212.286,1417.16
213.738,1411.12
215.19,1442.84
216.641,1442.13
218.093,1442.6
219.545,1436.65
220.997,1405.41
222.449,1398.19
223.9,1389.04
225.352,1405.46
226.804,1415.6
228.256,1392.79
229.707,1384.71
231.159,1400.42
232.611,1413.26
234.063,1417.65
235.515,1444.51
236.966,1397.36
238.418,1401.39
239.87,1420.04
241.322,1409.68
242.774,1383
244.225,1373.06
245.677,1381.52
247.129,1380.64
248.581,1375.28
250.033,1335.93
251.484,1366.29
252.936,1355.25
254.388,1336.89
255.84,1333.81
257.291,1377.43
258.743,1373.75
260.195,1330.76
261.647,1338.44
263.099,1341.28
264.55,1287.73
266.002,1275.73
267.454,1300.52
268.906,1310.44
270.358,1300.16
271.809,1303.31
273.261,1309.4
274.713,1282.19
276.165,1290.84
277.616,1282.41
279.068,1240
280.52,1232.84
281.972,1266.76
283.424,1248.68
284.875,1233.16
286.327,1225.34
287.779,1239.8
289.231,1243.32
290.683,1221.31
292.134,1196.75
293.586,1184.68
295.038,1207.89
296.49,1187.99
297.941,1161.3
299.393,1186.05
300.845,1184.55
302.297,1123.15
303.749,1124.77
305.2,1126.57
306.652,1130.91
308.104,1126.87
309.556,1117.45
311.008,1107.23
312.459,1112.74
313.911,1091.77
315.363,1102.21
316.815,1127.47
318.267,1067.14
319.718,1057.26
321.17,1063.04
322.622,1064.33
324.074,1071.01
325.525,1063.8
326.977,1066.7
328.429,1055.06
329.881,1067.78
331.333,1075.94
332.784,1051.31
334.236,1061.35
335.688,1027.29
337.14,1042.11
338.592,1037.72
340.043,1003.09
341.495,1018.07
342.947,1071.38
344.399,1035.19
345.85,1013.6
347.302,1030.99
348.754,1053.54
350.206,1048.45
351.658,1046.22
353.109,1026.21
354.561,1014.26
356.013,1015.66
357.465,991.096
358.917,1006.43
360.368,1023.6
361.82,1018.32
363.272,998.678
364.724,988.278
366.176,996.757
367.627,1008.61
369.079,1005.1
370.531,1002.41
371.983,1027.78
373.434,1002.92
374.886,1002.59
376.338,993.269
377.79,987.994
379.242,998.74
380.693,1010.05
382.145,981.938
383.597,963.287
385.049,948.931
386.501,956.91
387.952,972.729
389.404,980.553
390.856,977.396
392.308,977.501
393.759,982.867
395.211,982.898
396.663,988.561
398.115,963.086
399.567,984.157
401.018,992.807
402.47,981.253
403.922,972.899
405.374,1000
406.826,975.466
408.277,991.271
409.729,996.66
411.181,972.645
412.633,984.856
414.085,987.824
415.536,964.833
416.988,950.506
418.44,960.905
419.892,988.036
421.343,986.805
422.795,982.89
424.247,965.911
425.699,947.583
427.151,944.976
428.602,985.658
430.054,985.999
431.506,986.232
432.958,968.624
434.41,961.486
435.861,989.872
437.313,958.725
438.765,975.624
440.217,980.736
441.668,965.329
443.12,953.176
444.572,988.473
446.024,981.097
447.476,970.73
448.927,966.5
450.379,956.919
451.831,953.918
453.283,927.146
454.735,935.376
456.186,937.102
457.638,945.177
459.09,957.296
460.542,947.446
461.993,881.019
463.445,930.276
464.897,944.472
466.349,943.768
467.801,944.657
469.252,925.622
470.704,958.51
472.156,951.369
473.608,951.42
475.06,951.009
476.511,945.425
477.963,936.941
479.415,941.422
480.867,958.053
482.319,939.721
483.77,922.38
485.222,941.693
486.674,969.86
488.126,932.706
489.577,940.95
491.029,958.259
492.481,955.859
493.933,932.407
495.385,915.657
496.836,941.958
498.288,944.836
499.74,941.328
501.192,940.089
502.644,915.425
504.095,919.003
505.547,916.909
506.999,926.607
508.451,936.905
509.902,941.235
511.354,929.656
512.806,910.235
514.258,915.244
515.71,946.946
517.161,961.902
518.613,940.118
520.065,897.6
521.517,905.254
522.969,911.464
524.42,912.474
525.872,909.957
527.324,912.544
528.776,929.346
530.228,930.21
531.679,947.389
533.131,945.958
534.583,929.109
536.035,929.186
537.486,901.014
538.938,869.756
540.39,895.63
541.842,915.755
543.294,913.626
544.745,920.493
546.197,927.094
547.649,923.853
549.101,917.631
550.553,918.188
552.004,919.026
553.456,927.98
554.908,924.533
556.36,924.727
557.811,923.754
559.263,940.402
560.715,931.795
562.167,904.521
563.619,926.539
565.07,918.233
566.522,913.711
567.974,897.36
569.426,892.575
570.878,923.196
572.329,886.766
573.781,930.946
575.233,942.13
576.685,930.224
578.137,917.219
579.588,917.047
581.04,907.268
582.492,902.383
583.944,917.823
585.395,920.389
586.847,907.342
588.299,897.081
589.751,905.384
591.203,939.692
592.654,910.516
594.106,891.743
595.558,908.564
597.01,902.87
598.462,904.337
599.913,901.713
601.365,929.744
602.817,934.336
604.269,921.709
605.72,934.02
607.172,931.855
608.624,893.334
610.076,910.977
611.528,916.116
612.979,912.787
614.431,910.835
615.883,924.742
617.335,923.585
618.787,933.947
620.238,935.352
621.69,915.089
623.142,910.077
624.594,937.542
626.046,909.893
627.497,911.369
628.949,925.889
630.401,922.547
631.853,900.112
633.304,916.241
634.756,940.242
636.208,917.741
637.66,942.281
639.112,957.8
640.563,943.428
642.015,946.722
643.467,961.063
644.919,935.768
646.371,928.813
647.822,932.966
649.274,944.764
650.726,950.269
652.178,994.057
653.629,965.377
655.081,974.254
656.533,966.357
657.985,954.179
659.437,952.05
660.888,979.893
662.34,961.145
663.792,961.822
665.244,955.392
666.696,949.601
668.147,959.323
669.599,963.482
671.051,955.038
672.503,955.799
673.954,967.079
675.406,968.006
676.858,965.828
678.31,970.86
679.762,964.243
681.213,982.735
682.665,980.869
684.117,980.286
685.569,969.556
687.021,953.853
688.472,974.482
689.924,953.624
691.376,961.208
692.828,946.17
694.28,945.628
695.731,965.556
697.183,955
698.635,944.967
700.087,964.196
701.538,977.589
702.99,972.555
704.442,979.955
705.894,991.655
707.346,973.148
708.797,999.451
710.249,975.605
711.701,999.23
713.153,1013.8
714.605,1006.95
716.056,997.451
717.508,973.505
718.96,988.36
720.412,969.308
721.863,982.003
723.315,999.806
724.767,1004.22
726.219,995.422
727.671,975.277
729.122,984.013
730.574,993.064
732.026,983.51
733.478,970.097
734.93,977.495
736.381,982.633
737.833,991.794
739.285,1001.94
740.737,996.201
742.189,1002.13
743.64,1015.11
745.092,1002.21
746.544,960.126
747.996,978.678
749.447,1017.46
750.899,1006.13
752.351,980.179
753.803,972.527
755.255,976.11
756.706,981.343
758.158,965.222
759.61,978.723
761.062,994.118
762.514,991.278
763.965,991.762
765.417,1017
766.869,1000.31
768.321,965.789
769.772,991.762
771.224,990.398
772.676,984.37
774.128,1029.34
775.58,985.801
777.031,1002.12
778.483,983.048
779.935,1008.52
781.387,1023.33
782.839,1013.94
784.29,1036.59
785.742,1038.39
787.194,997.166
788.646,1006.31
790.098,1019.29
791.549,1003.55
793.001,1011.01
794.453,1009.59
795.905,1022.51
797.356,1011.3
798.808,1009.27
800.26,1007.63
801.712,1013.84
803.164,1033.12
804.615,1054.44
806.067,1008.38
807.519,1024.24
808.971,1032.53
810.423,1029.57
811.874,1029.4
813.326,1041.9
814.778,1003.44
816.23,1038.45
817.681,1026.24
819.133,1050.29
820.585,1078.88
822.037,1064.37
823.489,1044.48
824.94,1041.76
826.392,1043.28
827.844,1060.2
829.296,1070.51
830.748,1044.58
832.199,1024.53
833.651,1026.18
835.103,1086.25
836.555,1068.23
838.007,1076.41
839.458,1100.15
840.91,1097.49
842.362,1069.19
843.814,1060.85
845.265,1054.19
846.717,1059.62
848.169,1076.28
849.621,1127.66
851.073,1109.37
852.524,1092.58
853.976,1117.09
855.428,1111.42
856.88,1123.44
858.332,1124.19
859.783,1122.17
861.235,1103
862.687,1125.32
864.139,1134.55
865.59,1130.81
867.042,1138.84
868.494,1087.44
869.946,1078.47
871.398,1081.47
872.849,1106.91
874.301,1110.09
875.753,1103.25
877.205,1102.1
878.657,1110.09
880.108,1087
881.56,1092.59
883.012,1091.28
884.464,1094.59
885.915,1088.18
887.367,1079.37
888.819,1094.24
890.271,1085.54
891.723,1095.16
893.174,1123.77
894.626,1137.4
896.078,1147.28
897.53,1139.7
898.982,1121.52
900.433,1111.77
901.885,1098.78
903.337,1127
904.789,1143.51
906.241,1146.42
907.692,1151.08
909.144,1139.68
910.596,1147.66
912.048,1134.99
913.499,1160.8
914.951,1151.88
916.403,1141.62
917.855,1121.22
919.307,1096.91
920.758,1127.01
922.21,1169.05
923.662,1155.5
925.114,1161.56
926.566,1157.6
928.017,1157.88
929.469,1186.01
930.921,1172.94
932.373,1163.3
933.824,1109.98
935.276,1162.84
936.728,1187.53
938.18,1173.65
939.632,1182.68
941.083,1182.1
942.535,1159.26
943.987,1168.22
945.439,1196.02
946.891,1175.03
948.342,1160.32
949.794,1165.65
951.246,1168.4
952.698,1179.59
954.15,1207.49
955.601,1169.05
957.053,1152.42
958.505,1166.14
959.957,1173.05
961.408,1159.91
962.86,1154.23
964.312,1204.8
965.764,1207.56
967.216,1191.56
968.667,1167.51
970.119,1193.12
971.571,1183.75
973.023,1185.12
974.475,1198.63
975.926,1176.11
977.378,1188.55
978.83,1185.84
980.282,1195.82
981.733,1194.98
983.185,1210.15
984.637,1206.76
986.089,1195.75
987.541,1193.27
988.992,1223.06
990.444,1209.04
991.896,1238.84
993.348,1207.71
994.8,1220.44
996.251,1237.75
997.703,1213.89
999.155,1253.47
1000.61,1221.85
1002.06,1233.28
1003.51,1243.18
1004.96,1237.35
1006.41,1224.76
1007.87,1237.97
1009.32,1258.44
1010.77,1263.49
1012.22,1276.51
1013.67,1274.27
1015.12,1259.24
1016.58,1272.14
1018.03,1258.01
1019.48,1261
1020.93,1295.37
1022.38,1315.61
1023.84,1331.23
1025.29,1342.24
1026.74,1326.58
1028.19,1331.72
1029.64,1353.58
1031.09,1358.51
1032.55,1336.27
1034,1355.59
1035.45,1374.18
1036.9,1385
1038.35,1410.6
1039.8,1411.03
1041.26,1417.85
1042.71,1451.8
1044.16,1464.23
1045.61,1413.09
1047.06,1420.74
1048.52,1447.13
1049.97,1466.86
1051.42,1478.74
1052.87,1499.56
1054.32,1489.71
1055.77,1496.62
1057.23,1532.43
1058.68,1550.79
1060.13,1576.09
1061.58,1557.32
1063.03,1571.43
1064.49,1602.86
1065.94,1617.11
1067.39,1584.58
1068.84,1577.1
1070.29,1643.41
1071.74,1655.22
1073.2,1659.86
1074.65,1681.12
1076.1,1700.53
1077.55,1715.27
1079,1697.16
1080.46,1687.45
1081.91,1702.55
1083.36,1690.63
1084.81,1765.54
1086.26,1773.42
1087.71,1789.08
1089.17,1765.91
1090.62,1699.38
1092.07,1735.39
1093.52,1776.6
1094.97,1738.06
1096.42,1720.69
1097.88,1750.34
1099.33,1705.67
1100.78,1700.8
1102.23,1711.28
1103.68,1711.01
1105.14,1683.56
1106.59,1679.63
1108.04,1688.94
1109.49,1673.22
1110.94,1679.15
1112.39,1635.88
1113.85,1650.88
1115.3,1644.26
1116.75,1641.21
1118.2,1639.96
1119.65,1619.79
1121.11,1613.64
1122.56,1597.81
1124.01,1613.73
1125.46,1614.46
1126.91,1588.7
1128.36,1593.64
1129.82,1589.43
1131.27,1567
1132.72,1571.41
1134.17,1540.51
1135.62,1564.94
1137.07,1538.72
1138.53,1529.59
1139.98,1561.68
1141.43,1562.95
1142.88,1523.57
1144.33,1532.03
1145.79,1556.82
1147.24,1581.48
1148.69,1543.59
1150.14,1525.54
1151.59,1549.83
1153.04,1508.76
1154.5,1511.63
1155.95,1528.85
1157.4,1544.68
1158.85,1543.65
1160.3,1538.01
1161.76,1536.89
1163.21,1526.02
1164.66,1523.08
1166.11,1505.49
1167.56,1532.19
1169.01,1539.64
1170.47,1553.86
1171.92,1562.75
1173.37,1547.02
1174.82,1585
1176.27,1556.71
1177.72,1556.54
1179.18,1611.69
1180.63,1564.58
1182.08,1561.37
1183.53,1586.72
1184.98,1580.6
1186.44,1575.72
1187.89,1566.53
1189.34,1571.07
1190.79,1576.45
1192.24,1551.21
1193.69,1595.25
1195.15,1615.45
1196.6,1602.53
1198.05,1580.32
1199.5,1591.05
1200.95,1624.02
1202.41,1626.17
1203.86,1615.5
1205.31,1610.29
1206.76,1662.33
1208.21,1651.41
1209.66,1628.05
1211.12,1606.22
1212.57,1629.18
1214.02,1627.32
1215.47,1596.24
1216.92,1625.95
1218.37,1642.84
1219.83,1645.44
1221.28,1653.43
1222.73,1653.22
1224.18,1646.43
1225.63,1668.61
1227.09,1676.39
1228.54,1651.22
1229.99,1629.73
1231.44,1657.71
1232.89,1630.2
1234.34,1682.65
1235.8,1677.51
1237.25,1665.52
1238.7,1637.51
1240.15,1674.89
1241.6,1722.51
1243.06,1707.09
1244.51,1704.01
1245.96,1717.75
1247.41,1781.54
1248.86,1751.35
1250.31,1718.74
1251.77,1762.08
1253.22,1785.47
1254.67,1786.79
1256.12,1776.34
1257.57,1783.06
1259.02,1815.33
1260.48,1834.47
1261.93,1891.32
1263.38,1860.56
1264.83,1893.3
1266.28,1898.43
1267.74,1937.59
1269.19,1954.17
1270.64,1963.66
1272.09,2013.85
1273.54,2075.3
1274.99,2081.06
1276.45,2074.08
1277.9,2052.55
1279.35,2111.67
1280.8,2183.18
1282.25,2194.58
1283.71,2216.39
1285.16,2221.35
1286.61,2239.62
1288.06,2307.49
1289.51,2355.9
1290.96,2360.33
1292.42,2432.43
1293.87,2530.58
1295.32,2553.74
1296.77,2649.75
1298.22,2733.23
1299.67,2789.22
1301.13,2831.16
1302.58,2920.35
1304.03,3033.73
1305.48,3096.21
1306.93,3188.74
1308.39,3323.43
1309.84,3447.51
1311.29,3571.76
1312.74,3729.88
1314.19,3938.15
1315.64,4113.52
1317.1,4270.06
1318.55,4428.47
1320,4582.75
1321.45,4777.38
1322.9,5034.91
1324.36,5159.68
1325.81,5361.83
1327.26,5532.66
1328.71,5709.45
1330.16,5846.96
1331.61,5950.87
1333.07,6037.62
1334.52,6157.96
1335.97,6224.37
1337.42,6125.99
1338.87,6131.54
1340.33,6027.04
1341.78,5916.98
1343.23,5820.78
1344.68,5652.35
1346.13,5530.18
1347.58,5365.21
1349.04,5121.13
1350.49,4894.07
1351.94,4689.33
1353.39,4441.85
1354.84,4250.16
1356.29,4153.17
1357.75,3965
1359.2,3799.22
1360.65,3687.67
1362.1,3493.78
1363.55,3332.26
1365.01,3224.29
1366.46,3123.6
1367.91,3028.97
1369.36,2961.94
1370.81,2894.03
1372.26,2827.58
1373.72,2769.07
1375.17,2718.56
1376.62,2600.64
1378.07,2575.07
1379.52,2521.35
1380.98,2495.28
1382.43,2483.32
1383.88,2435.84
1385.33,2372.16
1386.78,2372.59
1388.23,2379.05
1389.69,2318.41
1391.14,2302.45
1392.59,2367.96
1394.04,2377.54
1395.49,2289.53
1396.94,2285.35
1398.4,2247.97
1399.85,2252.05
1401.3,2264.25
1402.75,2238.04
1404.2,2227.84
1405.66,2222.83
1407.11,2255.53
1408.56,2285.12
1410.01,2260.88
1411.46,2271.63
1412.91,2215.18
1414.37,2252.81
1415.82,2258.54
1417.27,2240.57
1418.72,2225.74
1420.17,2229.37
1421.63,2254.34
1423.08,2239.86
1424.53,2269.97
1425.98,2231.46
1427.43,2248.67
1428.88,2243.84
1430.34,2308.03
1431.79,2321.6
1433.24,2313.59
1434.69,2330.09
1436.14,2350.67
1437.59,2385.22
1439.05,2372.75
1440.5,2374.3
1441.95,2419.81
1443.4,2446.65
1444.85,2445.07
1446.31,2390.22
1447.76,2434.2
1449.21,2462.45
1450.66,2494.46
1452.11,2485.36
1453.56,2481.63
1455.02,2506.86
1456.47,2550.78
1457.92,2582.13
1459.37,2618.66
1460.82,2606.48
1462.28,2619.71
1463.73,2736.76
1465.18,2763.49
1466.63,2778.23
1468.08,2767.58
1469.53,2784.44
1470.99,2803.97
1472.44,2828.8
1473.89,2901.59
1475.34,2964.25
1476.79,2977.9
1478.24,3027.9
1479.7,3028.68
1481.15,3146.73
1482.6,3141.14
1484.05,3210.63
1485.5,3253.94
1486.96,3267.17
1488.41,3325.92
1489.86,3404.23
1491.31,3438.89
1492.76,3514.58
1494.21,3590.13
1495.67,3669.27
1497.12,3717.09
1498.57,3811.56
1500.02,3868.52
1501.47,4003.97
1502.93,4032.08
1504.38,4160.49
1505.83,4292.57
1507.28,4461.73
1508.73,4590.72
1510.18,4736.23
1511.64,4882.42
1513.09,5053.77
1514.54,5271.85
1515.99,5471.81
1517.44,5674.57
1518.89,5826.4
1520.35,6074.45
1521.8,6319
1523.25,6688.84
1524.7,7016.21
1526.15,7517.48
1527.61,7873.98
1529.06,8434.25
1530.51,9020.63
1531.96,9684.7
1533.41,10450.5
1534.86,11183.2
1536.32,12069.8
1537.77,13179.7
1539.22,14397.9
1540.67,15782.4
1542.12,17209.4
1543.58,18802.3
1545.03,20511.5
1546.48,22380.1
1547.93,24433.1
1549.38,26594.9
1550.83,28877.1
1552.29,31336.1
1553.74,33791.8
1555.19,36129
1556.64,38513.1
1558.09,41001
1559.54,43191.1
1561,45433.5
1562.45,47263.8
1563.9,48601.3
1565.35,49379.5
1566.8,51441.1
1568.26,49409.6
1569.71,48583.6
1571.16,47486.7
1572.61,45769.9
1574.06,43546.3
1575.51,40890.4
1576.97,38206.7
1578.42,35480.2
1579.87,32800.1
1581.32,30144.9
1582.77,27562.6
1584.23,25223.1
1585.68,22795.7
1587.13,20719.7
1588.58,19018.4
1590.03,17339.4
1591.48,15835.1
1592.94,14683.9
1594.39,13709.8
1595.84,12700
1597.29,11902.2
1598.74,11125.5
1600.2,10448
1601.65,9970.38
1603.1,9489.17
1604.55,8975.81
1606,8586.04
1607.45,8176.51
1608.91,7760.29
1610.36,7370.79
1611.81,6945.74
1613.26,6764.07
1614.71,6419.47
1616.16,6145.07
1617.62,5813.28
1619.07,5551.91
1620.52,5353.78
1621.97,5102.81
1623.42,4862.39
1624.88,4723.73
1626.33,4566.06
1627.78,4382.46
1629.23,4165.72
1630.68,4030.69
1632.13,3957.27
1633.59,3871.2
1635.04,3739.1
1636.49,3643.37
1637.94,3560.48
1639.39,3484.65
1640.85,3419.78
1642.3,3407.48
1643.75,3311.67
1645.2,3210.22
1646.65,3169.87
1648.1,3112.03
1649.56,3013.17
1651.01,2965.99
1652.46,2935.36
1653.91,2867.71
1655.36,2817.42
1656.81,2796.16
1658.27,2776.14
1659.72,2760.01
1661.17,2712.53
1662.62,2631.78
1664.07,2614.69
1665.53,2564.33
1666.98,2566.66
1668.43,2564.16
1669.88,2485.26
1671.33,2450.43
1672.78,2426.72
1674.24,2395.13
1675.69,2381.14
1677.14,2336.59
1678.59,2331.76
1680.04,2325.38
1681.5,2313.54
1682.95,2271.46
1684.4,2251.88
1685.85,2213.75
1687.3,2230.87
1688.75,2181.49
1690.21,2179.57
1691.66,2143.58
1693.11,2142.89
1694.56,2115.25
1696.01,2096.99
1697.46,2103.74
1698.92,2094.11
1700.37,2098.35
1701.82,2098.49
1703.27,2075.38
1704.72,2061.67
1706.18,2061.92
1707.63,2068.21
1709.08,2050.11
1710.53,2022.94
1711.98,2035.17
1713.43,2045.85
1714.89,2031.28
1716.34,1992.06
1717.79,1967.87
1719.24,1949.16
1720.69,1978.86
1722.15,1975.59
1723.6,2001.55
1725.05,1966.22
1726.5,1955.22
1727.95,1954.01
1729.4,1951.84
1730.86,1990.49
1732.31,1979.86
1733.76,1960.72
1735.21,1951.27
1736.66,1950.14
1738.11,1936.62
1739.57,1945.66
1741.02,1914.73
1742.47,1920.75
1743.92,1930.36
1745.37,1912.93
1746.83,1917.84
1748.28,1903.53
1749.73,1882.04
1751.18,1925.21
1752.63,1871.79
1754.08,1816.6
1755.54,1853.91
1756.99,1886.78
1758.44,1863
1759.89,1806.03
1761.34,1829.7
1762.8,1853.46
1764.25,1837.49
1765.7,1822.13
1767.15,1828.65
1768.6,1799.8
1770.05,1763.65
1771.51,1778.23
1772.96,1786.88
1774.41,1766.92
1775.86,1785.46
1777.31,1768.06
1778.76,1740.46
1780.22,1760.12
1781.67,1736.26
1783.12,1719.18
1784.57,1705.34
1786.02,1672.04
1787.48,1744.32
1788.93,1660.31
1790.38,1708.44
1791.83,1692.89
1793.28,1713.89
1794.73,1679.77
1796.19,1675.65
1797.64,1688.12
1799.09,1672.12
1800.54,1659.26
1801.99,1687.62
1803.45,1683.89
1804.9,1634.95
1806.35,1631.83
1807.8,1643.24
1809.25,1633.34
1810.7,1666.54
1812.16,1660.99
1813.61,1626.81
1815.06,1625.29
1816.51,1620.44
1817.96,1605.06
1819.41,1624.27
1820.87,1654.24
1822.32,1658.07
1823.77,1665.56
1825.22,1687.45
1826.67,1682.22
1828.13,1676.33
1829.58,1726.13
1831.03,1641.58
1832.48,1631.42
1833.93,1633.56
1835.38,1650.2
1836.84,1637.39
1838.29,1683.41
1839.74,1691.46
1841.19,1699.08
1842.64,1711.93
1844.1,1688.12
1845.55,1695.27
1847,1715.77
1848.45,1740.66
1849.9,1786.76
1851.35,1794.94
1852.81,1770.43
1854.26,1751.04
1855.71,1756.93
1857.16,1765.37
1858.61,1761.08
1860.07,1756.66
1861.52,1779.26
1862.97,1784.5
1864.42,1773.56
1865.87,1777.03
1867.32,1781.9
1868.78,1785.38
1870.23,1774.46
1871.68,1802.92
1873.13,1755.89
1874.58,1767.71
1876.03,1747.86
1877.49,1723.05
1878.94,1715.26
1880.39,1689.16
1881.84,1691.65
1883.29,1717.1
1884.75,1746.41
1886.2,1660.14
1887.65,1691.97
1889.1,1713.38
1890.55,1680.26
1892,1667.73
1893.46,1667.95
1894.91,1652.24
1896.36,1628.71
1897.81,1596.99
1899.26,1568.92
1900.72,1607.04
1902.17,1621.62
1903.62,1601.31
1905.07,1599.87
1906.52,1582.69
1907.97,1586.98
1909.43,1568.52
1910.88,1581.84
1912.33,1564.41
1913.78,1559.41
1915.23,1556.8
1916.68,1538.48
1918.14,1507.94
1919.59,1523.39
1921.04,1543.54
1922.49,1546.85
1923.94,1577.3
1925.4,1558.18
1926.85,1525.52
1928.3,1476.9
1929.75,1541.41
1931.2,1537.08
1932.65,1518.22
1934.11,1549.34
1935.56,1554.39
1937.01,1534.01
1938.46,1507.12
1939.91,1482.36
1941.37,1501.43
1942.82,1538.58
1944.27,1560.82
1945.72,1564.33
1947.17,1547.69
1948.62,1555.89
1950.08,1555.33
1951.53,1525.69
1952.98,1570.13
1954.43,1561.33
1955.88,1550.52
1957.33,1554.68
1958.79,1550.38
1960.24,1549.79
1961.69,1551.12
1963.14,1568.56
1964.59,1568.27
1966.05,1543.77
1967.5,1552.41
1968.95,1588.37
1970.4,1573.26
1971.85,1550.67
1973.3,1543.42
1974.76,1537.34
1976.21,1542.41
1977.66,1584.64
1979.11,1614.72
1980.56,1607.91
1982.02,1588.59
1983.47,1588.84
1984.92,1600.97
1986.37,1589.86
1987.82,1627.98
1989.27,1618.02
1990.73,1608.3
1992.18,1624.16
1993.63,1620.78
1995.08,1600.6
1996.53,1645.41
1997.98,1627.81
1999.44,1636.98
2000.89,1630.93
2002.34,1591.27
2003.79,1659.27
2005.24,1639.57
2006.7,1604.56
2008.15,1598.18
2009.6,1587.04
2011.05,1562.27
2012.5,1587.68
2013.95,1585.77
2015.41,1511.06
2016.86,1662.31
2018.31,1567.28
2019.76,1535.92
2021.21,1587.12
2022.67,1569.27
2024.12,1554.22
2025.57,1552.24
2027.02,1580.94
2028.47,1565.45
2029.92,1660.42
2031.38,1570.72
2032.83,1544.08
2034.28,1507.79
2035.73,1511.36
2037.18,1537.64
2038.63,1483.18
2040.09,1501.52
2041.54,1514.21
2042.99,1491.97
2044.44,1482.95
2045.89,1494.61
2047.35,1474.13
2048.8,1492.25
2050.25,1459.21
2051.7,1447.44
2053.15,1446.59
2054.6,1441.56
2056.06,1443.75
2057.51,1456.03
2058.96,1452.58
2060.41,1410.12
2061.86,1414.68
2063.32,1418.52
2064.77,1464.08
2066.22,1438.34
2067.67,1424.37
2069.12,1435.7
2070.57,1428.37
2072.03,1413.15
2073.48,1404.07
2074.93,1383.65
2076.38,1384.99
2077.83,1386.95
2079.28,1393.65
2080.74,1384.46
2082.19,1395.52
2083.64,1388.37
2085.09,1378.02
2086.54,1391.07
2088,1402.41
2089.45,1393.33
2090.9,1388.71
2092.35,1387.07
2093.8,1378.94
2095.25,1365.03
2096.71,1372.36
2098.16,1372.19
2099.61,1373.73
2101.06,1356.72
2102.51,1361.32
2103.97,1400.34
2105.42,1423.88
2106.87,1396.91
2108.32,1390.67
2109.77,1379.62
2111.22,1366.47
2112.68,1396.12
2114.13,1425.12
2115.58,1387.76
2117.03,1386.18
2118.48,1437.52
2119.94,1439.09
2121.39,1416.2
2122.84,1400.97
2124.29,1408.77
2125.74,1429.8
2127.19,1435.13
2128.65,1383.56
2130.1,1404.64
2131.55,1449.76
2133,1420.3
2134.45,1405.27
2135.9,1429.36
2137.36,1407.3
2138.81,1394.79
2140.26,1419.49
2141.71,1452.31
2143.16,1418.43
2144.62,1436.58
2146.07,1437.65
2147.52,1430.62
2148.97,1449.72
2150.42,1443.67
2151.87,1459.37
2153.33,1478.96
2154.78,1456.27
2156.23,1449.62
2157.68,1454.85
2159.13,1468.35
2160.58,1472.08
2162.04,1476.08
2163.49,1453.26
2164.94,1445.35
2166.39,1460.93
2167.84,1485.24
2169.3,1473.21
2170.75,1455.86
2172.2,1450.51
2173.65,1492.16
2175.1,1484.27
2176.55,1470.16
2178.01,1491.78
2179.46,1496.28
2180.91,1469.67
2182.36,1471.76
2183.81,1481.61
2185.27,1478.67
2186.72,1535.22
2188.17,1548.89
2189.62,1546.58
2191.07,1532.79
2192.52,1488.89
2193.98,1514.03
2195.43,1474.49
2196.88,1494.33
2198.33,1550.64
2199.78,1541
2201.24,1585.51
2202.69,1531.99
2204.14,1524.27
2205.59,1534.83
2207.04,1556.93
2208.49,1504.23
2209.95,1518.05
2211.4,1552.51
2212.85,1504.62
2214.3,1532.68
2215.75,1466.83
2217.2,1503.87
2218.66,1530.48
2220.11,1511.31
2221.56,1544.99
2223.01,1547.62
2224.46,1535.7
2225.92,1487.69
2227.37,1487.7
2228.82,1495.37
2230.27,1552.67
2231.72,1558.09
2233.17,1524.76
2234.63,1567.56
2236.08,1554.81
2237.53,1521.19
2238.98,1553.97
2240.43,1560.14
2241.89,1578.32
2243.34,1569.51
2244.79,1568.44
2246.24,1593.53
2247.69,1599.36
2249.14,1587.07
2250.6,1580.16
2252.05,1571.35
2253.5,1582.52
2254.95,1576.29
2256.4,1560.49
2257.85,1601.82
2259.31,1629.58
2260.76,1592.32
2262.21,1599.09
2263.66,1592.8
2265.11,1599.62
2266.57,1623.58
2268.02,1615.1
2269.47,1604.98
2270.92,1600.49
2272.37,1585.49
2273.82,1635.54
2275.28,1614.1
2276.73,1601.46
2278.18,1608.57
2279.63,1610.7
2281.08,1636.53
2282.54,1654.49
2283.99,1640.04
2285.44,1692.95
2286.89,1679.5
2288.34,1674.02
2289.79,1686.29
2291.25,1695.52
2292.7,1679.8
2294.15,1661.49
2295.6,1688.94
2297.05,1674.61
2298.5,1701.27
2299.96,1720.85
2301.41,1742.88
2302.86,1698.99
2304.31,1667.79
2305.76,1769.46
2307.22,1778.15
2308.67,1733.55
2310.12,1721.39
2311.57,1716.19
2313.02,1779.6
2314.47,1812.17
2315.93,1758.46
2317.38,1760.94
2318.83,1786.82
2320.28,1726.95
2321.73,1741.2
2323.19,1780.95
2324.64,1812.43
2326.09,1820.17
2327.54,1826.73
2328.99,1808.37
2330.44,1816.38
2331.9,1830.21
2333.35,1828.99
2334.8,1850.32
2336.25,1857.06
2337.7,1862.68
2339.16,1856.96
2340.61,1857.27
2342.06,1894.03
2343.51,1909.55
2344.96,1906.33
2346.41,1931.12
2347.87,1900.77
2349.32,1915.01
2350.77,1975.22
2352.22,1984.91
2353.67,1991.99
2355.12,1996.19
2356.58,2000.71
2358.03,1984.37
2359.48,2028.1
2360.93,1980.93
2362.38,2014.98
2363.84,2043.31
2365.29,2049.06
2366.74,2044.97
2368.19,2078.34
2369.64,2126.08
2371.09,2164.79
2372.55,2205.99
2374,2208.66
2375.45,2258.54
2376.9,2257.92
2378.35,2277.42
2379.8,2339.07
2381.26,2333.57
2382.71,2353.35
2384.16,2357.88
2385.61,2396.56
2387.06,2432.96
2388.52,2421.65
2389.97,2516.67
2391.42,2562.6
2392.87,2612.37
2394.32,2652.07
2395.77,2735.63
2397.23,2696.81
2398.68,2716.33
2400.13,2808.28
2401.58,2878.96
2403.03,2947.27
2404.49,2960.89
2405.94,3014.55
2407.39,3094.9
2408.84,3129.92
2410.29,3176.49
2411.74,3211.8
2413.2,3255.84
2414.65,3284.5
2416.1,3391.73
2417.55,3459.17
2419,3455.9
2420.46,3461.49
2421.91,3478.29
2423.36,3428.86
2424.81,3462.24
2426.26,3568.1
2427.71,3550.32
2429.17,3560.45
2430.62,3646.09
2432.07,3599.47
2433.52,3608.44
2434.97,3508.18
2436.42,3539.88
2437.88,3582.65
2439.33,3540.11
2440.78,3527.93
2442.23,3482.16
2443.68,3444.84
2445.14,3477.76
2446.59,3428.75
2448.04,3447.82
2449.49,3444.84
2450.94,3404.24
2452.39,3345.21
2453.85,3335.26
2455.3,3305.23
2456.75,3288.56
2458.2,3262.63
2459.65,3246.24
2461.1,3220.59
2462.56,3185.78
2464.01,3205.3
2465.46,3172.09
2466.91,3102.36
2468.36,3129.08
2469.82,3062.6
2471.27,3160.1
2472.72,3144.14
2474.17,3079.64
2475.62,3050.35
2477.07,3017.06
2478.53,3004.8
2479.98,2976.05
2481.43,2989.41
2482.88,3053.62
2484.33,3056.87
2485.79,3061.22
2487.24,3000.27
2488.69,2999.23
2490.14,2990.63
2491.59,3030.13
2493.04,3023.02
2494.5,3020.16
2495.95,2988.48
2497.4,3031.99
2498.85,2999.43
2500.3,3053.82
2501.76,3077.24
2503.21,3063.25
2504.66,3111.5
2506.11,3079.33
2507.56,3051.8
2509.01,3031.7
2510.47,3142.53
2511.92,3112.94
2513.37,3114.11
2514.82,3179.75
2516.27,3194.97
2517.72,3219.36
2519.18,3207.96
2520.63,3177.77
2522.08,3223.47
2523.53,3268.17
2524.98,3294.79
2526.44,3255.83
2527.89,3300.95
2529.34,3359.49
2530.79,3419.04
2532.24,3440.02
2533.69,3450.03
2535.15,3500.62
2536.6,3485.69
2538.05,3634.79
2539.5,3593.66
2540.95,3632.49
2542.41,3676.89
2543.86,3732.21
2545.31,3777.16
2546.76,3816.98
2548.21,3790.82
2549.66,3864.37
2551.12,3932.08
2552.57,4051.15
2554.02,4118.26
2555.47,4126.47
2556.92,4167.15
2558.37,4225.61
2559.83,4314.72
2561.28,4359.17
2562.73,4406.26
2564.18,4574.56
2565.63,4680.53
2567.09,4714.36
2568.54,4789.95
2569.99,4873.62
2571.44,4982.53
2572.89,5047.78
2574.34,5159.46
2575.8,5179.54
2577.25,5443.03
2578.7,5617.05
2580.15,5705.75
2581.6,5804.18
2583.06,5920.06
2584.51,6052.13
2585.96,6244.8
2587.41,6481.65
2588.86,6639.93
2590.31,6791.29
2591.77,6935.75
2593.22,7204.51
2594.67,7397.86
2596.12,7627.15
2597.57,7931.01
2599.02,8168.64
2600.48,8415.49
2601.93,8694.21
2603.38,8974.71
2604.83,9363.96
2606.28,9664.39
2607.74,10084.3
2609.19,10361.3
2610.64,10787.7
2612.09,11096.3
2613.54,11586.1
2614.99,12070
2616.45,12560.8
2617.9,13087.5
2619.35,13623.4
2620.8,14128.1
2622.25,14735.1
2623.71,15324.2
2625.16,16007.5
2626.61,16621.6
2628.06,17229.9
2629.51,18080.9
2630.96,18693.1
2632.42,19551.3
2633.87,20231.4
2635.32,20989.5
2636.77,21724.7
2638.22,22558.7
2639.68,23265.1
2641.13,23851.9
2642.58,24543.8
2644.03,25324.5
2645.48,25975
2646.93,26755.2
2648.39,27136.6
2649.84,27864.5
2651.29,28366.1
2652.74,28752.7
2654.19,29095.5
2655.64,29611.2
2657.1,29780.5
2658.55,29982.8
2660,30172.3
2661.45,30118.4
2662.9,29913.4
2664.36,29749.7
2665.81,29575.1
2667.26,29174.5
2668.71,28971.9
2670.16,28660.9
2671.61,28248.4
2673.07,27566.3
2674.52,26971
2675.97,26102.2
2677.42,25527.3
2678.87,24797.7
2680.32,24167.7
2681.78,23338.7
2683.23,22508.9
2684.68,21706.3
2686.13,20967.9
2687.58,20115.7
2689.04,19482.5
2690.49,18644.8
2691.94,17941
2693.39,17166.7
2694.84,16415.1
2696.29,15730.4
2697.75,15036.3
2699.2,14489.9
2700.65,13855.1
2702.1,13194.1
2703.55,12621.9
2705.01,12030.8
2706.46,11621
2707.91,11076.3
2709.36,10644.1
2710.81,10165.4
2712.26,9683.8
2713.72,9378.21
2715.17,9040.07
2716.62,8663.12
2718.07,8258.05
2719.52,8004.98
2720.98,7739.66
2722.43,7402.46
2723.88,7160.36
2725.33,6944.54
2726.78,6670.42
2728.23,6418.79
2729.69,6316.52
2731.14,6058.31
2732.59,5858.01
2734.04,5726.35
2735.49,5561.52
2736.94,5377.79
2738.4,5238.91
2739.85,5094.4
2741.3,4902.52
2742.75,4845.15
2744.2,4808.51
2745.66,4579.84
2747.11,4474.46
2748.56,4392.16
2750.01,4332.09
2751.46,4261.75
2752.91,4203.04
2754.37,4075.92
2755.82,4008.03
2757.27,3921.59
2758.72,3864.65
2760.17,3710.52
2761.63,3706.52
2763.08,3664.85
2764.53,3553.8
2765.98,3562.58
2767.43,3503.23
2768.88,3382.21
2770.34,3389.39
2771.79,3311.56
2773.24,3250.76
2774.69,3205.5
2776.14,3175.49
2777.59,3213.96
2779.05,3101.64
2780.5,3072.13
2781.95,3055.54
2783.4,3071.14
2784.85,3034.95
2786.31,2967.23
2787.76,2917.97
2789.21,2915.95
2790.66,2871.7
2792.11,2835.37
2793.56,2782.16
2795.02,2776.97
2796.47,2766.76
2797.92,2762.77
2799.37,2723.76
2800.82,2724.86
2802.28,2718.48
2803.73,2651.25
2805.18,2632.6
2806.63,2636.57
2808.08,2599.56
2809.53,2543.31
2810.99,2560.17
2812.44,2554.59
2813.89,2482.22
2815.34,2492.35
2816.79,2456.75
2818.24,2481.49
2819.7,2478.77
2821.15,2456.71
2822.6,2422.26
2824.05,2407.42
2825.5,2399.52
2826.96,2423.7
2828.41,2390.13
2829.86,2412.67
2831.31,2332.4
2832.76,2305.12
2834.21,2334.53
2835.67,2350.02
2837.12,2344.94
2838.57,2342.46
2840.02,2276.79
2841.47,2316.63
2842.93,2232.28
2844.38,2264.33
2845.83,2243.36
2847.28,2217.6
2848.73,2203.67
2850.18,2239.52
2851.64,2230.72
2853.09,2242.74
2854.54,2229.35
2855.99,2209.22
2857.44,2176.07
2858.9,2228.76
2860.35,2196.08
2861.8,2177.52
2863.25,2214.37
2864.7,2180.99
2866.15,2189.02
2867.61,2210.19
2869.06,2229.51
2870.51,2214.72
2871.96,2310.18
2873.41,2239.27
2874.86,2239.21
2876.32,2181.41
2877.77,2207.33
2879.22,2190.53
2880.67,2219.64
2882.12,2257.02
2883.58,2251.3
2885.03,2244.44
2886.48,2229.46
2887.93,2167.73
2889.38,2204.99
2890.83,2184.88
2892.29,2262.84
2893.74,2228.21
2895.19,2193.86
2896.64,2185.52
2898.09,2186.01
2899.54,2193.93
2901,2168.63
2902.45,2170.63
2903.9,2263.74
2905.35,2173.49
2906.8,2217.33
2908.26,2219.53
2909.71,2209.85
2911.16,2173.36
2912.61,2152.77
2914.06,2123.97
2915.51,2143.2
2916.97,2117.26
2918.42,2142.62
2919.87,2126.79
2921.32,2134.99
2922.77,2101.22
2924.23,2084.04
2925.68,2058.35
2927.13,2060.82
2928.58,2101.85
2930.03,2048.29
2931.48,2046.35
2932.94,1985.49
2934.39,2012.35
2935.84,1995.25
2937.29,1980.28
2938.74,1944.14
2940.2,1955.41
2941.65,1911.37
2943.1,1855.52
2944.55,1865.87
2946,1875.21
2947.45,1812.37
2948.91,1784.92
2950.36,1804.76
2951.81,1824.12
2953.26,1757.45
2954.71,1772.56
2956.16,1796.05
2957.62,1758.1
2959.07,1724.49
2960.52,1738.21
2961.97,1699.47
2963.42,1695.69
2964.88,1638.52
2966.33,1643.85
2967.78,1681.18
2969.23,1654.47
2970.68,1634.06
2972.13,1643.23
2973.59,1602.41
2975.04,1592.7
2976.49,1612.31
2977.94,1600.61
2979.39,1585.74
2980.84,1577.04
2982.3,1581.62
2983.75,1550.18
2985.2,1541.96
2986.65,1511.94
2988.1,1548.01
2989.56,1549.37
2991.01,1543.6
2992.46,1554.95
2993.91,1533.18
2995.36,1514.96
2996.81,1491.95
2998.27,1501.31
2999.72,1508.24
3001.17,1474.13
3002.62,1469.02
3004.07,1457.15
3005.53,1506.96
3006.98,1491.93
3008.43,1470.42
3009.88,1473.29
3011.33,1465.91
3012.78,1471.71
3014.24,1471.41
3015.69,1416.47
3017.14,1452.27
3018.59,1439.59
3020.04,1426.02
3021.5,1452.51
3022.95,1439.63
3024.4,1436.04
3025.85,1455.51
3027.3,1450.29
3028.75,1419.95
3030.21,1488.67
3031.66,1411.66
3033.11,1442.94
3034.56,1458.65
3036.01,1425.34
3037.46,1427.98
3038.92,1436.66
3040.37,1412.33
3041.82,1433.73
3043.27,1455.45
3044.72,1403.49
3046.18,1421.25
3047.63,1431.29
3049.08,1438.1
3050.53,1442.47
3051.98,1440.5
3053.43,1432.09
3054.89,1431.61
3056.34,1435.32
3057.79,1437.31
3059.24,1465.55
3060.69,1457.68
3062.15,1452.88
3063.6,1449.77
3065.05,1459.8
3066.5,1479.79
3067.95,1463.56
3069.4,1440.84
3070.86,1458.13
3072.31,1468.13
3073.76,1469.71
3075.21,1516.54
3076.66,1467.26
3078.11,1524.64
3079.57,1521.02
3081.02,1522.17
3082.47,1521.69
3083.92,1544.31
3085.37,1549.91
3086.83,1582.36
3088.28,1557.58
3089.73,1562.88
3091.18,1563.48
3092.63,1604.28
3094.08,1647.63
3095.54,1641.41
3096.99,1651.65
3098.44,1712.67
3099.89,1694.17
3101.34,1693.79
3102.8,1766.41
3104.25,1809.04
3105.7,1832.47
3107.15,1865.05
3108.6,1853.52
3110.05,1865.76
3111.51,1892.16
3112.96,1919.84
3114.41,2009.58
3115.86,1995.51
3117.31,2012.01
3118.76,1981.83
3120.22,2057.84
3121.67,2094.57
3123.12,2092.87
3124.57,2133.72
3126.02,2190.3
3127.48,2178.76
3128.93,2304.09
3130.38,2275.81
3131.83,2258.03
3133.28,2274.37
3134.73,2322.54
3136.19,2298.92
3137.64,2311.42
3139.09,2283.37
3140.54,2359.95
3141.99,2371.88
3143.45,2387.63
3144.9,2360.7
3146.35,2387.06
3147.8,2409.74
3149.25,2452.88
3150.7,2419.19
3152.16,2489.62
3153.61,2469.28
3155.06,2418.77
3156.51,2439.33
3157.96,2452.2
3159.42,2485.07
3160.87,2408.62
3162.32,2468.76
3163.77,2480.84
3165.22,2475.45
3166.67,2513.42
3168.13,2518.53
3169.58,2473.99
3171.03,2450.37
3172.48,2504.93
3173.93,2499.97
3175.38,2549.59
3176.84,2603.54
3178.29,2600.8
3179.74,2656.02
3181.19,2660.34
3182.64,2691.06
3184.1,2767.17
3185.55,2722.62
3187,2777.54
3188.45,2795.75
3189.9,2785.89
3191.35,2859.72
3192.81,2839.57
3194.26,2842.19
3195.71,2888.66
3197.16,2891.45
3198.61,2861.88
3200.06,2949.02
3201.52,2935.62
3202.97,2942.94
3204.42,2878.54
3205.87,2909.11
3207.32,2922.68
3208.78,2871.51
3210.23,2914.15
3211.68,2786.25
3213.13,2706.24
3214.58,2686.45
3216.03,2630
3217.49,2612.87
3218.94,2552.58
3220.39,2500.45
3221.84,2436.54
3223.29,2393.26
3224.75,2285.66
3226.2,2236.03
3227.65,2212.47
3229.1,2146.05
3230.55,2078.14
3232,2037.67
3233.46,1971.61
3234.91,1914.96
3236.36,1877.61
3237.81,1882.23
3239.26,1766.2
3240.72,1691.93
3242.17,1676.52
3243.62,1675.96
3245.07,1629.66
3246.52,1579.34
3247.97,1517.45
3249.43,1562.72
3250.88,1469.01
3252.33,1429.01
3253.78,1417.53
3255.23,1397.97
3256.68,1368.22
3258.14,1423.09
3259.59,1371.75
3261.04,1346.53
3262.49,1316.39
3263.94,1314.72
3265.4,1287.64
3266.85,1247.55
3268.3,1294.36
3269.75,1290.95
3271.2,1251.83
3272.65,1263.62
3274.11,1242.49
3275.56,1236.16
3277.01,1228.55
3278.46,1221.02
3279.91,1200.28
3281.37,1202.22
3282.82,1223.72
3284.27,1233.77
3285.72,1162.3
3287.17,1191.93
3288.62,1184.23
3290.08,1174.34
3291.53,1160.82
3292.98,1135.23
3294.43,1181.08
3295.88,1152.66
3297.33,1168.2
3298.79,1166.61
3300.24,1193.94
3301.69,1166.49
3303.14,1167.67
3304.59,1145.2
3306.05,1229.34
3307.5,1167.84
3308.95,1155.25
3310.4,1160.08
3311.85,1142.79
3313.3,1141.97
3314.76,1132.64
3316.21,1156.04
3317.66,1147.4
3319.11,1122.44
3320.56,1144.63
3322.02,1127.06
3323.47,1135.19
3324.92,1144.92
3326.37,1153.54
3327.82,1152.93
3329.27,1142.99
3330.73,1133.71
3332.18,1144.08
3333.63,1157.48
3335.08,1105.25
3336.53,1098.22
3337.98,1154.81
3339.44,1114.78
3340.89,1116.42
3342.34,1127.72
3343.79,1142.08
3345.24,1127.37
3346.7,1119.41
3348.15,1108.24
3349.6,1118.76
3351.05,1124.73
3352.5,1088.51
3353.95,1130.82
3355.41,1106.92
3356.86,1066.03
3358.31,1095.68
3359.76,1137.86
3361.21,1116.5
3362.67,1127.27
3364.12,1101.56
3365.57,1111.16
3367.02,1120.29
3368.47,1094.26
3369.92,1112.78
3371.38,1129.82
3372.83,1113.1
3374.28,1063.93
3375.73,1079.89
3377.18,1110.87
3378.63,1120.15
3380.09,1131.27
3381.54,1078.69
3382.99,1077.82
3384.44,1077.37
3385.89,1067.86
3387.35,1098.91
3388.8,1073.24
3390.25,1087.77
3391.7,1071.35
3393.15,1065.72
3394.6,1082.26
3396.06,1095.72
3397.51,1102.89
3398.96,1116.36
3400.41,1082.85
3401.86,1076.5
3403.32,1090.93
3404.77,1099.64
3406.22,1126.63
3407.67,1069.79
3409.12,1084.82
3410.57,1072.56
3412.03,1062.32
3413.48,1039.62
3414.93,1100.46
3416.38,1096.14
3417.83,1076.34
3419.28,1072.7
3420.74,1124.21
3422.19,1067.99
3423.64,1105.79
3425.09,1084.81
3426.54,1064.05
3428,1031.76
3429.45,1083.95
3430.9,1091.99
3432.35,1100.94
3433.8,1102.07
3435.25,1053.08
3436.71,1059.51
3438.16,1059.45
3439.61,1097.67
3441.06,1090.06
3442.51,1059.61
3443.97,1046.76
3445.42,1034.49
3446.87,1085.55
3448.32,1053.48
3449.77,1044.01
3451.22,1052.18
3452.68,1102.44
3454.13,1032.21
3455.58,1037.34
3457.03,1091.02
3458.48,1063.22
3459.94,1065.77
3461.39,1042.4
3462.84,1062.8
3464.29,1071.66
3465.74,1066.95
3467.19,1067.48
3468.65,1027.16
3470.1,1079.26
3471.55,1062.33
3473,1032.49
3474.45,1006.95
3475.9,1068.42
3477.36,1093.14
3478.81,1100.64
3480.26,1084.47
3481.71,1035.59
3483.16,1063.36
3484.62,1013.52
3486.07,1076.83
3487.52,1047.16
3488.97,1022.94
3490.42,1055.58
3491.87,1063.97
3493.33,1078.53
3494.78,1054.16
3496.23,1054.37
3497.68,1058.48
3499.13,1056.52
3500.58,1072.03
3502.04,1094.74
3503.49,1054.28
3504.94,1028.68
3506.39,1016.3
3507.84,1066.92
3509.3,1103.76
3510.75,1108.44
3512.2,1050.16
3513.65,1053.37
3515.1,1073.99
3516.55,1058.73
3518.01,1076.16
3519.46,1064.63
3520.91,1057.81
3522.36,1054.78
3523.81,1060.75
3525.27,1062.27
3526.72,1038.22
3528.17,1070.57
3529.62,1048.44
3531.07,1066.89
3532.52,1080
3533.98,1071.72
3535.43,1087.07
3536.88,1068.47
3538.33,1025.73
3539.78,1060.49
3541.24,1069.8
3542.69,1041.99
3544.14,1072.07
3545.59,1078.43
3547.04,1056.07
3548.49,1043.95
3549.95,1066.99
3551.4,1045.56
3552.85,1028.8
3554.3,1034.51
3555.75,1074.45
3557.2,1086.2
3558.66,1047.54
3560.11,1039.36
3561.56,1050.75
3563.01,1052.79
3564.46,1059.34
3565.92,1059.17
3567.37,1050.15
3568.82,1054.49
3570.27,1056.53
3571.72,1031.02
3573.17,1042.65
3574.63,1064.18
3576.08,1058.5
3577.53,1084.29
3578.98,1011.62
3580.43,1040.33
3581.89,1032.75
3583.34,1035.7
3584.79,1020.36
3586.24,1068.36
3587.69,1035.76
3589.14,1064.47
3590.6,1066.82
3592.05,1038.84
3593.5,1041.52
3594.95,1032.68
3596.4,1020.62
3597.85,1021.72
3599.31,1058.44
3600.76,1063.27
3602.21,1027.3
3603.66,1061.36
3605.11,998.788
3606.57,1059.67
3608.02,1055.73
3609.47,1045.94
3610.92,1054.06
3612.37,1085.41
3613.82,1041.66
3615.28,1047.8
3616.73,1024.38
3618.18,1086
3619.63,1021.88
3621.08,1066.96
3622.54,1054.81
3623.99,1065.03
3625.44,1074.26
3626.89,1061.14
3628.34,1029.44
3629.79,1037.17
3631.25,1041.14
3632.7,1052.89
3634.15,1040.79
3635.6,1033.57
3637.05,1023.15
3638.5,1051.71
3639.96,1040.9
3641.41,1055.34
3642.86,1046.98
3644.31,1027.99
3645.76,1053.93
3647.22,1041.16
3648.67,1041.38
3650.12,1023.52
3651.57,1031.05
3653.02,1012.42
3654.47,1050.85
3655.93,1094.31
3657.38,1053.18
3658.83,1064.94
3660.28,1052
3661.73,1051.65
3663.19,1033.07
3664.64,1064.77
3666.09,1010.65
3667.54,1046.14
3668.99,1052.67
3670.44,1079.21
3671.9,1051.07
3673.35,1038.78
3674.8,1084.18
3676.25,1068.93
3677.7,1020.43
3679.16,1050.73
3680.61,1052.01
3682.06,1078.18
3683.51,1052.66
3684.96,1062.81
3686.41,1062.36
3687.87,1049.76
3689.32,1067.26
3690.77,1027.11
3692.22,1071.4
3693.67,1041.5
3695.12,1050
3696.58,1059.56
3698.03,1070.11
3699.48,1070.87
3700.93,1069.9
3702.38,1050.25
3703.84,1082.37
3705.29,1060.8
3706.74,1033.05
3708.19,1061.72
3709.64,1111.48
3711.09,1084.54
3712.55,1073.4
3714,1046.9
3715.45,1054.71
3716.9,1064.23
3718.35,1075.42
3719.8,1087.47
3721.26,1063.73
3722.71,1040.54
3724.16,1063.27
3725.61,1080.91
3727.06,1080.31
3728.52,1062.29
3729.97,1056.14
3731.42,1080.08
3732.87,1073
3734.32,1064.4
3735.77,1101.84
3737.23,1095.98
3738.68,1075.79
3740.13,1036.93
3741.58,1089.91
3743.03,1048.39
3744.49,1055.84
3745.94,1107.75
3747.39,1077.52
3748.84,1088.51
3750.29,1102.45
3751.74,1067.79
3753.2,1069.7
3754.65,1069.59
3756.1,1043.47
3757.55,1076.8
3759,1062.83
3760.46,1084.8
3761.91,1094.43
3763.36,1100.51
3764.81,1103.99
3766.26,1110.77
3767.71,1056.5
3769.17,1074.67
3770.62,1099.5
3772.07,1046.11
3773.52,1060.66
3774.97,1082.79
3776.42,1054.95
3777.88,1077.46
3779.33,1081.01
3780.78,1107.42
3782.23,1109.55
3783.68,1112.55
3785.14,1136.99
3786.59,1084.01
3788.04,1072.65
3789.49,1056.86
3790.94,1103.48
3792.39,1104.33
3793.85,1092.79
3795.3,1110.99
3796.75,1117.69
3798.2,1107.02
3799.65,1096.59
3801.1,1100.32
3802.56,1035.58
3804.01,1115.92
3805.46,1098.33
3806.91,1093.39
3808.36,1129.68
3809.82,1118.5
3811.27,1095.57
3812.72,1089.38
3814.17,1094.64
3815.62,1137.12
3817.07,1123.59
3818.53,1122.37
3819.98,1172.59
3821.43,1084.71
3822.88,1086.9
3824.33,1087.95
3825.79,1120.35
3827.24,1184.34
3828.69,1179.47
3830.14,1097.47
3831.59,1141.62
3833.04,1100.13
3834.5,1112.88
3835.95,1119.9
3837.4,1135.36
3838.85,1120.65
3840.3,1118.14
3841.76,1191.04
3843.21,1071.51
3844.66,1112.05
3846.11,1113.86
3847.56,1087.54
3849.01,1181.65
3850.47,1084.62
3851.92,1130.91
3853.37,1079.09
3854.82,1098.53
3856.27,1142.46
3857.72,1143.83
3859.18,1161.98
3860.63,1157.2
3862.08,1100.72
3863.53,1143.39
3864.98,1159.84
3866.44,1200.03
3867.89,1136.26
3869.34,1122.67
3870.79,1152.17
3872.24,1157.86
3873.69,1140.45
3875.15,1157.61
3876.6,1116.39
3878.05,1133.75
3879.5,1172.82
3880.95,1129.3
3882.41,1149.35
3883.86,1171.71
3885.31,1146.68
3886.76,1140.16
3888.21,1161.04
3889.66,1165.78
3891.12,1155.49
3892.57,1202.27
3894.02,1197.63
3895.47,1207.06
3896.92,1187.86
3898.37,1186.67
3899.83,1177.06
3901.28,1159.32
3902.73,1194.17
3904.18,1177.96
3905.63,1210.67
3907.09,1195.61
3908.54,1199.52
3909.99,1232.89
3911.44,1214.15
3912.89,1218.2
3914.34,1215.95
3915.8,1171.41
3917.25,1202.84
3918.7,1260.17
3920.15,1242.3
3921.6,1282.42
3923.06,1243.16
3924.51,1196.87
3925.96,1264.51
3927.41,1253.51
3928.86,1237.03
3930.31,1308.89
3931.77,1272.22
3933.22,1278.8
3934.67,1284.29
3936.12,1278.07
3937.57,1285.24
3939.02,1291.06
3940.48,1277.58
3941.93,1261.16
3943.38,1273.45
3944.83,1293.45
3946.28,1286.62
3947.74,1292.23
3949.19,1287.43
3950.64,1301
3952.09,1272.24
3953.54,1259.23
3954.99,1312.53
3956.45,1302.98
3957.9,1288.8
3959.35,1367.36
3960.8,1309.92
3962.25,1329.93
3963.71,1308.8
3965.16,1315.47
3966.61,1335.93
3968.06,1332.85
3969.51,1344.68
3970.96,1319.74
3972.42,1340.91
3973.87,1345.74
3975.32,1361.53
3976.77,1346.39
3978.22,1360.96
3979.68,1356.71
3981.13,1349.68
3982.58,1391.45
3984.03,1369.36
3985.48,1413.88
3986.93,1354.87
3988.39,1397.08
3989.84,1442.79
3991.29,1397.3
3992.74,1390.89
3994.19,1376.56
3995.64,1414.77
3997.1,1415.25
3998.55,1427.87
4000,1423.75
