0.5,33.2196
1.45033,33.2196
2.90065,33.2196
4.35098,33.2196
5.80131,33.2196
7.25163,27.4061
8.70196,61.8389
10.1523,42.586
11.6026,33.3371
13.0529,28.929
14.5033,25.5165
15.9536,22.3322
17.4039,20.3229
18.8542,18.8545
20.3046,19.4881
21.7549,19.4349
23.2052,17.1066
24.6555,14.8723
26.1059,15.225
27.5562,14.7743
29.0065,13.2973
30.4569,11.5118
31.9072,9.83472
33.3575,10.2565
34.8078,10.7914
36.2582,10.5909
37.7085,10.0315
39.1588,10.2979
40.6091,8.75006
42.0595,7.00938
43.5098,6.914
44.9601,9.04126
46.4104,10.3392
47.8608,13.1191
49.3111,17.2019
50.7614,21.1338
52.2117,33.9072
53.6621,62.2316
55.1124,105.688
56.5627,165.48
58.0131,248.444
59.4634,324.198
60.9137,395.31
62.364,458.035
63.8144,509.588
65.2647,557.274
66.715,583.368
68.1653,599.035
69.6157,610.718
71.066,624.125
72.5163,624.907
73.9666,624.953
75.417,623.218
76.8673,619.753
78.3176,616.386
79.7679,630.147
81.2183,648.046
82.6686,667.851
84.1189,687.348
85.5693,698.592
87.0196,706.126
88.4699,701.794
89.9202,693.215
91.3706,692.222
92.8209,666.453
94.2712,654.107
95.7215,642.241
97.1719,624.936
98.6222,600.953
100.073,589.446
101.523,583.699
102.973,573.34
104.423,553.271
105.874,528.818
107.324,531.219
108.774,522.97
110.225,510.184
111.675,503.014
113.125,500.758
114.576,494.975
116.026,486.515
117.476,477.583
118.927,470.098
120.377,449.307
121.827,444.458
123.278,445.61
124.728,442.761
126.178,424.127
127.629,411.007
129.079,402.379
130.529,394.625
131.98,387.496
133.43,385.914
134.88,380.371
136.331,377.856
137.781,374.158
139.231,368.526
140.682,371.806
142.132,357.761
143.582,346.078
145.033,341.385
146.483,343.015
147.933,335.77
149.384,329.108
150.834,316.44
152.284,305.315
153.735,305.883
155.185,314.266
156.635,296.15
158.086,295.726
159.536,301.286
160.986,279.588
162.437,280.949
163.887,282.578
165.337,287.044
166.788,288.787
168.238,276.867
169.688,280.616
171.139,279.977
172.589,276.685
174.039,273.331
175.489,273.673
176.94,266.385
178.39,262.409
179.84,264.489
181.291,267.949
182.741,257.496
184.191,249.005
185.642,245.516
187.092,241.245
188.542,236.175
189.993,241.298
191.443,242.325
192.893,241.388
194.344,239.98
195.794,239.462
197.244,241.169
198.695,243.62
200.145,239.48
201.595,236.021
203.046,236.88
204.496,233.691
205.946,243.519
207.397,243.703
208.847,241.144
210.297,240.653
211.748,232.561
213.198,233.539
214.648,230.895
216.099,226.555
217.549,222.793
218.999,217.888
220.45,213.706
221.9,208.236
223.35,208.151
224.801,216.476
226.251,223.554
227.701,221.03
229.152,219.731
230.602,217.881
232.052,213.191
233.503,205.642
234.953,217.667
236.403,215.631
237.854,211.834
239.304,213.963
240.754,206.293
242.204,203.734
243.655,207.503
245.105,204.635
246.555,195.492
248.006,211.282
249.456,206.233
250.906,206.409
252.357,206.122
253.807,202.358
255.257,200.409
256.708,206.952
258.158,207.006
259.608,206.751
261.059,208.376
262.509,207.342
263.959,196.157
265.41,195.407
266.86,201.867
268.31,207.959
269.761,202.628
271.211,203.777
272.661,197.791
274.112,196.385
275.562,201.418
277.012,206.656
278.463,196.887
279.913,197.756
281.363,194.855
282.814,189.529
284.264,189.943
285.714,188.332
287.165,187.201
288.615,187.666
290.065,186.77
291.516,181.801
292.966,179.384
294.416,184.795
295.867,184.076
297.317,181.253
298.767,180.522
300.218,173.272
301.668,178.66
303.118,180.241
304.569,182.313
306.019,184.614
307.469,173.085
308.919,177.759
310.37,176.293
311.82,174.447
313.27,172.46
314.721,163.18
316.171,158.91
317.621,155.984
319.072,161.18
320.522,165.891
321.972,155.547
323.423,159.936
324.873,161.534
326.323,161.191
327.774,159.46
329.224,158.24
330.674,166.099
332.125,163.026
333.575,160.458
335.025,160.555
336.476,162.061
337.926,159.631
339.376,160.965
340.827,159.707
342.277,156.371
343.727,156.8
345.178,170.413
346.628,154.898
348.078,151.953
349.529,153.015
350.979,153.381
352.429,152.043
353.88,158.764
355.33,153.45
356.78,152.807
358.231,155.562
359.681,156.285
361.131,149.907
362.582,151.504
364.032,154.418
365.482,156.772
366.933,156.058
368.383,149.281
369.833,150.559
371.284,144.363
372.734,145.433
374.184,149.804
375.635,147.364
377.085,149.687
378.535,151.397
379.986,152.645
381.436,153.346
382.886,153.579
384.336,153.811
385.787,151.9
387.237,152.257
388.687,150.716
390.138,147.454
391.588,146.337
393.038,147.617
394.489,148.703
395.939,149.252
397.389,151.604
398.84,155.069
400.29,146.917
401.74,147.053
403.191,146.591
404.641,152.302
406.091,158.01
407.542,144.897
408.992,150.259
410.442,149.729
411.893,147.172
413.343,147.152
414.793,151.757
416.244,153.273
417.694,146.284
419.144,144.872
420.595,141.854
422.045,139.447
423.495,152.087
424.946,155.707
426.396,144.99
427.846,139.61
429.297,141.666
430.747,146.154
432.197,150.249
433.648,142.821
435.098,139.577
436.548,144.582
437.999,150.597
439.449,142.579
440.899,149.012
442.35,144.277
443.8,144.409
445.25,145.051
446.701,141.46
448.151,147.555
449.601,145.476
451.051,141.545
452.502,142.513
453.952,147.038
455.402,148.062
456.853,147.475
458.303,139.974
459.753,143.848
461.204,148.244
462.654,144.711
464.104,141.558
465.555,147.071
467.005,145.117
468.455,143.804
469.906,142.76
471.356,139.773
472.806,144.474
474.257,142.767
475.707,143.035
477.157,142.931
478.608,145.231
480.058,155.905
481.508,146.623
482.959,146.762
484.409,143.034
485.859,142.381
487.31,147.591
488.76,143.835
490.21,146.658
491.661,140.291
493.111,140.693
494.561,145.815
496.012,146.626
497.462,143.448
498.912,142.483
500.363,137.184
501.813,137.451
503.263,143.458
504.714,146.52
506.164,141.925
507.614,137.221
509.065,135.697
510.515,136.689
511.965,138.751
513.416,140.422
514.866,137.825
516.316,137.211
517.766,142.928
519.217,143.623
520.667,135.234
522.117,136.429
523.568,140.092
525.018,142.342
526.468,143.117
527.919,141.536
529.369,137.501
530.819,133.953
532.27,136.36
533.72,136.351
535.17,139.134
536.621,143.905
538.071,144.929
539.521,133.696
540.972,139.751
542.422,143.942
543.872,143.341
545.323,140.271
546.773,139.301
548.223,140.841
549.674,139.895
551.124,141.984
552.574,144.106
554.025,145.114
555.475,145.92
556.925,140.938
558.376,143.266
559.826,142.211
561.276,139.881
562.727,139.403
564.177,141.777
565.627,142.846
567.078,141.302
568.528,136.02
569.978,139.21
571.429,145.937
572.879,134.01
574.329,136.268
575.78,136.657
577.23,136.776
578.68,138.408
580.131,140.35
581.581,138.949
583.031,142.517
584.482,137.787
585.932,139.681
587.382,141.674
588.832,140.545
590.283,142.084
591.733,143.512
593.183,148.807
594.634,144.774
596.084,141.18
597.534,141.904
598.985,139.906
600.435,140.741
601.885,145.493
603.336,145.051
604.786,140.774
606.236,138.153
607.687,141.452
609.137,134.891
610.587,139.022
612.038,136.909
613.488,138.704
614.938,143.603
616.389,141.258
617.839,140.064
619.289,132.111
620.74,140.352
622.19,146.069
623.64,142.793
625.091,138.323
626.541,144.426
627.991,141.94
629.442,140.44
630.892,141.887
632.342,144.694
633.793,145.573
635.243,141.865
636.693,145.272
638.144,142.052
639.594,146.951
641.044,147.711
642.495,138.232
643.945,144.416
645.395,149.326
646.846,146.281
648.296,147.881
649.746,149.709
651.197,148.784
652.647,150.184
654.097,151.143
655.547,150.398
656.998,146.586
658.448,143.993
659.898,142.292
661.349,139.523
662.799,150.202
664.249,151.274
665.7,149.582
667.15,151.459
668.6,153.134
670.051,149.05
671.501,144.991
672.951,153.16
674.402,154.087
675.852,150.423
677.302,152.699
678.753,158.643
680.203,147.976
681.653,154.477
683.104,158.002
684.554,156.697
686.004,153.385
687.455,152.201
688.905,155.253
690.355,156.336
691.806,158.225
693.256,154.223
694.706,153.793
696.157,154.947
697.607,153.56
699.057,155.033
700.508,157.324
701.958,163.912
703.408,162.603
704.859,158.563
706.309,157.535
707.759,158.477
709.21,151.964
710.66,150.07
712.11,154.762
713.561,153.543
715.011,152.623
716.461,158.787
717.912,153.907
719.362,151.731
720.812,154.044
722.263,154.621
723.713,158.8
725.163,163.768
726.613,158.756
728.064,155.977
729.514,158.895
730.964,158.1
732.415,156.96
733.865,156.77
735.315,156.438
736.766,154.709
738.216,164.642
739.666,161.636
741.117,156.252
742.567,156.819
744.017,157.456
745.468,149.639
746.918,158.491
748.368,157.482
749.819,153.255
751.269,156.326
752.719,157.726
754.17,153.226
755.62,154.866
757.07,162.756
758.521,160.809
759.971,153.315
761.421,154.099
762.872,158.619
764.322,157.113
765.772,154.891
767.223,159.752
768.673,164.292
770.123,157.717
771.574,154.595
773.024,158.881
774.474,160.765
775.925,153.107
777.375,157.73
778.825,160.34
780.276,159.582
781.726,158.912
783.176,158.2
784.627,154.89
786.077,160.614
787.527,160.457
788.978,157.579
790.428,163.365
791.878,166.197
793.328,162.407
794.779,167.198
796.229,160.371
797.68,163.842
799.13,162.84
800.58,161.809
802.03,162.801
803.481,166.443
804.931,172.462
806.381,163.918
807.832,167.954
809.282,163.999
810.732,161.451
812.183,162.465
813.633,163.933
815.083,165.051
816.534,166.395
817.984,166.629
819.434,169.018
820.885,167.209
822.335,166.54
823.785,170.221
825.236,165.605
826.686,162.913
828.136,169.661
829.587,166.119
831.037,167.811
832.487,175.856
833.938,178.419
835.388,167.315
836.838,173.807
838.289,178.396
839.739,171.793
841.189,171.742
842.64,176.913
844.09,178.96
845.54,179.6
846.991,174.45
848.441,174.421
849.891,175.727
851.342,176.068
852.792,179.072
854.242,182.266
855.693,173.794
857.143,162.378
858.593,175.824
860.044,180.482
861.494,180.444
862.944,177.729
864.394,176.144
865.845,180.341
867.295,180.218
868.745,179.13
870.196,181.453
871.646,176.406
873.096,172.905
874.547,172.69
875.997,169.435
877.447,173.596
878.898,170.889
880.348,179.742
881.798,181.629
883.249,179.715
884.699,179.072
886.149,179.882
887.6,177.879
889.05,168.629
890.5,176.216
891.951,178.04
893.401,177.057
894.851,178.035
896.302,180.128
897.752,177.953
899.202,176.967
900.653,184.215
902.103,181.735
903.553,184.112
905.004,184.499
906.454,185.126
907.904,195.565
909.355,198.139
910.805,196.409
912.255,192.728
913.706,182.795
915.156,182.137
916.606,186.155
918.057,186.993
919.507,193.07
920.957,178.217
922.408,184.097
923.858,194.191
925.308,194.538
926.759,190.617
928.209,192.924
929.659,201.403
931.109,197.338
932.56,197.338
934.01,198.868
935.46,201.509
936.911,193.934
938.361,190.557
939.811,198.391
941.262,195.587
942.712,204.386
944.162,199.902
945.613,200.174
947.063,191.261
948.513,188.861
949.964,195.721
951.414,197.78
952.864,191.121
954.315,195.712
955.765,200.77
957.215,200.167
958.666,198.712
960.116,197.241
961.566,195.911
963.017,194.841
964.467,189.438
965.917,196.156
967.368,196.137
968.818,197.016
970.268,193.269
971.719,189.872
973.169,192.001
974.619,195.589
976.07,199.021
977.52,195.04
978.97,203.917
980.421,201.873
981.871,201.603
983.321,200.775
984.772,196.954
986.222,203.357
987.672,194.005
989.123,201.439
990.573,198.507
992.023,199.239
993.474,199.717
994.924,198.456
996.374,198.952
997.825,201.795
999.275,197.55
1000.73,203.985
1002.18,202.631
1003.63,207.164
1005.08,211.094
1006.53,212.691
1007.98,213.59
1009.43,209.888
1010.88,206.512
1012.33,208.693
1013.78,220.791
1015.23,217.815
1016.68,215.016
1018.13,217.29
1019.58,218.244
1021.03,217.17
1022.48,214.214
1023.93,226.359
1025.38,225.204
1026.83,232.289
1028.28,229.762
1029.73,225.252
1031.18,227.541
1032.63,224.474
1034.08,225.514
1035.53,227.77
1036.98,242.319
1038.43,245.241
1039.88,242.008
1041.33,243.195
1042.78,244.913
1044.23,239.816
1045.69,249.202
1047.14,245.937
1048.59,243.841
1050.04,247.614
1051.49,246.694
1052.94,248.97
1054.39,255.877
1055.84,258.89
1057.29,257.233
1058.74,263.141
1060.19,265.724
1061.64,262.715
1063.09,269.675
1064.54,274.75
1065.99,276.016
1067.44,279.063
1068.89,284.444
1070.34,293.351
1071.79,289.323
1073.24,285.636
1074.69,280.129
1076.14,281.914
1077.59,287.959
1079.04,292.081
1080.49,292.909
1081.94,291.663
1083.39,281.453
1084.84,300.124
1086.29,298.471
1087.74,290.424
1089.2,293.162
1090.65,296.466
1092.1,291.144
1093.55,287.942
1095,286.999
1096.45,283.338
1097.9,282.151
1099.35,283.879
1100.8,282.963
1102.25,286.484
1103.7,280.44
1105.15,269.322
1106.6,292.337
1108.05,290.019
1109.5,277.489
1110.95,276.701
1112.4,275.448
1113.85,277.428
1115.3,279.777
1116.75,278.071
1118.2,273.896
1119.65,272.713
1121.1,265.788
1122.55,277.436
1124,268.193
1125.45,265.258
1126.9,269.964
1128.35,269.591
1129.8,267.518
1131.25,270.222
1132.7,260.408
1134.16,269.406
1135.61,273.337
1137.06,262.569
1138.51,262.371
1139.96,259.679
1141.41,258.847
1142.86,259.08
1144.31,255.851
1145.76,262.727
1147.21,259.782
1148.66,254.316
1150.11,262.379
1151.56,258.468
1153.01,251.15
1154.46,251.944
1155.91,255.484
1157.36,255.686
1158.81,262.942
1160.26,261.367
1161.71,246.598
1163.16,260.112
1164.61,257.314
1166.06,256.573
1167.51,259.933
1168.96,259.885
1170.41,256.112
1171.86,255.292
1173.31,253.091
1174.76,250.416
1176.21,255.835
1177.66,253.985
1179.12,253.711
1180.57,255.183
1182.02,257.271
1183.47,257.618
1184.92,257.115
1186.37,264.306
1187.82,257.41
1189.27,261.875
1190.72,260.377
1192.17,258.175
1193.62,257.41
1195.07,252.94
1196.52,253.173
1197.97,263.191
1199.42,266.013
1200.87,263.4
1202.32,265.575
1203.77,251.848
1205.22,260.285
1206.67,261.312
1208.12,255.057
1209.57,255.794
1211.02,260.45
1212.47,259.617
1213.92,265.797
1215.37,258.07
1216.82,266.014
1218.27,263.869
1219.72,270.045
1221.17,269.238
1222.63,264.02
1224.08,264.493
1225.53,266.793
1226.98,259.95
1228.43,256.547
1229.88,272.257
1231.33,260.964
1232.78,274.26
1234.23,269.587
1235.68,273.892
1237.13,277.436
1238.58,278.141
1240.03,279.16
1241.48,277.65
1242.93,287.233
1244.38,277.863
1245.83,269.508
1247.28,275.056
1248.73,288.946
1250.18,287.537
1251.63,280.356
1253.08,281.915
1254.53,287.046
1255.98,286.637
1257.43,294.768
1258.88,299.427
1260.33,291.702
1261.78,297.958
1263.23,301.035
1264.68,297.288
1266.13,299.87
1267.59,308.375
1269.04,315.895
1270.49,317.993
1271.94,313.909
1273.39,327.936
1274.84,323.933
1276.29,323.884
1277.74,332.792
1279.19,332.674
1280.64,340.475
1282.09,346.68
1283.54,352.572
1284.99,362.714
1286.44,364.235
1287.89,369.134
1289.34,358.237
1290.79,381.752
1292.24,390.645
1293.69,392.937
1295.14,403.629
1296.59,417.351
1298.04,423.737
1299.49,430.628
1300.94,447.673
1302.39,459.029
1303.84,460.399
1305.29,468.552
1306.74,484.555
1308.19,492.924
1309.64,510.21
1311.09,532.678
1312.55,552.342
1314,566.929
1315.45,584.618
1316.9,606.341
1318.35,616.865
1319.8,642.983
1321.25,651.801
1322.7,658.365
1324.15,690.538
1325.6,690.019
1327.05,686.886
1328.5,686.589
1329.95,691.035
1331.4,701.799
1332.85,707.638
1334.3,702.667
1335.75,703.489
1337.2,679.848
1338.65,674.375
1340.1,653.502
1341.55,651.27
1343,636.847
1344.45,614.069
1345.9,603.904
1347.35,598.721
1348.8,577.295
1350.25,548.851
1351.7,529.19
1353.15,524.853
1354.6,529.018
1356.06,512.927
1357.51,479.802
1358.96,462.182
1360.41,460.449
1361.86,456.45
1363.31,449.234
1364.76,445.338
1366.21,434.983
1367.66,412.833
1369.11,408.366
1370.56,415.023
1372.01,404.585
1373.46,403.81
1374.91,395.666
1376.36,399.071
1377.81,394.674
1379.26,384.197
1380.71,378.737
1382.16,379.092
1383.61,382.826
1385.06,373.291
1386.51,360.184
1387.96,373.249
1389.41,374.468
1390.86,381.678
1392.31,380.211
1393.76,368.397
1395.21,372.37
1396.66,370.924
1398.11,366.965
1399.56,381.058
1401.02,383.519
1402.47,381.422
1403.92,378.986
1405.37,384.36
1406.82,387.58
1408.27,387.396
1409.72,379.099
1411.17,390.11
1412.62,393.627
1414.07,381.604
1415.52,379.753
1416.97,390.738
1418.42,393.093
1419.87,402.096
1421.32,402.371
1422.77,405.516
1424.22,394.219
1425.67,400.095
1427.12,419.228
1428.57,409.197
1430.02,408.585
1431.47,415.262
1432.92,416.727
1434.37,419.245
1435.82,425.877
1437.27,433.069
1438.72,449.56
1440.17,438.766
1441.62,434.027
1443.07,442.528
1444.53,434.781
1445.98,447.294
1447.43,459.725
1448.88,464.805
1450.33,459.479
1451.78,458.246
1453.23,471.882
1454.68,485.14
1456.13,485.239
1457.58,489.165
1459.03,495.478
1460.48,505.238
1461.93,493.859
1463.38,517.922
1464.83,526.742
1466.28,526.582
1467.73,532.986
1469.18,541.699
1470.63,555.847
1472.08,573.91
1473.53,584.315
1474.98,588.248
1476.43,594.566
1477.88,608.196
1479.33,600.628
1480.78,627.236
1482.23,639.895
1483.68,650.072
1485.13,675.305
1486.58,683.861
1488.03,689.477
1489.49,713.266
1490.94,733.334
1492.39,740.108
1493.84,753.304
1495.29,771.625
1496.74,806.322
1498.19,821.116
1499.64,852.535
1501.09,848.957
1502.54,904.628
1503.99,942.389
1505.44,970.448
1506.89,1011.3
1508.34,1052.12
1509.79,1092.22
1511.24,1138.47
1512.69,1192.98
1514.14,1255.68
1515.59,1322.44
1517.04,1389.38
1518.49,1461.77
1519.94,1542.27
1521.39,1656.91
1522.84,1781.87
1524.29,1886.86
1525.74,2002.66
1527.19,2182.29
1528.64,2349.14
1530.09,2509.08
1531.54,2702.38
1532.99,2923.41
1534.45,3169.47
1535.9,3436.03
1537.35,3687.07
1538.8,3982.41
1540.25,4245.17
1541.7,4587.03
1543.15,4932.87
1544.6,5339.11
1546.05,5628.83
1547.5,5943.61
1548.95,6280.46
1550.4,6653.51
1551.85,6959.55
1553.3,6970.62
1554.75,6982.04
1556.2,7002.01
1557.65,7019.13
1559.1,7031.69
1560.55,7076.21
1562,7054.52
1563.45,7048.99
1564.9,7045.79
1566.35,7032.6
1567.8,6978.15
1569.25,6632.79
1570.7,6247.25
1572.15,5856.45
1573.6,5472.96
1575.05,5098.72
1576.5,4714.7
1577.96,4337.65
1579.41,4004.26
1580.86,3705.99
1582.31,3409.9
1583.76,3120.87
1585.21,2913.26
1586.66,2690.84
1588.11,2519.77
1589.56,2340.97
1591.01,2189.18
1592.46,2036.95
1593.91,1926.42
1595.36,1801.26
1596.81,1705.92
1598.26,1620.98
1599.71,1528.85
1601.16,1452.15
1602.61,1381.09
1604.06,1308.25
1605.51,1244.86
1606.96,1188.61
1608.41,1128.27
1609.86,1095.58
1611.31,1045.91
1612.76,993.643
1614.21,971.064
1615.66,931.459
1617.11,893.076
1618.56,861.508
1620.01,837.422
1621.46,817.657
1622.92,789.165
1624.37,759.965
1625.82,733.271
1627.27,721.319
1628.72,709.288
1630.17,680.271
1631.62,664.729
1633.07,665.865
1634.52,645.021
1635.97,645.175
1637.42,634.205
1638.87,607.842
1640.32,601.107
1641.77,597.311
1643.22,588.117
1644.67,575.897
1646.12,564.937
1647.57,560.99
1649.02,551.408
1650.47,541.277
1651.92,536.242
1653.37,536.374
1654.82,531.28
1656.27,534.897
1657.72,520.448
1659.17,517.688
1660.62,502.363
1662.07,495.621
1663.52,486.706
1664.97,491.633
1666.42,477.873
1667.88,478.458
1669.33,466.364
1670.78,458.732
1672.23,468.553
1673.68,468.947
1675.13,464.798
1676.58,458.076
1678.03,457.759
1679.48,461.396
1680.93,453.169
1682.38,441.618
1683.83,448.441
1685.28,436.102
1686.73,429.148
1688.18,421.314
1689.63,425.03
1691.08,435.516
1692.53,433.297
1693.98,421.416
1695.43,423.302
1696.88,429.217
1698.33,426.886
1699.78,423.9
1701.23,422.071
1702.68,425.083
1704.13,418.025
1705.58,423.377
1707.03,416.961
1708.48,424.765
1709.93,403.663
1711.39,407.795
1712.84,423.546
1714.29,412.244
1715.74,406.217
1717.19,411.309
1718.64,417.566
1720.09,412.238
1721.54,416.173
1722.99,416.521
1724.44,407.793
1725.89,411.67
1727.34,413.716
1728.79,404.363
1730.24,408.632
1731.69,407.801
1733.14,405.92
1734.59,397.922
1736.04,414.235
1737.49,401.989
1738.94,391.428
1740.39,387.898
1741.84,383.833
1743.29,383.272
1744.74,390.736
1746.19,390.992
1747.64,392.773
1749.09,382.706
1750.54,389.157
1751.99,383.53
1753.44,369.939
1754.89,374.085
1756.35,378.737
1757.8,371.332
1759.25,373.915
1760.7,377.469
1762.15,364.166
1763.6,369.473
1765.05,367.49
1766.5,370.083
1767.95,362.448
1769.4,360.202
1770.85,357.316
1772.3,367.016
1773.75,352.751
1775.2,362.871
1776.65,351.704
1778.1,350.452
1779.55,353.96
1781,349.764
1782.45,354.065
1783.9,355.862
1785.35,354.876
1786.8,354.466
1788.25,359.837
1789.7,354.981
1791.15,349.361
1792.6,352.495
1794.05,344.051
1795.5,345.113
1796.95,349.303
1798.4,357.792
1799.85,359.835
1801.31,349.739
1802.76,340.386
1804.21,342.991
1805.66,349.698
1807.11,349.287
1808.56,337.081
1810.01,340.917
1811.46,332.7
1812.91,330.947
1814.36,343.957
1815.81,344.802
1817.26,344.26
1818.71,335.833
1820.16,334.556
1821.61,339.085
1823.06,338.308
1824.51,341.622
1825.96,344.379
1827.41,344.261
1828.86,345.831
1830.31,344.505
1831.76,349.13
1833.21,350.329
1834.66,341.443
1836.11,350.436
1837.56,343.463
1839.01,344.133
1840.46,350.086
1841.91,348.595
1843.36,359.954
1844.82,353.512
1846.27,349.383
1847.72,347.263
1849.17,357.228
1850.62,351.293
1852.07,362.836
1853.52,350.923
1854.97,353.029
1856.42,356.802
1857.87,359.963
1859.32,361.361
1860.77,358.096
1862.22,349.407
1863.67,351.347
1865.12,354.669
1866.57,358.032
1868.02,357.62
1869.47,350.307
1870.92,352.313
1872.37,357.207
1873.82,358.339
1875.27,361.549
1876.72,352.36
1878.17,346.568
1879.62,347.719
1881.07,351.174
1882.52,353.591
1883.97,346.946
1885.42,350.326
1886.87,340.923
1888.32,347.819
1889.78,353.779
1891.23,331.612
1892.68,336.178
1894.13,336.173
1895.58,338.953
1897.03,337.319
1898.48,340.7
1899.93,333.371
1901.38,329.444
1902.83,330.265
1904.28,331.76
1905.73,328.292
1907.18,335.059
1908.63,333.174
1910.08,339.513
1911.53,334.526
1912.98,325.635
1914.43,330.565
1915.88,331.836
1917.33,329.048
1918.78,329.434
1920.23,329.887
1921.68,329.214
1923.13,325.182
1924.58,326.816
1926.03,329.052
1927.48,326.885
1928.93,332.23
1930.38,325.865
1931.83,334.884
1933.29,321.508
1934.74,326.977
1936.19,326.495
1937.64,321.607
1939.09,324.355
1940.54,323.119
1941.99,331.972
1943.44,324.266
1944.89,327.175
1946.34,328.43
1947.79,329.961
1949.24,320.191
1950.69,331.689
1952.14,334.264
1953.59,339.688
1955.04,343.235
1956.49,330.524
1957.94,333.2
1959.39,330.831
1960.84,322.848
1962.29,337.291
1963.74,331.955
1965.19,337.965
1966.64,339.792
1968.09,330.349
1969.54,329.392
1970.99,328.205
1972.44,330.26
1973.89,334.404
1975.34,339.716
1976.79,346.383
1978.25,347.16
1979.7,343.021
1981.15,341.844
1982.6,344.887
1984.05,345.902
1985.5,339.117
1986.95,337.45
1988.4,342.677
1989.85,338.983
1991.3,342.394
1992.75,343.023
1994.2,336.085
1995.65,344.634
1997.1,333.248
1998.55,336.127
2000,333.832
2001.45,341.144
2002.9,342.604
2004.35,350.564
2005.8,344.912
2007.25,337.47
2008.7,340.248
2010.15,337.151
2011.6,331.994
2013.05,328.519
2014.5,329.888
2015.95,336.352
2017.4,332.672
2018.85,329.664
2020.3,338.449
2021.75,343.484
2023.21,344.582
2024.66,340.151
2026.11,323.82
2027.56,347.643
2029.01,327.471
2030.46,331.978
2031.91,323.455
2033.36,335.784
2034.81,320.008
2036.26,344.909
2037.71,326.469
2039.16,332.091
2040.61,330.241
2042.06,319.172
2043.51,331.481
2044.96,331.179
2046.41,317.429
2047.86,317.611
2049.31,333.003
2050.76,315.404
2052.21,317.306
2053.66,312.043
2055.11,316.969
2056.56,323.72
2058.01,323.643
2059.46,321.556
2060.91,313.278
2062.36,311.659
2063.81,313.903
2065.26,314.092
2066.72,318.354
2068.17,316.962
2069.62,313.024
2071.07,318.761
2072.52,311.203
2073.97,311.852
2075.42,313.845
2076.87,314.592
2078.32,322.068
2079.77,319.189
2081.22,314.508
2082.67,308.375
2084.12,310.564
2085.57,311.619
2087.02,306.717
2088.47,311.283
2089.92,311.797
2091.37,312.157
2092.82,310.204
2094.27,313.355
2095.72,315.052
2097.17,312.048
2098.62,313.6
2100.07,307.174
2101.52,314.907
2102.97,315.983
2104.42,311.717
2105.87,315.493
2107.32,317.463
2108.77,318.347
2110.22,321.127
2111.68,323.166
2113.13,322.148
2114.58,316.555
2116.03,313.85
2117.48,313.96
2118.93,317.585
2120.38,321.619
2121.83,319.576
2123.28,321.44
2124.73,324.736
2126.18,325.502
2127.63,323.716
2129.08,322.438
2130.53,325.767
2131.98,327.099
2133.43,317.963
2134.88,319.556
2136.33,326.931
2137.78,322.43
2139.23,321.207
2140.68,322.845
2142.13,324.156
2143.58,332.73
2145.03,329.385
2146.48,327.609
2147.93,327.643
2149.38,327.375
2150.83,333.451
2152.28,331.252
2153.73,331.747
2155.18,335.009
2156.64,334.928
2158.09,331.204
2159.54,338.848
2160.99,337.909
2162.44,335.986
2163.89,343.492
2165.34,340.596
2166.79,338.894
2168.24,337.243
2169.69,338.368
2171.14,341.096
2172.59,337.482
2174.04,340.232
2175.49,349.324
2176.94,345.092
2178.39,348.128
2179.84,349.845
2181.29,346.474
2182.74,342.802
2184.19,346.636
2185.64,342.107
2187.09,342.152
2188.54,341.415
2189.99,343.154
2191.44,343.228
2192.89,344.331
2194.34,348.267
2195.79,354.626
2197.24,347.151
2198.69,350.372
2200.15,347.779
2201.6,348.631
2203.05,342.296
2204.5,343.696
2205.95,349.987
2207.4,352.442
2208.85,348.558
2210.3,350.713
2211.75,356.962
2213.2,365.059
2214.65,351.27
2216.1,359.963
2217.55,358.733
2219,350.972
2220.45,359.164
2221.9,357.943
2223.35,360.181
2224.8,365.308
2226.25,372.125
2227.7,358.548
2229.15,364.587
2230.6,370.829
2232.05,360.501
2233.5,356.68
2234.95,351.983
2236.4,368.708
2237.85,373.487
2239.3,363.291
2240.75,366.434
2242.2,369.474
2243.65,359.246
2245.11,370.058
2246.56,375.803
2248.01,371.665
2249.46,366.721
2250.91,376.049
2252.36,376.152
2253.81,387.026
2255.26,376.913
2256.71,370.208
2258.16,376.627
2259.61,385.707
2261.06,379.337
2262.51,369.491
2263.96,377.516
2265.41,387.301
2266.86,381.343
2268.31,388.494
2269.76,384.667
2271.21,379.295
2272.66,389.185
2274.11,387.402
2275.56,381.206
2277.01,385.153
2278.46,386.084
2279.91,386.084
2281.36,384.126
2282.81,393.061
2284.26,396.324
2285.71,392.199
2287.16,386.892
2288.61,395.658
2290.07,400.146
2291.52,406.895
2292.97,403.731
2294.42,405.428
2295.87,404.983
2297.32,398.104
2298.77,399.926
2300.22,401.624
2301.67,393.027
2303.12,409.584
2304.57,411.277
2306.02,410.55
2307.47,400.131
2308.92,404.866
2310.37,419.127
2311.82,416.378
2313.27,411.258
2314.72,404.501
2316.17,412.253
2317.62,413.009
2319.07,436.504
2320.52,427.421
2321.97,422.652
2323.42,436.664
2324.87,427.44
2326.32,431.966
2327.77,436.351
2329.22,433.33
2330.67,433.075
2332.12,442.865
2333.57,443.342
2335.03,450.095
2336.48,432.588
2337.93,440.832
2339.38,449.237
2340.83,448.597
2342.28,455.669
2343.73,457.008
2345.18,454.517
2346.63,463.213
2348.08,456.228
2349.53,456.505
2350.98,473.401
2352.43,474.297
2353.88,481.104
2355.33,479.7
2356.78,481.854
2358.23,492.686
2359.68,491.845
2361.13,486.3
2362.58,488.059
2364.03,504.161
2365.48,505.933
2366.93,530.415
2368.38,504.093
2369.83,516.179
2371.28,514.292
2372.73,533.13
2374.18,536.26
2375.63,542.94
2377.08,552.041
2378.54,554.71
2379.99,561.778
2381.44,570.632
2382.89,575.069
2384.34,578.682
2385.79,579.196
2387.24,590.616
2388.69,595.702
2390.14,607.602
2391.59,622.556
2393.04,621.049
2394.49,611.98
2395.94,619.622
2397.39,641.688
2398.84,663.953
2400.29,651.721
2401.74,666.995
2403.19,668.091
2404.64,688.027
2406.09,696.994
2407.54,683.678
2408.99,689.328
2410.44,695.852
2411.89,688.546
2413.34,708.785
2414.79,719.681
2416.24,709.179
2417.69,702.342
2419.14,710.794
2420.59,708.791
2422.04,689.774
2423.5,702.941
2424.95,710.035
2426.4,698.62
2427.85,691.029
2429.3,695.133
2430.75,701.662
2432.2,701.063
2433.65,692.604
2435.1,677.445
2436.55,692.519
2438,680.893
2439.45,680.944
2440.9,687.005
2442.35,677.508
2443.8,678.867
2445.25,668.37
2446.7,679.043
2448.15,670.043
2449.6,664.706
2451.05,655.585
2452.5,659.763
2453.95,646.63
2455.4,662.092
2456.85,648.519
2458.3,648.862
2459.75,655.038
2461.2,657.829
2462.65,651.025
2464.1,650.86
2465.55,645.723
2467.01,644.987
2468.46,648.434
2469.91,648.537
2471.36,645.198
2472.81,648.103
2474.26,651.31
2475.71,644.484
2477.16,656.031
2478.61,659.37
2480.06,667.942
2481.51,664.689
2482.96,665.26
2484.41,651.87
2485.86,667.874
2487.31,675.607
2488.76,672.708
2490.21,669.489
2491.66,667.554
2493.11,666.669
2494.56,673.456
2496.01,662.183
2497.46,660.939
2498.91,667.874
2500.36,669.643
2501.81,665.602
2503.26,684.808
2504.71,686.966
2506.16,694.654
2507.61,708.54
2509.06,682.799
2510.51,716.04
2511.97,703.728
2513.42,711.148
2514.87,721.177
2516.32,730.714
2517.77,729.869
2519.22,734.732
2520.67,748.099
2522.12,754.491
2523.57,766.026
2525.02,764.143
2526.47,772.607
2527.92,776.597
2529.37,764.297
2530.82,783.115
2532.27,799.433
2533.72,794.935
2535.17,800.916
2536.62,814.421
2538.07,835.521
2539.52,823.775
2540.97,847.992
2542.42,850.806
2543.87,888.693
2545.32,895.165
2546.77,891.347
2548.22,911.495
2549.67,923.315
2551.12,932.259
2552.57,933.839
2554.02,955.066
2555.48,975.259
2556.93,1000.33
2558.38,1012.45
2559.83,1023.7
2561.28,1040.19
2562.73,1078.49
2564.18,1090.19
2565.63,1110.68
2567.08,1137.96
2568.53,1152.7
2569.98,1185.52
2571.43,1229.29
2572.88,1252.55
2574.33,1251.73
2575.78,1291.05
2577.23,1325.08
2578.68,1352.1
2580.13,1390.37
2581.58,1421.51
2583.03,1447.1
2584.48,1488.92
2585.93,1524.93
2587.38,1555.48
2588.83,1616.99
2590.28,1678.13
2591.73,1741.35
2593.18,1762.64
2594.63,1809.25
2596.08,1874.15
2597.53,1924.1
2598.98,2008.72
2600.44,2065.86
2601.89,2141.44
2603.34,2218.13
2604.79,2282.7
2606.24,2369.42
2607.69,2429.02
2609.14,2529.05
2610.59,2580.2
2612.04,2686.91
2613.49,2758.36
2614.94,2868.45
2616.39,2955.62
2617.84,3022.08
2619.29,3116.4
2620.74,3205.11
2622.19,3294.74
2623.64,3408.59
2625.09,3464.14
2626.54,3551.75
2627.99,3640.44
2629.44,3745.48
2630.89,3843.16
2632.34,3933.83
2633.79,4001.06
2635.24,4120.02
2636.69,4146.48
2638.14,4211.21
2639.59,4296.61
2641.04,4322.23
2642.49,4376.77
2643.94,4408.41
2645.4,4421.15
2646.85,4439.81
2648.3,4449.4
2649.75,4418.94
2651.2,4425.18
2652.65,4370.37
2654.1,4391.62
2655.55,4328.71
2657,4290.66
2658.45,4217.56
2659.9,4143.87
2661.35,4067.35
2662.8,4000.55
2664.25,3907.61
2665.7,3851.76
2667.15,3783.79
2668.6,3665.82
2670.05,3590.63
2671.5,3507.05
2672.95,3358.54
2674.4,3299.26
2675.85,3197.7
2677.3,3081.7
2678.75,2997.38
2680.2,2931.65
2681.65,2795.09
2683.1,2717.82
2684.55,2626.32
2686,2557.8
2687.45,2463.76
2688.91,2363.26
2690.36,2279.14
2691.81,2210.14
2693.26,2137.38
2694.71,2028.67
2696.16,1966.6
2697.61,1940.76
2699.06,1841.94
2700.51,1794.92
2701.96,1764.52
2703.41,1699.68
2704.86,1621.46
2706.31,1576.87
2707.76,1510.96
2709.21,1489.69
2710.66,1442.26
2712.11,1389.64
2713.56,1354.51
2715.01,1331.5
2716.46,1289.12
2717.91,1258.55
2719.36,1219.07
2720.81,1200.32
2722.26,1176.88
2723.71,1137.18
2725.16,1101.6
2726.61,1080.36
2728.06,1065.81
2729.51,1050.44
2730.96,1023.32
2732.41,988.118
2733.87,988.603
2735.32,954.929
2736.77,944.986
2738.22,927.727
2739.67,915.895
2741.12,903.43
2742.57,874.63
2744.02,866.73
2745.47,865.623
2746.92,839.208
2748.37,839.631
2749.82,817.731
2751.27,820.003
2752.72,797.412
2754.17,800.169
2755.62,780.055
2757.07,759.925
2758.52,754.611
2759.97,751.432
2761.42,732.962
2762.87,727.557
2764.32,730.674
2765.77,718.888
2767.22,693.113
2768.67,719.63
2770.12,701.862
2771.57,697.131
2773.02,687.234
2774.47,688.592
2775.92,684.928
2777.38,673.593
2778.83,672.976
2780.28,663.901
2781.73,658.434
2783.18,648.696
2784.63,649.564
2786.08,643.856
2787.53,623.366
2788.98,633.748
2790.43,640.552
2791.88,631.323
2793.33,622.681
2794.78,612.95
2796.23,611.266
2797.68,617.379
2799.13,609.097
2800.58,609.765
2802.03,601.877
2803.48,597.317
2804.93,603.35
2806.38,593.681
2807.83,581.941
2809.28,586.381
2810.73,579.532
2812.18,584.715
2813.63,585.114
2815.08,589.863
2816.53,574.224
2817.98,578.802
2819.43,585.109
2820.88,574.498
2822.33,565.71
2823.79,570.735
2825.24,563.8
2826.69,558.757
2828.14,555.01
2829.59,556.21
2831.04,564.422
2832.49,568.528
2833.94,542.804
2835.39,541.362
2836.84,543.034
2838.29,538.281
2839.74,538.283
2841.19,541.616
2842.64,551.158
2844.09,549.131
2845.54,542.901
2846.99,539.765
2848.44,538.277
2849.89,530.237
2851.34,538.999
2852.79,533.152
2854.24,527.231
2855.69,534.75
2857.14,547.771
2858.59,533.401
2860.04,526.198
2861.49,533.731
2862.94,523.166
2864.39,524.462
2865.84,535.927
2867.3,533.208
2868.75,532.157
2870.2,532.038
2871.65,522.489
2873.1,526.129
2874.55,536.991
2876,531.649
2877.45,533.289
2878.9,534.53
2880.35,531.431
2881.8,519.515
2883.25,523.892
2884.7,524.799
2886.15,524.702
2887.6,523.261
2889.05,518.368
2890.5,526.884
2891.95,531.854
2893.4,526.988
2894.85,530.173
2896.3,529.929
2897.75,522.392
2899.2,521.225
2900.65,520.47
2902.1,517.156
2903.55,514.968
2905,515.553
2906.45,517.1
2907.9,518.557
2909.35,514.078
2910.8,504.897
2912.26,504.49
2913.71,509.566
2915.16,492.024
2916.61,512.458
2918.06,505.136
2919.51,493.736
2920.96,504.804
2922.41,502.462
2923.86,501.204
2925.31,496.795
2926.76,489.075
2928.21,485.602
2929.66,484.405
2931.11,481.654
2932.56,476.343
2934.01,487.072
2935.46,477.097
2936.91,477.094
2938.36,475.134
2939.81,469.56
2941.26,464.399
2942.71,468.777
2944.16,470.889
2945.61,469.238
2947.06,468.488
2948.51,470.195
2949.96,459.88
2951.41,458.563
2952.86,466.027
2954.31,458.066
2955.77,455.004
2957.22,460.855
2958.67,455.609
2960.12,448.188
2961.57,469.185
2963.02,454.504
2964.47,452.407
2965.92,450.65
2967.37,453.366
2968.82,452.127
2970.27,456.259
2971.72,445.115
2973.17,446.379
2974.62,445.864
2976.07,440.808
2977.52,441.229
2978.97,444.906
2980.42,440.481
2981.87,447.601
2983.32,451.433
2984.77,446.261
2986.22,438.925
2987.67,443.912
2989.12,447.566
2990.57,449.856
2992.02,445.357
2993.47,438.034
2994.92,441.961
2996.37,449.579
2997.82,447.563
2999.27,451.794
3000.73,435.979
3002.18,445.78
3003.63,437.249
3005.08,443.001
3006.53,440.792
3007.98,430.152
3009.43,428.021
3010.88,433.811
3012.33,441.324
3013.78,450.717
3015.23,430.918
3016.68,438.643
3018.13,432.255
3019.58,438.345
3021.03,439.293
3022.48,431.683
3023.93,440.926
3025.38,449.41
3026.83,436.286
3028.28,442.166
3029.73,453.683
3031.18,454.856
3032.63,447.224
3034.08,455.298
3035.53,457.701
3036.98,430.773
3038.43,449.973
3039.88,452.411
3041.33,448.999
3042.78,448.158
3044.23,441.721
3045.69,441.612
3047.14,438.82
3048.59,448.196
3050.04,454.3
3051.49,441.571
3052.94,440.317
3054.39,449.418
3055.84,457.052
3057.29,454.629
3058.74,447.54
3060.19,458.71
3061.64,464.273
3063.09,467.752
3064.54,470.497
3065.99,468.397
3067.44,456.565
3068.89,466.436
3070.34,475.182
3071.79,488.955
3073.24,468.139
3074.69,478.82
3076.14,477.985
3077.59,481.159
3079.04,495.491
3080.49,494.737
3081.94,505.052
3083.39,501.043
3084.84,513.301
3086.29,505.704
3087.74,510.561
3089.2,513.106
3090.65,521.744
3092.1,524.889
3093.55,527.198
3095,525.381
3096.45,528.964
3097.9,537.289
3099.35,549.883
3100.8,555.155
3102.25,549.611
3103.7,566.444
3105.15,569.894
3106.6,563.64
3108.05,577.883
3109.5,566.689
3110.95,577.723
3112.4,580.72
3113.85,597.916
3115.3,595.257
3116.75,601.986
3118.2,597.466
3119.65,607.071
3121.1,611.398
3122.55,612.824
3124,616.072
3125.45,613.601
3126.9,619.953
3128.35,629.633
3129.8,620.992
3131.25,622.071
3132.7,631.677
3134.16,626.951
3135.61,626.745
3137.06,637.846
3138.51,622.036
3139.96,632.15
3141.41,635.951
3142.86,628.583
3144.31,640.352
3145.76,640.552
3147.21,642.635
3148.66,633.292
3150.11,632.487
3151.56,622.978
3153.01,629.142
3154.46,640.369
3155.91,644.416
3157.36,651.128
3158.81,658.405
3160.26,638.805
3161.71,650.979
3163.16,657.823
3164.61,656.179
3166.06,649.598
3167.51,668.838
3168.96,663.679
3170.41,663.154
3171.86,673.267
3173.31,678.678
3174.76,682.348
3176.21,670.705
3177.67,681.629
3179.12,677.171
3180.57,686.897
3182.02,703.009
3183.47,693.809
3184.92,679.266
3186.37,689.574
3187.82,686.532
3189.27,675.288
3190.72,690.487
3192.17,677.822
3193.62,673.359
3195.07,669.997
3196.52,668.764
3197.97,652.891
3199.42,626.346
3200.87,639.29
3202.32,634.062
3203.77,624.331
3205.22,623.572
3206.67,614.263
3208.12,607.328
3209.57,594.532
3211.02,579.932
3212.47,593.008
3213.92,572.906
3215.37,556.905
3216.82,557.696
3218.27,546.379
3219.72,535.801
3221.17,537.005
3222.63,532.936
3224.08,531.76
3225.53,522.585
3226.98,518.657
3228.43,493.901
3229.88,509.54
3231.33,496.992
3232.78,484.064
3234.23,473.763
3235.68,478.054
3237.13,475.708
3238.58,474.084
3240.03,459.885
3241.48,453.561
3242.93,456.941
3244.38,462.723
3245.83,459.875
3247.28,461.026
3248.73,449.814
3250.18,454.151
3251.63,452.271
3253.08,451.769
3254.53,445.747
3255.98,429.446
3257.43,438.699
3258.88,438.49
3260.33,434.093
3261.78,433.694
3263.23,431.746
3264.68,441.804
3266.13,435.567
3267.59,425.433
3269.04,431.441
3270.49,439.096
3271.94,435.61
3273.39,423.692
3274.84,431.472
3276.29,427.235
3277.74,424.266
3279.19,435.007
3280.64,422.835
3282.09,428.558
3283.54,423.998
3284.99,429.818
3286.44,426.953
3287.89,423.02
3289.34,432.798
3290.79,432.858
3292.24,418.113
3293.69,436.068
3295.14,435.452
3296.59,428.158
3298.04,424.585
3299.49,423.518
3300.94,419.97
3302.39,426.119
3303.84,416.322
3305.29,422.638
3306.74,433.452
3308.19,425.374
3309.64,417.682
3311.09,421.36
3312.55,429.632
3314,426.823
3315.45,412.526
3316.9,419.282
3318.35,429.781
3319.8,414.307
3321.25,428.529
3322.7,420.231
3324.15,423.114
3325.6,428.482
3327.05,429.83
3328.5,418.535
3329.95,427.66
3331.4,432.47
3332.85,418.607
3334.3,414.96
3335.75,419.579
3337.2,422.683
3338.65,420.911
3340.1,422.338
3341.55,426.692
3343,426.116
3344.45,420.267
3345.9,425.04
3347.35,418.382
3348.8,411.692
3350.25,426.24
3351.7,421.533
3353.15,420.124
3354.6,426.011
3356.06,419.754
3357.51,423.475
3358.96,423.363
3360.41,419.961
3361.86,421.076
3363.31,417.824
3364.76,418.359
3366.21,422.246
3367.66,424.425
3369.11,424.925
3370.56,434.325
3372.01,430.993
3373.46,444.867
3374.91,426.42
3376.36,425.121
3377.81,421.601
3379.26,426.345
3380.71,416.421
3382.16,427.543
3383.61,424.004
3385.06,434.279
3386.51,427.191
3387.96,420.499
3389.41,410.666
3390.86,423.409
3392.31,426.86
3393.76,420.064
3395.21,426.324
3396.66,426.163
3398.11,437.046
3399.56,431.841
3401.02,432.621
3402.47,429.315
3403.92,420.914
3405.37,413.369
3406.82,431.214
3408.27,417.856
3409.72,420.98
3411.17,426.833
3412.62,428.514
3414.07,427.055
3415.52,429.929
3416.97,420.473
3418.42,430.629
3419.87,421.321
3421.32,423.817
3422.77,427.662
3424.22,433.415
3425.67,436.492
3427.12,438.673
3428.57,435.912
3430.02,426.869
3431.47,432.307
3432.92,436.479
3434.37,422.572
3435.82,430.116
3437.27,431.477
3438.72,430.288
3440.17,432.355
3441.62,424.558
3443.07,425.771
3444.52,430.595
3445.98,410.269
3447.43,434.411
3448.88,433.343
3450.33,430.06
3451.78,428.556
3453.23,432.468
3454.68,432.64
3456.13,430.665
3457.58,430.834
3459.03,426.671
3460.48,423.721
3461.93,441.234
3463.38,433.681
3464.83,437.915
3466.28,442.562
3467.73,442.888
3469.18,437.022
3470.63,430.337
3472.08,436.722
3473.53,444.12
3474.98,439.893
3476.43,423.266
3477.88,443.489
3479.33,441.083
3480.78,441.321
3482.23,435.27
3483.68,446.864
3485.13,419.388
3486.58,437.395
3488.03,445.495
3489.49,441.591
3490.94,429.089
3492.39,430.532
3493.84,436.22
3495.29,444.673
3496.74,444.505
3498.19,432.551
3499.64,440.085
3501.09,439.303
3502.54,446.082
3503.99,437.228
3505.44,439.411
3506.89,444.048
3508.34,447.575
3509.79,440.001
3511.24,442.727
3512.69,442.624
3514.14,439.852
3515.59,458.747
3517.04,445.594
3518.49,448.432
3519.94,447.548
3521.39,442.661
3522.84,449.617
3524.29,448.016
3525.74,446.514
3527.19,453.962
3528.64,439.219
3530.09,446.23
3531.54,450.16
3532.99,456.533
3534.45,453.454
3535.9,434.412
3537.35,449.19
3538.8,448.02
3540.25,445.505
3541.7,446.061
3543.15,442.862
3544.6,455.268
3546.05,444.008
3547.5,444.324
3548.95,449.152
3550.4,454.457
3551.85,450.724
3553.3,446.361
3554.75,440.168
3556.2,438.944
3557.65,450.623
3559.1,441.516
3560.55,447.27
3562,447.783
3563.45,448.309
3564.9,442.208
3566.35,450.359
3567.8,459.075
3569.25,453.108
3570.7,457.028
3572.15,454.087
3573.6,447.381
3575.05,444.925
3576.5,447.992
3577.96,451.546
3579.41,460.192
3580.86,449.117
3582.31,456.001
3583.76,457.569
3585.21,451.93
3586.66,446.276
3588.11,453.659
3589.56,455.574
3591.01,451.861
3592.46,469.119
3593.91,439.473
3595.36,441.024
3596.81,448.565
3598.26,457.912
3599.71,455.319
3601.16,453.212
3602.61,453.547
3604.06,458.224
3605.51,454.893
3606.96,463.414
3608.41,456.486
3609.86,467.486
3611.31,462.287
3612.76,456.746
3614.21,460.454
3615.66,461.06
3617.11,466.885
3618.56,453.721
3620.01,463.984
3621.46,474.604
3622.92,473.063
3624.37,464.033
3625.82,454.332
3627.27,463.28
3628.72,465.412
3630.17,459.69
3631.62,462.446
3633.07,456.229
3634.52,469.908
3635.97,455.451
3637.42,466.306
3638.87,467.847
3640.32,482.516
3641.77,465.159
3643.22,457.401
3644.67,474.453
3646.12,462.4
3647.57,473.305
3649.02,470.538
3650.47,466.936
3651.92,478.034
3653.37,472.435
3654.82,468.494
3656.27,467.525
3657.72,466.307
3659.17,465.852
3660.62,473.495
3662.07,473.159
3663.52,473.37
3664.97,467.196
3666.43,472.048
3667.88,486.287
3669.33,476.296
3670.78,475.467
3672.23,475.137
3673.68,479.604
3675.13,475.594
3676.58,472.407
3678.03,468.722
3679.48,469.92
3680.93,480.452
3682.38,476.988
3683.83,477.401
3685.28,468.486
3686.73,485.761
3688.18,477.634
3689.63,480.167
3691.08,474.279
3692.53,476.401
3693.98,478.715
3695.43,466.085
3696.88,482.749
3698.33,497.387
3699.78,483.467
3701.23,480.965
3702.68,479.7
3704.13,473.867
3705.58,473.291
3707.03,480.392
3708.48,474.481
3709.93,479.292
3711.39,482.473
3712.84,480.382
3714.29,492.529
3715.74,486.722
3717.19,485.32
3718.64,479.67
3720.09,484.514
3721.54,484.424
3722.99,487.644
3724.44,494.811
3725.89,490.738
3727.34,501.29
3728.79,498.605
3730.24,487.825
3731.69,482.621
3733.14,484.373
3734.59,481.939
3736.04,489.338
3737.49,482.455
3738.94,485.017
3740.39,485.507
3741.84,499.993
3743.29,501.309
3744.74,488.37
3746.19,492.654
3747.64,495.663
3749.09,492.064
3750.54,499.764
3751.99,498.012
3753.44,489.274
3754.89,495.363
3756.35,492.508
3757.8,491.512
3759.25,493.778
3760.7,489.422
3762.15,511.976
3763.6,501.688
3765.05,503.634
3766.5,502.695
3767.95,491.603
3769.4,500.7
3770.85,490.089
3772.3,498.986
3773.75,498.923
3775.2,502.346
3776.65,505.689
3778.1,508.283
3779.55,496.159
3781,496.338
3782.45,514.405
3783.9,505.907
3785.35,505.464
3786.8,507.934
3788.25,507.251
3789.7,523.211
3791.15,513.938
3792.6,501.596
3794.05,500.856
3795.5,512.178
3796.95,514.823
3798.4,498.34
3799.85,511.703
3801.31,513.826
3802.76,506.804
3804.21,506.833
3805.66,512.375
3807.11,512.352
3808.56,504.48
3810.01,502.232
3811.46,516.736
3812.91,506.061
3814.36,509.087
3815.81,525.418
3817.26,515.493
3818.71,519.13
3820.16,524.595
3821.61,518.983
3823.06,518.717
3824.51,515.944
3825.96,515.526
3827.41,514.703
3828.86,523.441
3830.31,522.02
3831.76,522.96
3833.21,531.945
3834.66,513.185
3836.11,511.98
3837.56,509.126
3839.01,518.084
3840.46,519.447
3841.91,523.641
3843.36,528.575
3844.82,522.818
3846.27,531.576
3847.72,530.183
3849.17,530.185
3850.62,531.739
3852.07,527.661
3853.52,525.601
3854.97,530.622
3856.42,517.826
3857.87,541.92
3859.32,534.425
3860.77,541.088
3862.22,529.992
3863.67,531.405
3865.12,521.935
3866.57,539.02
3868.02,535.419
3869.47,535.085
3870.92,543.91
3872.37,526.44
3873.82,543.046
3875.27,540.169
3876.72,545.346
3878.17,544.021
3879.62,532.724
3881.07,536.33
3882.52,549.56
3883.97,540.974
3885.42,547.991
3886.87,544.146
3888.32,543.489
3889.78,548.994
3891.23,549.204
3892.68,538.217
3894.13,538.217
3895.58,538.768
3897.03,552.316
3898.48,554.694
3899.93,557.367
3901.38,550.424
3902.83,558.284
3904.28,562.971
3905.73,552.886
3907.18,560.151
3908.63,556.236
3910.08,546.441
3911.53,553.032
3912.98,568.025
3914.43,558.035
3915.88,565.547
3917.33,562.516
3918.78,565.674
3920.23,556.95
3921.68,572.621
3923.13,558.66
3924.58,562.517
3926.03,573.95
3927.48,575.457
3928.93,560.236
3930.38,569.375
3931.83,587.209
3933.28,566.914
3934.74,580.908
3936.19,587.101
3937.64,582.164
3939.09,574.961
3940.54,564.585
3941.99,578.962
3943.44,584.852
3944.89,572.501
3946.34,573.106
3947.79,577.712
3949.24,570.408
3950.69,595.959
3952.14,585.377
3953.59,573.408
3955.04,590.206
3956.49,597.905
3957.94,588.944
3959.39,594.224
3960.84,611.82
3962.29,583.499
3963.74,602.762
3965.19,580.155
3966.64,606.518
3968.09,607.893
3969.54,600.131
3970.99,597.271
3972.44,594.943
3973.89,599.366
3975.34,608.458
3976.79,582.009
3978.25,608.938
3979.7,614.816
3981.15,601.82
3982.6,615.399
3984.05,618.167
3985.5,596.889
3986.95,616.968
3988.4,632.344
3989.85,613.395
3991.3,613.35
3992.75,615.752
3994.2,607.362
3995.65,618.007
3997.1,606.854
3998.55,623.726
4000,613.298
