0.2,42.4572
1.45033,42.4572
2.90065,42.4572
4.35098,42.4572
5.80131,42.4572
7.25163,35.0271
8.70196,79.0349
10.1523,54.4282
11.6026,42.6073
13.0529,36.9735
14.5033,32.612
15.9536,28.5423
17.4039,25.9742
18.8542,24.0975
20.3046,24.9072
21.7549,24.8393
23.2052,21.8636
24.6555,19.008
26.1059,19.4588
27.5562,18.8827
29.0065,16.9949
30.4569,14.7129
31.9072,12.5695
33.3575,13.1086
34.8078,13.7922
36.2582,13.5359
37.7085,12.8211
39.1588,13.1615
40.6091,11.1833
42.0595,8.95852
43.5098,8.83663
44.9601,11.5554
46.4104,13.2143
47.8608,16.7673
49.3111,21.9854
50.7614,27.0106
52.2117,43.336
53.6621,79.5368
55.1124,135.078
56.5627,211.496
58.0131,317.53
59.4634,414.35
60.9137,505.236
62.364,585.405
63.8144,651.293
65.2647,712.239
66.715,745.589
68.1653,765.613
69.6157,780.545
71.066,797.681
72.5163,798.68
73.9666,798.738
75.417,796.521
76.8673,792.093
78.3176,787.789
79.7679,805.377
81.2183,828.253
82.6686,853.565
84.1189,878.484
85.5693,892.854
87.0196,902.483
88.4699,896.946
89.9202,885.983
91.3706,884.713
92.8209,851.778
94.2712,836
95.7215,820.834
97.1719,798.716
98.6222,768.064
100.073,753.358
101.523,746.012
102.973,732.773
104.423,707.123
105.874,675.87
107.324,678.938
108.774,668.396
110.225,652.055
111.675,642.89
113.125,640.007
114.576,632.616
116.026,621.804
117.476,610.388
118.927,600.822
120.377,574.249
121.827,568.052
123.278,569.524
124.728,565.883
126.178,542.067
127.629,525.299
129.079,514.271
130.529,504.361
131.98,495.25
133.43,493.228
134.88,486.143
136.331,482.929
137.781,478.203
139.231,471.005
140.682,475.197
142.132,457.247
143.582,442.314
145.033,436.316
146.483,438.4
147.933,429.14
149.384,420.625
150.834,404.435
152.284,390.216
153.735,390.942
155.185,401.657
156.635,378.503
158.086,377.961
159.536,385.067
160.986,357.335
162.437,359.074
163.887,361.157
165.337,366.864
166.788,369.093
168.238,353.858
169.688,358.649
171.139,357.832
172.589,353.624
174.039,349.338
175.489,349.775
176.94,340.461
178.39,335.379
179.84,338.037
181.291,342.46
182.741,329.099
184.191,318.247
185.642,313.789
187.092,308.33
188.542,301.849
189.993,308.397
191.443,309.71
192.893,308.513
194.344,306.714
195.794,306.05
197.244,308.232
198.695,311.365
200.145,306.074
201.595,301.652
203.046,302.751
204.496,298.676
205.946,311.236
207.397,311.472
208.847,308.2
210.297,307.573
211.748,297.23
213.198,298.481
214.648,295.101
216.099,289.555
217.549,284.746
218.999,278.477
220.45,273.133
221.9,266.141
223.35,266.033
224.801,276.673
226.251,285.719
227.701,282.494
229.152,280.833
230.602,278.469
232.052,272.475
233.503,262.827
234.953,278.196
236.403,275.593
237.854,270.741
239.304,273.461
240.754,263.659
242.204,260.387
243.655,265.205
245.105,261.539
246.555,249.854
248.006,270.035
249.456,263.582
250.906,263.807
252.357,263.439
253.807,258.629
255.257,256.138
256.708,264.501
258.158,264.569
259.608,264.244
261.059,266.32
262.509,265
263.959,250.704
265.41,249.745
266.86,258.001
268.31,265.787
269.761,258.974
271.211,260.443
272.661,252.793
274.112,250.995
275.562,257.428
277.012,264.123
278.463,251.637
279.913,252.748
281.363,249.04
282.814,242.233
284.264,242.762
285.714,240.703
287.165,239.257
288.615,239.851
290.065,238.706
291.516,232.356
292.966,229.267
294.416,236.183
295.867,235.263
297.317,231.656
298.767,230.721
300.218,221.456
301.668,228.341
303.118,230.362
304.569,233.01
306.019,235.951
307.469,221.216
308.919,227.19
310.37,225.316
311.82,222.957
313.27,220.418
314.721,208.557
316.171,203.099
317.621,199.36
319.072,206.001
320.522,212.021
321.972,198.8
323.423,204.41
324.873,206.453
326.323,206.015
327.774,203.802
329.224,202.243
330.674,212.288
332.125,208.359
333.575,205.078
335.025,205.202
336.476,207.126
337.926,204.021
339.376,205.725
340.827,204.118
342.277,199.854
343.727,200.402
345.178,217.802
346.628,197.972
348.078,194.208
349.529,195.565
350.979,196.032
352.429,194.323
353.88,202.912
355.33,196.121
356.78,195.299
358.231,198.821
359.681,199.744
361.131,191.593
362.582,193.634
364.032,197.358
365.482,200.367
366.933,199.454
368.383,190.793
369.833,192.426
371.284,184.507
372.734,185.874
374.184,191.461
375.635,188.342
377.085,191.312
378.535,193.497
379.986,195.093
381.436,195.988
382.886,196.285
384.336,196.582
385.787,194.14
387.237,194.597
388.687,192.627
390.138,188.458
391.588,187.03
393.038,188.666
394.489,190.053
395.939,190.756
397.389,193.761
398.84,198.19
400.29,187.771
401.74,187.945
403.191,187.355
404.641,194.653
406.091,201.95
407.542,185.189
408.992,192.043
410.442,191.365
411.893,188.097
413.343,188.071
414.793,193.957
416.244,195.895
417.694,186.962
419.144,185.158
420.595,181.3
422.045,178.224
423.495,194.379
424.946,199.005
426.396,185.308
427.846,178.432
429.297,181.06
430.747,186.796
432.197,192.03
433.648,182.536
435.098,178.39
436.548,184.787
437.999,192.475
439.449,182.227
440.899,190.449
442.35,184.397
443.8,184.566
445.25,185.387
446.701,180.797
448.151,188.586
449.601,185.929
451.051,180.906
452.502,182.143
453.952,187.926
455.402,189.234
456.853,188.484
458.303,178.898
459.753,183.849
461.204,189.468
462.654,184.951
464.104,180.922
465.555,187.968
467.005,185.471
468.455,183.792
469.906,182.459
471.356,178.641
472.806,184.649
474.257,182.467
475.707,182.81
477.157,182.677
478.608,185.616
480.058,199.259
481.508,187.395
482.959,187.573
484.409,182.808
485.859,181.975
487.31,188.632
488.76,183.832
490.21,187.44
491.661,179.303
493.111,179.816
494.561,186.362
496.012,187.4
497.462,183.338
498.912,182.104
500.363,175.332
501.813,175.673
503.263,183.35
504.714,187.264
506.164,181.392
507.614,175.379
509.065,173.431
510.515,174.7
511.965,177.335
513.416,179.47
514.866,176.151
516.316,175.366
517.766,182.673
519.217,183.561
520.667,172.84
522.117,174.366
523.568,179.049
525.018,181.924
526.468,182.914
527.919,180.893
529.369,175.737
530.819,171.202
532.27,174.279
533.72,174.267
535.17,177.825
536.621,183.922
538.071,185.23
539.521,170.874
540.972,178.613
542.422,183.97
543.872,183.201
545.323,179.278
546.773,178.037
548.223,180.006
549.674,178.797
551.124,181.466
552.574,184.178
554.025,185.466
555.475,186.497
556.925,180.13
558.376,183.105
559.826,181.756
561.276,178.779
562.727,178.168
564.177,181.202
565.627,182.568
567.078,180.595
568.528,173.844
569.978,177.921
571.429,186.519
572.879,171.275
574.329,174.16
575.78,174.658
577.23,174.81
578.68,176.896
580.131,179.378
581.581,177.588
583.031,182.148
584.482,176.102
585.932,178.523
587.382,181.071
588.832,179.627
590.283,181.594
591.733,183.42
593.183,190.187
594.634,185.032
596.084,180.439
597.534,181.365
598.985,178.811
600.435,179.877
601.885,185.952
603.336,185.387
604.786,179.92
606.236,176.57
607.687,180.787
609.137,172.402
610.587,177.681
612.038,174.98
613.488,177.274
614.938,183.536
616.389,180.538
617.839,179.012
619.289,168.848
620.74,179.381
622.19,186.687
623.64,182.5
625.091,176.788
626.541,184.587
627.991,181.41
629.442,179.493
630.892,181.342
632.342,184.93
633.793,186.054
635.243,181.314
636.693,185.669
638.144,181.553
639.594,187.815
641.044,188.786
642.495,176.671
643.945,184.575
645.395,190.851
646.846,186.958
648.296,189.004
649.746,191.34
651.197,190.157
652.647,191.946
654.097,193.173
655.547,192.22
656.998,187.349
658.448,184.035
659.898,181.861
661.349,178.321
662.799,191.97
664.249,193.34
665.7,191.177
667.15,193.577
668.6,195.717
670.051,190.498
671.501,185.31
672.951,195.751
674.402,196.935
675.852,192.253
677.302,195.161
678.753,202.759
680.203,189.125
681.653,197.433
683.104,201.939
684.554,200.27
686.004,196.038
687.455,194.524
688.905,198.425
690.355,199.809
691.806,202.224
693.256,197.11
694.706,196.56
696.157,198.035
697.607,196.261
699.057,198.144
700.508,201.073
701.958,209.492
703.408,207.82
704.859,202.656
706.309,201.342
707.759,202.546
709.21,194.222
710.66,191.801
712.11,197.798
713.561,196.24
715.011,195.064
716.461,202.942
717.912,196.705
719.362,193.924
720.812,196.88
722.263,197.618
723.713,202.958
725.163,209.308
726.613,202.903
728.064,199.35
729.514,203.079
730.964,202.064
732.415,200.607
733.865,200.364
735.315,199.94
736.766,197.73
738.216,210.425
739.666,206.584
741.117,199.702
742.567,200.427
744.017,201.24
745.468,191.25
746.918,202.564
748.368,201.275
749.819,195.872
751.269,199.796
752.719,201.586
754.17,195.835
755.62,197.93
757.07,208.014
758.521,205.527
759.971,195.949
761.421,196.951
762.872,202.727
764.322,200.802
765.772,197.962
767.223,204.175
768.673,209.977
770.123,201.575
771.574,197.584
773.024,203.062
774.474,205.47
775.925,195.683
777.375,201.591
778.825,204.927
780.276,203.959
781.726,203.101
783.176,202.192
784.627,197.962
786.077,205.277
787.527,205.077
788.978,201.398
790.428,208.793
791.878,212.412
793.328,207.569
794.779,213.692
796.229,204.966
797.68,209.403
799.13,208.122
800.58,206.804
802.03,208.072
803.481,212.727
804.931,220.42
806.381,209.5
807.832,214.658
809.282,209.604
810.732,206.347
812.183,207.642
813.633,209.519
815.083,210.948
816.534,212.666
817.984,212.964
819.434,216.018
820.885,213.706
822.335,212.851
823.785,217.556
825.236,211.656
826.686,208.216
828.136,216.84
829.587,212.313
831.037,214.476
832.487,224.758
833.938,228.033
835.388,213.842
836.838,222.138
838.289,228.003
839.739,219.565
841.189,219.499
842.64,226.109
844.09,228.725
845.54,229.542
846.991,222.961
848.441,222.924
849.891,224.593
851.342,225.028
852.792,228.868
854.242,232.95
855.693,222.122
857.143,207.531
858.593,224.716
860.044,230.67
861.494,230.621
862.944,227.151
864.394,225.126
865.845,230.489
867.295,230.332
868.745,228.942
870.196,231.911
871.646,225.461
873.096,220.986
874.547,220.711
875.997,216.551
877.447,221.869
878.898,218.409
880.348,229.724
881.798,232.136
883.249,229.69
884.699,228.868
886.149,229.903
887.6,227.343
889.05,215.521
890.5,225.218
891.951,227.549
893.401,226.293
894.851,227.542
896.302,230.218
897.752,227.438
899.202,226.177
900.653,235.442
902.103,232.271
903.553,235.31
905.004,235.803
906.454,236.606
907.904,249.947
909.355,253.237
910.805,251.025
912.255,246.321
913.706,233.627
915.156,232.785
916.606,237.92
918.057,238.991
919.507,246.758
920.957,227.776
922.408,235.29
923.858,248.191
925.308,248.634
926.759,243.623
928.209,246.571
929.659,257.408
931.109,252.214
932.56,252.214
934.01,254.169
935.46,257.544
936.911,247.862
938.361,243.547
939.811,253.559
941.262,249.975
942.712,261.221
944.162,255.49
945.613,255.838
947.063,244.447
948.513,241.379
949.964,250.147
951.414,252.778
952.864,244.267
954.315,250.135
955.765,256.599
957.215,255.83
958.666,253.969
960.116,252.089
961.566,250.39
963.017,249.021
964.467,242.117
965.917,250.703
967.368,250.678
968.818,251.802
970.268,247.013
971.719,242.671
973.169,245.392
974.619,249.978
976.07,254.365
977.52,249.277
978.97,260.622
980.421,258.009
981.871,257.664
983.321,256.606
984.772,251.723
986.222,259.906
987.672,247.953
989.123,257.455
990.573,253.707
992.023,254.643
993.474,255.253
994.924,253.643
996.374,254.276
997.825,257.91
999.275,252.484
1000.73,260.708
1002.18,258.978
1003.63,264.771
1005.08,269.794
1006.53,271.836
1007.98,272.984
1009.43,268.253
1010.88,263.938
1012.33,266.726
1013.78,282.187
1015.23,278.385
1016.68,274.807
1018.13,277.713
1019.58,278.932
1021.03,277.56
1022.48,273.782
1023.93,289.305
1025.38,287.828
1026.83,296.883
1028.28,293.653
1029.73,287.889
1031.18,290.815
1032.63,286.895
1034.08,288.224
1035.53,291.108
1036.98,309.702
1038.43,313.437
1039.88,309.305
1041.33,310.823
1042.78,313.018
1044.23,306.503
1045.69,318.499
1047.14,314.327
1048.59,311.648
1050.04,316.469
1051.49,315.294
1052.94,318.203
1054.39,327.03
1055.84,330.882
1057.29,328.764
1058.74,336.315
1060.19,339.615
1061.64,335.77
1063.09,344.666
1064.54,351.152
1065.99,352.769
1067.44,356.665
1068.89,363.542
1070.34,374.925
1071.79,369.777
1073.24,365.064
1074.69,358.027
1076.14,360.308
1077.59,368.033
1079.04,373.302
1080.49,374.36
1081.94,372.768
1083.39,359.719
1084.84,383.581
1086.29,381.469
1087.74,371.185
1089.2,374.684
1090.65,378.906
1092.1,372.104
1093.55,368.012
1095,366.807
1096.45,362.128
1097.9,360.611
1099.35,362.82
1100.8,361.649
1102.25,366.149
1103.7,358.424
1105.15,344.215
1106.6,373.629
1108.05,370.667
1109.5,354.652
1110.95,353.645
1112.4,352.044
1113.85,354.575
1115.3,357.576
1116.75,355.397
1118.2,350.06
1119.65,348.549
1121.1,339.697
1122.55,354.584
1124,342.772
1125.45,339.02
1126.9,345.035
1128.35,344.558
1129.8,341.909
1131.25,345.365
1132.7,332.821
1134.16,344.322
1135.61,349.346
1137.06,335.584
1138.51,335.33
1139.96,331.89
1141.41,330.827
1142.86,331.124
1144.31,326.997
1145.76,335.786
1147.21,332.022
1148.66,325.035
1150.11,335.341
1151.56,330.342
1153.01,320.989
1154.46,322.004
1155.91,326.528
1157.36,326.787
1158.81,336.06
1160.26,334.047
1161.71,315.172
1163.16,332.443
1164.61,328.867
1166.06,327.921
1167.51,332.215
1168.96,332.153
1170.41,327.331
1171.86,326.283
1173.31,323.469
1174.76,320.051
1176.21,326.977
1177.66,324.613
1179.12,324.262
1180.57,326.144
1182.02,328.812
1183.47,329.256
1184.92,328.613
1186.37,337.803
1187.82,328.99
1189.27,334.697
1190.72,332.783
1192.17,329.968
1193.62,328.99
1195.07,323.277
1196.52,323.575
1197.97,336.379
1199.42,339.985
1200.87,336.646
1202.32,339.425
1203.77,321.881
1205.22,332.664
1206.67,333.977
1208.12,325.983
1209.57,326.924
1211.02,332.875
1212.47,331.811
1213.92,339.709
1215.37,329.833
1216.82,339.986
1218.27,337.245
1219.72,345.138
1221.17,344.108
1222.63,337.438
1224.08,338.043
1225.53,340.982
1226.98,332.236
1228.43,327.886
1229.88,347.966
1231.33,333.532
1232.78,350.526
1234.23,344.553
1235.68,350.056
1237.13,354.585
1238.58,355.485
1240.03,356.788
1241.48,354.858
1242.93,367.106
1244.38,355.131
1245.83,344.452
1247.28,351.542
1248.73,369.295
1250.18,367.495
1251.63,358.317
1253.08,360.31
1254.53,366.867
1255.98,366.344
1257.43,376.736
1258.88,382.691
1260.33,372.817
1261.78,380.813
1263.23,384.745
1264.68,379.957
1266.13,383.257
1267.59,394.126
1269.04,403.739
1270.49,406.42
1271.94,401.2
1273.39,419.127
1274.84,414.012
1276.29,413.948
1277.74,425.335
1279.19,425.183
1280.64,435.154
1282.09,443.083
1283.54,450.614
1284.99,463.577
1286.44,465.521
1287.89,471.782
1289.34,457.854
1290.79,487.909
1292.24,499.274
1293.69,502.204
1295.14,515.87
1296.59,533.407
1298.04,541.569
1299.49,550.375
1300.94,572.161
1302.39,586.674
1303.84,588.425
1305.29,598.846
1306.74,619.299
1308.19,629.995
1309.64,652.087
1311.09,680.804
1312.55,705.936
1314,724.579
1315.45,747.187
1316.9,774.95
1318.35,788.402
1319.8,821.782
1321.25,833.052
1322.7,841.441
1324.15,882.561
1325.6,881.898
1327.05,877.893
1328.5,877.514
1329.95,883.196
1331.4,896.954
1332.85,904.416
1334.3,898.063
1335.75,899.113
1337.2,868.898
1338.65,861.903
1340.1,835.226
1341.55,832.374
1343,813.94
1344.45,784.827
1345.9,771.836
1347.35,765.212
1348.8,737.828
1350.25,701.474
1351.7,676.346
1353.15,670.803
1354.6,676.126
1356.06,655.56
1357.51,613.224
1358.96,590.705
1360.41,588.49
1361.86,583.378
1363.31,574.155
1364.76,569.176
1366.21,555.941
1367.66,527.632
1369.11,521.923
1370.56,530.432
1372.01,517.091
1373.46,516.1
1374.91,505.691
1376.36,510.043
1377.81,504.423
1379.26,491.033
1380.71,484.055
1382.16,484.508
1383.61,489.281
1385.06,477.095
1386.51,460.342
1387.96,477.041
1389.41,478.6
1390.86,487.814
1392.31,485.939
1393.76,470.839
1395.21,475.917
1396.66,474.07
1398.11,469.01
1399.56,487.021
1401.02,490.167
1402.47,487.487
1403.92,484.374
1405.37,491.242
1406.82,495.357
1408.27,495.122
1409.72,484.518
1411.17,498.591
1412.62,503.086
1414.07,487.719
1415.52,485.354
1416.97,499.394
1418.42,502.403
1419.87,513.91
1421.32,514.261
1422.77,518.28
1424.22,503.842
1425.67,511.353
1427.12,535.805
1428.57,522.985
1430.02,522.203
1431.47,530.737
1432.92,532.609
1434.37,535.827
1435.82,544.304
1437.27,553.496
1438.72,574.572
1440.17,560.776
1441.62,554.72
1443.07,565.585
1444.53,555.684
1445.98,571.676
1447.43,587.564
1448.88,594.057
1450.33,587.249
1451.78,585.674
1453.23,603.102
1454.68,620.046
1456.13,620.173
1457.58,625.191
1459.03,633.259
1460.48,645.734
1461.93,631.19
1463.38,661.945
1464.83,673.216
1466.28,673.012
1467.73,681.198
1469.18,692.334
1470.63,710.415
1472.08,733.502
1473.53,746.8
1474.98,751.826
1476.43,759.901
1477.88,777.321
1479.33,767.648
1480.78,801.656
1482.23,817.836
1483.68,830.842
1485.13,863.092
1486.58,874.027
1488.03,881.205
1489.49,911.609
1490.94,937.257
1492.39,945.916
1493.84,962.781
1495.29,986.197
1496.74,1030.54
1498.19,1049.45
1499.64,1089.61
1501.09,1085.03
1502.54,1156.18
1503.99,1204.45
1505.44,1240.31
1506.89,1292.52
1508.34,1344.69
1509.79,1395.94
1511.24,1455.06
1512.69,1524.73
1514.14,1604.86
1515.59,1690.18
1517.04,1775.73
1518.49,1868.26
1519.94,1971.15
1521.39,2117.66
1522.84,2277.37
1524.29,2411.55
1525.74,2559.56
1527.19,2789.14
1528.64,3002.39
1530.09,3206.8
1531.54,3453.85
1532.99,3736.35
1534.45,4050.83
1535.9,4391.51
1537.35,4712.36
1538.8,5089.83
1540.25,5425.65
1541.7,5862.57
1543.15,6304.59
1544.6,6823.79
1546.05,7194.09
1547.5,7596.39
1548.95,8026.92
1550.4,8503.7
1551.85,8894.84
1553.3,8908.99
1554.75,8923.58
1556.2,8949.11
1557.65,8971
1559.1,8987.04
1560.55,9043.94
1562,9016.22
1563.45,9009.15
1564.9,9005.06
1566.35,8988.21
1567.8,8918.62
1569.25,8477.22
1570.7,7984.46
1572.15,7485
1573.6,6994.87
1575.05,6516.56
1576.5,6025.75
1577.96,5543.85
1579.41,5117.76
1580.86,4736.54
1582.31,4358.12
1583.76,3988.71
1585.21,3723.37
1586.66,3439.11
1588.11,3220.46
1589.56,2991.93
1591.01,2797.95
1592.46,2603.38
1593.91,2462.11
1595.36,2302.15
1596.81,2180.3
1598.26,2071.74
1599.71,1953.99
1601.16,1855.96
1602.61,1765.14
1604.06,1672.04
1605.51,1591.03
1606.96,1519.14
1608.41,1442.01
1609.86,1400.24
1611.31,1336.76
1612.76,1269.95
1614.21,1241.09
1615.66,1190.48
1617.11,1141.42
1618.56,1101.07
1620.01,1070.29
1621.46,1045.03
1622.92,1008.61
1624.37,971.294
1625.82,937.177
1627.27,921.902
1628.72,906.524
1630.17,869.438
1631.62,849.575
1633.07,851.026
1634.52,824.386
1635.97,824.583
1637.42,810.563
1638.87,776.869
1640.32,768.261
1641.77,763.41
1643.22,751.658
1644.67,736.041
1646.12,722.033
1647.57,716.989
1649.02,704.743
1650.47,691.794
1651.92,685.358
1653.37,685.527
1654.82,679.016
1656.27,683.639
1657.72,665.173
1659.17,661.646
1660.62,642.059
1662.07,633.442
1663.52,622.048
1664.97,628.345
1666.42,610.758
1667.88,611.506
1669.33,596.049
1670.78,586.295
1672.23,598.847
1673.68,599.35
1675.13,594.048
1676.58,585.456
1678.03,585.052
1679.48,589.7
1680.93,579.184
1682.38,564.421
1683.83,573.142
1685.28,557.372
1686.73,548.485
1688.18,538.472
1689.63,543.222
1691.08,556.623
1692.53,553.786
1693.98,538.602
1695.43,541.012
1696.88,548.572
1698.33,545.594
1699.78,541.777
1701.23,539.439
1702.68,543.289
1704.13,534.268
1705.58,541.108
1707.03,532.908
1708.48,542.882
1709.93,515.912
1711.39,521.193
1712.84,541.325
1714.29,526.879
1715.74,519.177
1717.19,525.685
1718.64,533.682
1720.09,526.872
1721.54,531.901
1722.99,532.346
1724.44,521.191
1725.89,526.146
1727.34,528.761
1728.79,516.807
1730.24,522.263
1731.69,521.201
1733.14,518.797
1734.59,508.575
1736.04,529.424
1737.49,513.773
1738.94,500.275
1740.39,495.763
1741.84,490.568
1743.29,489.852
1744.74,499.391
1746.19,499.718
1747.64,501.994
1749.09,489.128
1750.54,497.372
1751.99,490.181
1753.44,472.81
1754.89,478.11
1756.35,484.055
1757.8,474.591
1759.25,477.892
1760.7,482.434
1762.15,465.433
1763.6,472.215
1765.05,469.681
1766.5,472.994
1767.95,463.236
1769.4,460.367
1770.85,456.678
1772.3,469.074
1773.75,450.843
1775.2,463.777
1776.65,449.505
1778.1,447.905
1779.55,452.388
1781,447.025
1782.45,452.522
1783.9,454.82
1785.35,453.558
1786.8,453.035
1788.25,459.9
1789.7,453.693
1791.15,446.511
1792.6,450.516
1794.05,439.724
1795.5,441.081
1796.95,446.437
1798.4,457.285
1799.85,459.897
1801.31,446.994
1802.76,435.039
1804.21,438.369
1805.66,446.941
1807.11,446.416
1808.56,430.815
1810.01,435.718
1811.46,425.216
1812.91,422.976
1814.36,439.604
1815.81,440.683
1817.26,439.99
1818.71,429.221
1820.16,427.588
1821.61,433.376
1823.06,432.383
1824.51,436.619
1825.96,440.143
1827.41,439.992
1828.86,441.999
1830.31,440.304
1831.76,446.216
1833.21,447.747
1834.66,436.391
1836.11,447.884
1837.56,438.973
1839.01,439.828
1840.46,447.437
1841.91,445.531
1843.36,460.049
1844.82,451.816
1846.27,446.538
1847.72,443.829
1849.17,456.565
1850.62,448.98
1852.07,463.733
1853.52,448.507
1854.97,451.199
1856.42,456.02
1857.87,460.06
1859.32,461.847
1860.77,457.675
1862.22,446.569
1863.67,449.048
1865.12,453.294
1866.57,457.592
1868.02,457.066
1869.47,447.72
1870.92,450.283
1872.37,456.538
1873.82,457.986
1875.27,462.087
1876.72,450.344
1878.17,442.941
1879.62,444.412
1881.07,448.828
1882.52,451.917
1883.97,443.424
1885.42,447.743
1886.87,435.726
1888.32,444.54
1889.78,452.157
1891.23,423.825
1892.68,429.662
1894.13,429.655
1895.58,433.208
1897.03,431.12
1898.48,435.441
1899.93,426.073
1901.38,421.055
1902.83,422.104
1904.28,424.015
1905.73,419.582
1907.18,428.231
1908.63,425.822
1910.08,433.923
1911.53,427.551
1912.98,416.186
1914.43,422.488
1915.88,424.112
1917.33,420.549
1918.78,421.042
1920.23,421.622
1921.68,420.762
1923.13,415.608
1924.58,417.696
1926.03,420.554
1927.48,417.785
1928.93,424.616
1930.38,416.48
1931.83,428.008
1933.29,410.912
1934.74,417.901
1936.19,417.286
1937.64,411.038
1939.09,414.551
1940.54,412.972
1941.99,424.286
1943.44,414.437
1944.89,418.155
1946.34,419.759
1947.79,421.716
1949.24,409.228
1950.69,423.925
1952.14,427.215
1953.59,434.147
1955.04,438.681
1956.49,422.436
1957.94,425.855
1959.39,422.827
1960.84,412.625
1962.29,431.084
1963.74,424.264
1965.19,431.946
1966.64,434.28
1968.09,422.211
1969.54,420.988
1970.99,419.472
1972.44,422.098
1973.89,427.394
1975.34,434.183
1976.79,442.705
1978.25,443.697
1979.7,438.407
1981.15,436.903
1982.6,440.793
1984.05,442.09
1985.5,433.418
1986.95,431.287
1988.4,437.967
1989.85,433.247
1991.3,437.606
1992.75,438.41
1994.2,429.543
1995.65,440.469
1997.1,425.917
1998.55,429.597
2000,426.664
2001.45,436.008
2002.9,437.875
2004.35,448.047
2005.8,440.824
2007.25,431.313
2008.7,434.864
2010.15,430.905
2011.6,424.314
2013.05,419.872
2014.5,421.622
2015.95,429.884
2017.4,425.18
2018.85,421.336
2020.3,432.564
2021.75,439
2023.21,440.402
2024.66,434.739
2026.11,413.867
2027.56,444.314
2029.01,418.533
2030.46,424.294
2031.91,413.4
2033.36,429.158
2034.81,408.995
2036.26,440.82
2037.71,417.252
2039.16,424.438
2040.61,422.074
2042.06,407.927
2043.51,423.659
2044.96,423.272
2046.41,405.699
2047.86,405.931
2049.31,425.603
2050.76,403.111
2052.21,405.541
2053.66,398.815
2055.11,405.111
2056.56,413.739
2058.01,413.64
2059.46,410.973
2060.91,400.394
2062.36,398.324
2063.81,401.193
2065.26,401.434
2066.72,406.88
2068.17,405.101
2069.62,400.069
2071.07,407.401
2072.52,397.742
2073.97,398.571
2075.42,401.118
2076.87,402.073
2078.32,411.628
2079.77,407.948
2081.22,401.965
2082.67,394.127
2084.12,396.925
2085.57,398.273
2087.02,392.008
2088.47,397.843
2089.92,398.5
2091.37,398.961
2092.82,396.465
2094.27,400.492
2095.72,402.66
2097.17,398.822
2098.62,400.805
2100.07,392.592
2101.52,402.475
2102.97,403.851
2104.42,398.398
2105.87,403.224
2107.32,405.742
2108.77,406.872
2110.22,410.425
2111.68,413.031
2113.13,411.73
2114.58,404.582
2116.03,401.125
2117.48,401.266
2118.93,405.898
2120.38,411.055
2121.83,408.442
2123.28,410.825
2124.73,415.037
2126.18,416.016
2127.63,413.734
2129.08,412.1
2130.53,416.355
2131.98,418.058
2133.43,406.382
2134.88,408.417
2136.33,417.844
2137.78,412.091
2139.23,410.528
2140.68,412.621
2142.13,414.297
2143.58,425.255
2145.03,420.979
2146.48,418.71
2147.93,418.753
2149.38,418.411
2150.83,426.176
2152.28,423.366
2153.73,423.999
2155.18,428.168
2156.64,428.064
2158.09,423.304
2159.54,433.074
2160.99,431.874
2162.44,429.416
2163.89,439.009
2165.34,435.308
2166.79,433.133
2168.24,431.023
2169.69,432.46
2171.14,435.947
2172.59,431.328
2174.04,434.842
2175.49,446.463
2176.94,441.054
2178.39,444.935
2179.84,447.129
2181.29,442.821
2182.74,438.128
2184.19,443.027
2185.64,437.239
2187.09,437.296
2188.54,436.355
2189.99,438.577
2191.44,438.671
2192.89,440.082
2194.34,445.112
2195.79,453.24
2197.24,443.686
2198.69,447.802
2200.15,444.488
2201.6,445.577
2203.05,437.481
2204.5,439.27
2205.95,447.31
2207.4,450.448
2208.85,445.485
2210.3,448.238
2211.75,456.225
2213.2,466.574
2214.65,448.95
2216.1,460.06
2217.55,458.488
2219,448.569
2220.45,459.039
2221.9,457.479
2223.35,460.34
2224.8,466.892
2226.25,475.605
2227.7,458.252
2229.15,465.97
2230.6,473.948
2232.05,460.749
2233.5,455.864
2234.95,449.861
2236.4,471.237
2237.85,477.345
2239.3,464.314
2240.75,468.331
2242.2,472.216
2243.65,459.145
2245.11,472.962
2246.56,480.306
2248.01,475.016
2249.46,468.698
2250.91,480.619
2252.36,480.752
2253.81,494.649
2255.26,481.725
2256.71,473.154
2258.16,481.358
2259.61,492.963
2261.06,484.823
2262.51,472.238
2263.96,482.494
2265.41,495.001
2266.86,487.385
2268.31,496.525
2269.76,491.634
2271.21,484.769
2272.66,497.408
2274.11,495.13
2275.56,487.21
2277.01,492.256
2278.46,493.446
2279.91,493.446
2281.36,490.942
2282.81,502.362
2284.26,506.533
2285.71,501.26
2287.16,494.478
2288.61,505.682
2290.07,511.418
2291.52,520.043
2292.97,515.999
2294.42,518.168
2295.87,517.6
2297.32,508.808
2298.77,511.136
2300.22,513.306
2301.67,502.319
2303.12,523.48
2304.57,525.644
2306.02,524.715
2307.47,511.398
2308.92,517.45
2310.37,535.676
2311.82,532.163
2313.27,525.619
2314.72,516.983
2316.17,526.892
2317.62,527.857
2319.07,557.886
2320.52,546.277
2321.97,540.182
2323.42,558.09
2324.87,546.301
2326.32,552.085
2327.77,557.69
2329.22,553.83
2330.67,553.503
2332.12,566.015
2333.57,566.625
2335.03,575.256
2336.48,552.881
2337.93,563.417
2339.38,574.159
2340.83,573.341
2342.28,582.38
2343.73,584.092
2345.18,580.908
2346.63,592.022
2348.08,583.094
2349.53,583.449
2350.98,605.043
2352.43,606.189
2353.88,614.888
2355.33,613.094
2356.78,615.847
2358.23,629.691
2359.68,628.616
2361.13,621.529
2362.58,623.777
2364.03,644.357
2365.48,646.622
2366.93,677.911
2368.38,644.27
2369.83,659.716
2371.28,657.305
2372.73,681.381
2374.18,685.382
2375.63,693.919
2377.08,705.551
2378.54,708.962
2379.99,717.996
2381.44,729.311
2382.89,734.983
2384.34,739.6
2385.79,740.257
2387.24,754.853
2388.69,761.353
2390.14,776.562
2391.59,795.674
2393.04,793.749
2394.49,782.157
2395.94,791.925
2397.39,820.126
2398.84,848.583
2400.29,832.95
2401.74,852.471
2403.19,853.871
2404.64,879.352
2406.09,890.812
2407.54,873.793
2408.99,881.015
2410.44,889.353
2411.89,880.016
2413.34,905.882
2414.79,919.808
2416.24,906.386
2417.69,897.647
2419.14,908.45
2420.59,905.89
2422.04,881.584
2423.5,898.413
2424.95,907.48
2426.4,892.891
2427.85,883.189
2429.3,888.434
2430.75,896.779
2432.2,896.013
2433.65,885.202
2435.1,865.828
2436.55,885.093
2438,870.233
2439.45,870.299
2440.9,878.046
2442.35,865.908
2443.8,867.644
2445.25,854.229
2446.7,867.87
2448.15,856.366
2449.6,849.546
2451.05,837.889
2452.5,843.229
2453.95,826.443
2455.4,846.205
2456.85,828.858
2458.3,829.296
2459.75,837.189
2461.2,840.756
2462.65,832.06
2464.1,831.849
2465.55,825.283
2467.01,824.343
2468.46,828.749
2469.91,828.88
2471.36,824.613
2472.81,828.326
2474.26,832.425
2475.71,823.701
2477.16,838.458
2478.61,842.725
2480.06,853.682
2481.51,849.524
2482.96,850.253
2484.41,833.14
2485.86,853.594
2487.31,863.479
2488.76,859.773
2490.21,855.659
2491.66,853.186
2493.11,852.055
2494.56,860.728
2496.01,846.321
2497.46,844.731
2498.91,853.594
2500.36,855.855
2501.81,850.691
2503.26,875.238
2504.71,877.995
2506.16,887.821
2507.61,905.569
2509.06,872.67
2510.51,915.154
2511.97,899.419
2513.42,908.902
2514.87,921.719
2516.32,933.909
2517.77,932.829
2519.22,939.044
2520.67,956.128
2522.12,964.298
2523.57,979.041
2525.02,976.633
2526.47,987.452
2527.92,992.551
2529.37,976.831
2530.82,1000.88
2532.27,1021.74
2533.72,1015.99
2535.17,1023.63
2536.62,1040.89
2538.07,1067.86
2539.52,1052.85
2540.97,1083.8
2542.42,1087.4
2543.87,1135.82
2545.32,1144.09
2546.77,1139.21
2548.22,1164.96
2549.67,1180.07
2551.12,1191.5
2552.57,1193.52
2554.02,1220.65
2555.48,1246.46
2556.93,1278.5
2558.38,1293.99
2559.83,1308.37
2561.28,1329.45
2562.73,1378.39
2564.18,1393.34
2565.63,1419.54
2567.08,1454.41
2568.53,1473.23
2569.98,1515.19
2571.43,1571.13
2572.88,1600.86
2574.33,1599.8
2575.78,1650.06
2577.23,1693.56
2578.68,1728.09
2580.13,1777.01
2581.58,1816.8
2583.03,1849.5
2584.48,1902.95
2585.93,1948.98
2587.38,1988.02
2588.83,2066.64
2590.28,2144.78
2591.73,2225.58
2593.18,2252.79
2594.63,2312.36
2596.08,2395.31
2597.53,2459.15
2598.98,2567.3
2600.44,2640.33
2601.89,2736.92
2603.34,2834.94
2604.79,2917.47
2606.24,3028.31
2607.69,3104.47
2609.14,3232.32
2610.59,3297.69
2612.04,3434.08
2613.49,3525.39
2614.94,3666.09
2616.39,3777.51
2617.84,3862.45
2619.29,3983
2620.74,4096.38
2622.19,4210.93
2623.64,4356.44
2625.09,4427.44
2626.54,4539.41
2627.99,4652.76
2629.44,4787.02
2630.89,4911.86
2632.34,5027.73
2633.79,5113.66
2635.24,5265.7
2636.69,5299.52
2638.14,5382.25
2639.59,5491.41
2641.04,5524.14
2642.49,5593.85
2643.94,5634.29
2645.4,5650.57
2646.85,5674.42
2648.3,5686.68
2649.75,5647.75
2651.2,5655.72
2652.65,5585.67
2654.1,5612.83
2655.55,5532.42
2657,5483.8
2658.45,5390.37
2659.9,5296.19
2661.35,5198.39
2662.8,5113.02
2664.25,4994.23
2665.7,4922.85
2667.15,4835.97
2668.6,4685.21
2670.05,4589.1
2671.5,4482.27
2672.95,4292.47
2674.4,4216.71
2675.85,4086.9
2677.3,3938.65
2678.75,3830.89
2680.2,3746.88
2681.65,3572.34
2683.1,3473.59
2684.55,3356.64
2686,3269.07
2687.45,3148.87
2688.91,3020.44
2690.36,2912.91
2691.81,2824.73
2693.26,2731.74
2694.71,2592.79
2696.16,2513.47
2697.61,2480.45
2699.06,2354.15
2700.51,2294.05
2701.96,2255.19
2703.41,2172.32
2704.86,2072.35
2706.31,2015.36
2707.76,1931.13
2709.21,1903.94
2710.66,1843.31
2712.11,1776.06
2713.56,1731.17
2715.01,1701.75
2716.46,1647.6
2717.91,1608.52
2719.36,1558.06
2720.81,1534.11
2722.26,1504.14
2723.71,1453.4
2725.16,1407.93
2726.61,1380.79
2728.06,1362.19
2729.51,1342.54
2730.96,1307.89
2732.41,1262.89
2733.87,1263.51
2735.32,1220.47
2736.77,1207.77
2738.22,1185.71
2739.67,1170.58
2741.12,1154.65
2742.57,1117.84
2744.02,1107.75
2745.47,1106.33
2746.92,1072.57
2748.37,1073.11
2749.82,1045.12
2751.27,1048.03
2752.72,1019.15
2754.17,1022.68
2755.62,996.971
2757.07,971.243
2758.52,964.451
2759.97,960.388
2761.42,936.783
2762.87,929.875
2764.32,933.858
2765.77,918.794
2767.22,885.851
2768.67,919.742
2770.12,897.034
2771.57,890.987
2773.02,878.338
2774.47,880.074
2775.92,875.391
2777.38,860.903
2778.83,860.116
2780.28,848.517
2781.73,841.529
2783.18,829.084
2784.63,830.193
2786.08,822.898
2787.53,796.71
2788.98,809.979
2790.43,818.675
2791.88,806.879
2793.33,795.835
2794.78,783.398
2796.23,781.246
2797.68,789.058
2799.13,778.474
2800.58,779.327
2802.03,769.246
2803.48,763.417
2804.93,771.128
2806.38,758.771
2807.83,743.766
2809.28,749.441
2810.73,740.687
2812.18,747.311
2813.63,747.821
2815.08,753.891
2816.53,733.903
2817.98,739.753
2819.43,747.814
2820.88,734.253
2822.33,723.021
2823.79,729.444
2825.24,720.58
2826.69,714.135
2828.14,709.346
2829.59,710.879
2831.04,721.375
2832.49,726.623
2833.94,693.746
2835.39,691.903
2836.84,694.039
2838.29,687.964
2839.74,687.968
2841.19,692.227
2842.64,704.422
2844.09,701.832
2845.54,693.87
2846.99,689.861
2848.44,687.959
2849.89,677.684
2851.34,688.883
2852.79,681.41
2854.24,673.842
2855.69,683.452
2857.14,700.093
2858.59,681.728
2860.04,672.521
2861.49,682.15
2862.94,668.647
2864.39,670.303
2865.84,684.957
2867.3,681.481
2868.75,680.138
2870.2,679.985
2871.65,667.782
2873.1,672.434
2874.55,686.316
2876,679.488
2877.45,681.585
2878.9,683.171
2880.35,679.21
2881.8,663.981
2883.25,669.575
2884.7,670.734
2886.15,670.609
2887.6,668.768
2889.05,662.515
2890.5,673.398
2891.95,679.75
2893.4,673.531
2894.85,677.602
2896.3,677.291
2897.75,667.657
2899.2,666.166
2900.65,665.2
2902.1,660.966
2903.55,658.169
2905,658.916
2906.45,660.894
2907.9,662.756
2909.35,657.031
2910.8,645.298
2912.26,644.777
2913.71,651.265
2915.16,628.844
2916.61,654.962
2918.06,645.603
2919.51,631.032
2920.96,645.179
2922.41,642.185
2923.86,640.577
2925.31,634.943
2926.76,625.076
2928.21,620.637
2929.66,619.107
2931.11,615.591
2932.56,608.804
2934.01,622.516
2935.46,609.767
2936.91,609.762
2938.36,607.257
2939.81,600.134
2941.26,593.537
2942.71,599.134
2944.16,601.833
2945.61,599.723
2947.06,598.764
2948.51,600.945
2949.96,587.762
2951.41,586.079
2952.86,595.618
2954.31,585.443
2955.77,581.53
2957.22,589.008
2958.67,582.303
2960.12,572.818
2961.57,599.655
2963.02,580.891
2964.47,578.211
2965.92,575.965
2967.37,579.436
2968.82,577.854
2970.27,583.134
2971.72,568.892
2973.17,570.507
2974.62,569.849
2976.07,563.387
2977.52,563.925
2978.97,568.624
2980.42,562.969
2981.87,572.068
2983.32,576.966
2984.77,570.356
2986.22,560.981
2987.67,567.354
2989.12,572.024
2990.57,574.951
2992.02,569.2
2993.47,559.841
2994.92,564.861
2996.37,574.597
2997.82,572.02
2999.27,577.428
3000.73,557.214
3002.18,569.741
3003.63,558.837
3005.08,566.19
3006.53,563.367
3007.98,549.767
3009.43,547.043
3010.88,554.444
3012.33,564.046
3013.78,576.051
3015.23,550.747
3016.68,560.619
3018.13,552.455
3019.58,560.239
3021.03,561.45
3022.48,551.724
3023.93,563.537
3025.38,574.381
3026.83,557.607
3028.28,565.122
3029.73,579.842
3031.18,581.341
3032.63,571.587
3034.08,581.906
3035.53,584.977
3036.98,550.562
3038.43,575.101
3039.88,578.216
3041.33,573.855
3042.78,572.781
3044.23,564.553
3045.69,564.414
3047.14,560.846
3048.59,572.829
3050.04,580.63
3051.49,564.362
3052.94,562.76
3054.39,574.391
3055.84,584.148
3057.29,581.05
3058.74,571.99
3060.19,586.267
3061.64,593.377
3063.09,597.823
3064.54,601.332
3065.99,598.648
3067.44,583.526
3068.89,596.142
3070.34,607.319
3071.79,624.922
3073.24,598.318
3074.69,611.969
3076.14,610.902
3077.59,614.959
3079.04,633.275
3080.49,632.312
3081.94,645.496
3083.39,640.371
3084.84,656.038
3086.29,646.329
3087.74,652.536
3089.2,655.789
3090.65,666.829
3092.1,670.849
3093.55,673.799
3095,671.477
3096.45,676.056
3097.9,686.696
3099.35,702.793
3100.8,709.531
3102.25,702.445
3103.7,723.96
3105.15,728.369
3106.6,720.375
3108.05,738.579
3109.5,724.273
3110.95,738.375
3112.4,742.204
3113.85,764.183
3115.3,760.784
3116.75,769.384
3118.2,763.607
3119.65,775.884
3121.1,781.413
3122.55,783.237
3124,787.388
3125.45,784.229
3126.9,792.348
3128.35,804.72
3129.8,793.676
3131.25,795.054
3132.7,807.331
3134.16,801.291
3135.61,801.029
3137.06,815.217
3138.51,795.011
3139.96,807.937
3141.41,812.795
3142.86,803.378
3144.31,818.419
3145.76,818.675
3147.21,821.337
3148.66,809.396
3150.11,808.367
3151.56,796.214
3153.01,804.093
3154.46,818.441
3155.91,823.613
3157.36,832.192
3158.81,841.492
3160.26,816.442
3161.71,832.002
3163.16,840.748
3164.61,838.647
3166.06,830.237
3167.51,854.827
3168.96,848.233
3170.41,847.561
3171.86,860.488
3173.31,867.403
3174.76,872.094
3176.21,857.212
3177.67,871.174
3179.12,865.477
3180.57,877.907
3182.02,898.5
3183.47,886.741
3184.92,868.154
3186.37,881.329
3187.82,877.441
3189.27,863.07
3190.72,882.496
3192.17,866.309
3193.62,860.604
3195.07,856.308
3196.52,854.732
3197.97,834.446
3199.42,800.518
3200.87,817.062
3202.32,810.381
3203.77,797.943
3205.22,796.973
3206.67,785.075
3208.12,776.212
3209.57,759.858
3211.02,741.198
3212.47,757.91
3213.92,732.218
3215.37,711.768
3216.82,712.778
3218.27,698.315
3219.72,684.795
3221.17,686.334
3222.63,681.133
3224.08,679.631
3225.53,667.905
3226.98,662.884
3228.43,631.244
3229.88,651.232
3231.33,635.194
3232.78,618.671
3234.23,605.505
3235.68,610.989
3237.13,607.991
3238.58,605.916
3240.03,587.769
3241.48,579.686
3242.93,584.005
3244.38,591.396
3245.83,587.756
3247.28,589.226
3248.73,574.897
3250.18,580.44
3251.63,578.038
3253.08,577.396
3254.53,569.699
3255.98,548.865
3257.43,560.692
3258.88,560.424
3260.33,554.804
3261.78,554.294
3263.23,551.805
3264.68,564.66
3266.13,556.688
3267.59,543.736
3269.04,551.415
3270.49,561.199
3271.94,556.743
3273.39,541.511
3274.84,551.455
3276.29,546.04
3277.74,542.244
3279.19,555.972
3280.64,540.416
3282.09,547.73
3283.54,541.902
3284.99,549.341
3286.44,545.679
3287.89,540.652
3289.34,553.149
3290.79,553.226
3292.24,534.381
3293.69,557.328
3295.14,556.541
3296.59,547.219
3298.04,542.652
3299.49,541.289
3300.94,536.754
3302.39,544.613
3303.84,532.092
3305.29,540.164
3306.74,553.985
3308.19,543.661
3309.64,533.83
3311.09,538.53
3312.55,549.103
3314,545.512
3315.45,527.241
3316.9,535.874
3318.35,549.293
3319.8,529.516
3321.25,547.693
3322.7,537.088
3324.15,540.773
3325.6,547.633
3327.05,549.356
3328.5,534.92
3329.95,546.583
3331.4,552.73
3332.85,535.012
3334.3,530.351
3335.75,536.254
3337.2,540.222
3338.65,537.957
3340.1,539.78
3341.55,545.345
3343,544.609
3344.45,537.133
3345.9,543.233
3347.35,534.725
3348.8,526.175
3350.25,544.767
3351.7,538.752
3353.15,536.951
3354.6,544.475
3356.06,536.479
3357.51,541.234
3358.96,541.091
3360.41,536.742
3361.86,538.167
3363.31,534.011
3364.76,534.695
3366.21,539.663
3367.66,542.448
3369.11,543.087
3370.56,555.1
3372.01,550.842
3373.46,568.575
3374.91,544.998
3376.36,543.337
3377.81,538.838
3379.26,544.902
3380.71,532.218
3382.16,546.434
3383.61,541.909
3385.06,555.042
3386.51,545.983
3387.96,537.43
3389.41,524.862
3390.86,541.149
3392.31,545.56
3393.76,536.874
3395.21,544.875
3396.66,544.67
3398.11,558.579
3399.56,551.926
3401.02,552.923
3402.47,548.698
3403.92,537.961
3405.37,528.317
3406.82,551.125
3408.27,534.052
3409.72,538.045
3411.17,545.525
3412.62,547.674
3414.07,545.81
3415.52,549.482
3416.97,537.397
3418.42,550.378
3419.87,538.481
3421.32,541.671
3422.77,546.585
3424.22,553.938
3425.67,557.871
3427.12,560.658
3428.57,557.129
3430.02,545.571
3431.47,552.522
3432.92,557.854
3434.37,540.08
3435.82,549.721
3437.27,551.461
3438.72,549.941
3440.17,552.583
3441.62,542.618
3443.07,544.168
3444.52,550.333
3445.98,524.355
3447.43,555.211
3448.88,553.846
3450.33,549.65
3451.78,547.728
3453.23,552.727
3454.68,552.947
3456.13,550.424
3457.58,550.64
3459.03,545.319
3460.48,541.548
3461.93,563.931
3463.38,554.278
3464.83,559.689
3466.28,565.628
3467.73,566.045
3469.18,558.549
3470.63,550.003
3472.08,558.165
3473.53,567.62
3474.98,562.218
3476.43,540.966
3477.88,566.813
3479.33,563.738
3480.78,564.042
3482.23,556.309
3483.68,571.127
3485.13,536.01
3486.58,559.024
3488.03,569.377
3489.49,564.387
3490.94,548.409
3492.39,550.253
3493.84,557.523
3495.29,568.326
3496.74,568.111
3498.19,552.833
3499.64,562.463
3501.09,561.463
3502.54,570.127
3503.99,558.811
3505.44,561.601
3506.89,567.528
3508.34,572.035
3509.79,562.356
3511.24,565.84
3512.69,565.708
3514.14,562.164
3515.59,586.314
3517.04,569.503
3518.49,573.131
3519.94,572.001
3521.39,565.756
3522.84,574.646
3524.29,572.599
3525.74,570.679
3527.19,580.199
3528.64,561.356
3530.09,570.317
3531.54,575.339
3532.99,583.484
3534.45,579.549
3535.9,555.212
3537.35,574.099
3538.8,572.605
3540.25,569.39
3541.7,570.1
3543.15,566.012
3544.6,581.868
3546.05,567.476
3547.5,567.881
3548.95,574.051
3550.4,580.831
3551.85,576.06
3553.3,570.484
3554.75,562.569
3556.2,561.004
3557.65,575.931
3559.1,564.292
3560.55,571.645
3562,572.301
3563.45,572.973
3564.9,565.176
3566.35,575.593
3567.8,586.734
3569.25,579.107
3570.7,584.117
3572.15,580.358
3573.6,571.787
3575.05,568.648
3576.5,572.569
3577.96,577.111
3579.41,588.161
3580.86,574.007
3582.31,582.805
3583.76,584.808
3585.21,577.602
3586.66,570.375
3588.11,579.811
3589.56,582.258
3591.01,577.513
3592.46,599.57
3593.91,561.681
3595.36,563.663
3596.81,573.301
3598.26,585.247
3599.71,581.932
3601.16,579.24
3602.61,579.669
3604.06,585.646
3605.51,581.389
3606.96,592.279
3608.41,583.425
3609.86,597.483
3611.31,590.838
3612.76,583.757
3614.21,588.496
3615.66,589.27
3617.11,596.715
3618.56,579.891
3620.01,593.008
3621.46,606.581
3622.92,604.611
3624.37,593.07
3625.82,580.672
3627.27,592.108
3628.72,594.832
3630.17,587.519
3631.62,591.042
3633.07,583.096
3634.52,600.578
3635.97,582.102
3637.42,595.975
3638.87,597.945
3640.32,616.693
3641.77,594.509
3643.22,584.593
3644.67,606.387
3646.12,590.983
3647.57,604.92
3649.02,601.384
3650.47,596.78
3651.92,610.964
3653.37,603.808
3654.82,598.772
3656.27,597.533
3657.72,595.976
3659.17,595.395
3660.62,605.163
3662.07,604.734
3663.52,605.003
3664.97,597.113
3666.43,603.314
3667.88,621.512
3669.33,608.742
3670.78,607.683
3672.23,607.262
3673.68,612.971
3675.13,607.846
3676.58,603.773
3678.03,599.063
3679.48,600.594
3680.93,614.055
3682.38,609.628
3683.83,610.155
3685.28,598.761
3686.73,620.841
3688.18,610.453
3689.63,613.69
3691.08,606.165
3692.53,608.878
3693.98,611.835
3695.43,595.692
3696.88,616.99
3698.33,635.699
3699.78,617.908
3701.23,614.711
3702.68,613.093
3704.13,605.639
3705.58,604.903
3707.03,613.978
3708.48,606.424
3709.93,612.572
3711.39,616.638
3712.84,613.965
3714.29,629.491
3715.74,622.068
3717.19,620.276
3718.64,613.056
3720.09,619.246
3721.54,619.131
3722.99,623.246
3724.44,632.407
3725.89,627.201
3727.34,640.687
3728.79,637.256
3730.24,623.479
3731.69,616.826
3733.14,619.066
3734.59,615.955
3736.04,625.412
3737.49,616.615
3738.94,619.889
3740.39,620.515
3741.84,639.03
3743.29,640.712
3744.74,624.175
3746.19,629.65
3747.64,633.496
3749.09,628.896
3750.54,638.737
3751.99,636.498
3753.44,625.331
3754.89,633.112
3756.35,629.464
3757.8,628.19
3759.25,631.086
3760.7,625.519
3762.15,654.344
3763.6,641.196
3765.05,643.683
3766.5,642.483
3767.95,628.307
3769.4,639.933
3770.85,626.371
3772.3,637.743
3773.75,637.662
3775.2,642.038
3776.65,646.309
3778.1,649.625
3779.55,634.129
3781,634.358
3782.45,657.45
3783.9,646.588
3785.35,646.023
3786.8,649.179
3788.25,648.306
3789.7,668.704
3791.15,656.853
3792.6,641.079
3794.05,640.132
3795.5,654.603
3796.95,657.983
3798.4,636.917
3799.85,653.996
3801.31,656.709
3802.76,647.735
3804.21,647.771
3805.66,654.854
3807.11,654.825
3808.56,644.764
3810.01,641.891
3811.46,660.429
3812.91,646.785
3814.36,650.653
3815.81,671.525
3817.26,658.84
3818.71,663.488
3820.16,670.473
3821.61,663.3
3823.06,662.96
3824.51,659.416
3825.96,658.882
3827.41,657.83
3828.86,668.999
3830.31,667.182
3831.76,668.383
3833.21,679.867
3834.66,655.89
3836.11,654.35
3837.56,650.702
3839.01,662.151
3840.46,663.894
3841.91,669.254
3843.36,675.56
3844.82,668.201
3846.27,679.395
3847.72,677.615
3849.17,677.617
3850.62,679.604
3852.07,674.391
3853.52,671.758
3854.97,678.176
3856.42,661.821
3857.87,692.615
3859.32,683.037
3860.77,691.552
3862.22,677.371
3863.67,679.177
3865.12,667.074
3866.57,688.909
3868.02,684.307
3869.47,683.88
3870.92,695.159
3872.37,672.831
3873.82,694.055
3875.27,690.378
3876.72,696.995
3878.17,695.301
3879.62,680.862
3881.07,685.471
3882.52,702.38
3883.97,691.407
3885.42,700.375
3886.87,695.46
3888.32,694.621
3889.78,701.656
3891.23,701.925
3892.68,687.883
3894.13,687.883
3895.58,688.588
3897.03,705.902
3898.48,708.941
3899.93,712.358
3901.38,703.485
3902.83,713.53
3904.28,719.521
3905.73,706.63
3907.18,715.917
3908.63,710.913
3910.08,698.393
3911.53,706.817
3912.98,725.98
3914.43,713.212
3915.88,722.812
3917.33,718.939
3918.78,722.975
3920.23,711.825
3921.68,731.853
3923.13,714.011
3924.58,718.94
3926.03,733.553
3927.48,735.479
3928.93,716.025
3930.38,727.705
3931.83,750.499
3933.28,724.559
3934.74,742.445
3936.19,750.36
3937.64,744.05
3939.09,734.844
3940.54,721.584
3941.99,739.958
3943.44,747.486
3944.89,731.7
3946.34,732.473
3947.79,738.36
3949.24,729.026
3950.69,761.681
3952.14,748.157
3953.59,732.86
3955.04,754.328
3956.49,764.169
3957.94,752.716
3959.39,759.464
3960.84,781.953
3962.29,745.757
3963.74,770.376
3965.19,741.482
3966.64,775.176
3968.09,776.934
3969.54,767.014
3970.99,763.359
3972.44,760.383
3973.89,766.036
3975.34,777.657
3976.79,743.853
3978.25,778.269
3979.7,785.783
3981.15,769.173
3982.6,786.527
3984.05,790.065
3985.5,762.87
3986.95,788.533
3988.4,808.185
3989.85,783.966
3991.3,783.908
3992.75,786.979
3994.2,776.256
3995.65,789.861
3997.1,775.607
3998.55,797.17
4000,783.843
