0,47.7985
1.45033,47.7985
2.90065,47.7985
4.35098,47.7985
5.80131,47.7985
7.25163,39.4336
8.70196,88.9779
10.1523,61.2755
11.6026,47.9675
13.0529,41.625
14.5033,36.7148
15.9536,32.1331
17.4039,29.2419
18.8542,27.129
20.3046,28.0407
21.7549,27.9642
23.2052,24.6142
24.6555,21.3993
26.1059,21.9068
27.5562,21.2583
29.0065,19.133
30.4569,16.5639
31.9072,14.1508
33.3575,14.7577
34.8078,15.5273
36.2582,15.2388
37.7085,14.434
39.1588,14.8173
40.6091,12.5902
42.0595,10.0855
43.5098,9.94832
44.9601,13.0092
46.4104,14.8767
47.8608,18.8767
49.3111,24.7512
50.7614,30.4087
52.2117,48.7879
53.6621,89.5429
55.1124,152.071
56.5627,238.103
58.0131,357.477
59.4634,466.477
60.9137,568.797
62.364,659.051
63.8144,733.229
65.2647,801.842
66.715,839.388
68.1653,861.931
69.6157,878.742
71.066,898.032
72.5163,899.157
73.9666,899.223
75.417,896.726
76.8673,891.742
78.3176,886.896
79.7679,906.696
81.2183,932.451
82.6686,960.948
84.1189,989.001
85.5693,1005.18
87.0196,1016.02
88.4699,1009.79
89.9202,997.443
91.3706,996.014
92.8209,958.936
94.2712,941.172
95.7215,924.098
97.1719,899.198
98.6222,864.69
100.073,848.134
101.523,839.864
102.973,824.959
104.423,796.082
105.874,760.897
107.324,764.352
108.774,752.483
110.225,734.086
111.675,723.769
113.125,720.523
114.576,712.202
116.026,700.03
117.476,687.178
118.927,676.408
120.377,646.492
121.827,639.516
123.278,641.173
124.728,637.073
126.178,610.261
127.629,591.384
129.079,578.969
130.529,567.812
131.98,557.554
133.43,555.278
134.88,547.302
136.331,543.684
137.781,538.363
139.231,530.26
140.682,534.979
142.132,514.77
143.582,497.959
145.033,491.206
146.483,493.553
147.933,483.128
149.384,473.542
150.834,455.315
152.284,439.307
153.735,440.125
155.185,452.187
156.635,426.12
158.086,425.51
159.536,433.51
160.986,402.289
162.437,404.247
163.887,406.592
165.337,413.017
166.788,415.526
168.238,398.375
169.688,403.768
171.139,402.849
172.589,398.112
174.039,393.287
175.489,393.778
176.94,383.292
178.39,377.571
179.84,380.564
181.291,385.543
182.741,370.502
184.191,358.284
185.642,353.265
187.092,347.119
188.542,339.823
189.993,347.195
191.443,348.673
192.893,347.325
194.344,345.299
195.794,344.553
197.244,347.009
198.695,350.537
200.145,344.579
201.595,339.602
203.046,340.839
204.496,336.25
205.946,350.391
207.397,350.656
208.847,346.973
210.297,346.267
211.748,334.623
213.198,336.031
214.648,332.226
216.099,325.982
217.549,320.569
218.999,313.511
220.45,307.495
221.9,299.623
223.35,299.501
224.801,311.479
226.251,321.663
227.701,318.033
229.152,316.163
230.602,313.501
232.052,306.753
233.503,295.891
234.953,313.194
236.403,310.264
237.854,304.801
239.304,307.863
240.754,296.828
242.204,293.145
243.655,298.569
245.105,294.442
246.555,281.287
248.006,304.007
249.456,296.742
250.906,296.995
252.357,296.581
253.807,291.166
255.257,288.361
256.708,297.776
258.158,297.853
259.608,297.487
261.059,299.824
262.509,298.338
263.959,282.243
265.41,281.164
266.86,290.459
268.31,299.225
269.761,291.554
271.211,293.208
272.661,284.595
274.112,282.571
275.562,289.813
277.012,297.351
278.463,283.294
279.913,284.544
281.363,280.371
282.814,272.707
284.264,273.302
285.714,270.985
287.165,269.357
288.615,270.026
290.065,268.736
291.516,261.587
292.966,258.109
294.416,265.896
295.867,264.86
297.317,260.799
298.767,259.747
300.218,249.316
301.668,257.067
303.118,259.342
304.569,262.323
306.019,265.634
307.469,249.045
308.919,255.771
310.37,253.662
311.82,251.006
313.27,248.147
314.721,234.795
316.171,228.65
317.621,224.44
319.072,231.917
320.522,238.695
321.972,223.81
323.423,230.126
324.873,232.425
326.323,231.933
327.774,229.442
329.224,227.686
330.674,238.994
332.125,234.572
333.575,230.878
335.025,231.018
336.476,233.183
337.926,229.688
339.376,231.606
340.827,229.796
342.277,224.996
343.727,225.614
345.178,245.202
346.628,222.878
348.078,218.64
349.529,220.167
350.979,220.694
352.429,218.77
353.88,228.44
355.33,220.794
356.78,219.868
358.231,223.833
359.681,224.873
361.131,215.696
362.582,217.994
364.032,222.187
365.482,225.574
366.933,224.546
368.383,214.796
369.833,216.634
371.284,207.718
372.734,209.258
374.184,215.548
375.635,212.036
377.085,215.38
378.535,217.84
379.986,219.636
381.436,220.645
382.886,220.979
384.336,221.313
385.787,218.564
387.237,219.078
388.687,216.86
390.138,212.167
391.588,210.56
393.038,212.401
394.489,213.963
395.939,214.754
397.389,218.137
398.84,223.123
400.29,211.393
401.74,211.59
403.191,210.925
404.641,219.142
406.091,227.356
407.542,208.487
408.992,216.202
410.442,215.44
411.893,211.76
413.343,211.732
414.793,218.357
416.244,220.539
417.694,210.483
419.144,208.452
420.595,204.109
422.045,200.645
423.495,218.833
424.946,224.041
426.396,208.621
427.846,200.88
429.297,203.838
430.747,210.295
432.197,216.188
433.648,205.5
435.098,200.832
436.548,208.034
437.999,216.689
439.449,205.152
440.899,214.409
442.35,207.595
443.8,207.786
445.25,208.709
446.701,203.542
448.151,212.311
449.601,209.32
451.051,203.665
452.502,205.057
453.952,211.567
455.402,213.041
456.853,212.197
458.303,201.404
459.753,206.978
461.204,213.304
462.654,208.219
464.104,203.683
465.555,211.615
467.005,208.804
468.455,206.914
469.906,205.413
471.356,201.115
472.806,207.878
474.257,205.422
475.707,205.808
477.157,205.659
478.608,208.967
480.058,224.326
481.508,210.97
482.959,211.171
484.409,205.806
485.859,204.868
487.31,212.363
488.76,206.959
490.21,211.021
491.661,201.86
493.111,202.438
494.561,209.807
496.012,210.975
497.462,206.403
498.912,205.014
500.363,197.39
501.813,197.773
503.263,206.417
504.714,210.823
506.164,204.212
507.614,197.442
509.065,195.249
510.515,196.678
511.965,199.645
513.416,202.048
514.866,198.312
516.316,197.428
517.766,205.654
519.217,206.654
520.667,194.584
522.117,196.302
523.568,201.574
525.018,204.811
526.468,205.925
527.919,203.651
529.369,197.845
530.819,192.741
532.27,196.204
533.72,196.191
535.17,200.196
536.621,207.06
538.071,208.533
539.521,192.37
540.972,201.084
542.422,207.114
543.872,206.248
545.323,201.832
546.773,200.435
548.223,202.651
549.674,201.29
551.124,204.295
552.574,207.349
554.025,208.799
555.475,209.959
556.925,202.791
558.376,206.141
559.826,204.622
561.276,201.27
562.727,200.583
564.177,203.998
565.627,205.535
567.078,203.315
568.528,195.714
569.978,200.304
571.429,209.984
572.879,192.823
574.329,196.071
575.78,196.631
577.23,196.802
578.68,199.15
580.131,201.944
581.581,199.929
583.031,205.063
584.482,198.257
585.932,200.982
587.382,203.85
588.832,202.225
590.283,204.439
591.733,206.495
593.183,214.113
594.634,208.31
596.084,203.139
597.534,204.181
598.985,201.306
600.435,202.507
601.885,209.345
603.336,208.709
604.786,202.554
606.236,198.783
607.687,203.531
609.137,194.091
610.587,200.034
612.038,196.993
613.488,199.576
614.938,206.626
616.389,203.251
617.839,201.533
619.289,190.09
620.74,201.948
622.19,210.173
623.64,205.46
625.091,199.029
626.541,207.809
627.991,204.232
629.442,202.074
630.892,204.156
632.342,208.195
633.793,209.46
635.243,204.125
636.693,209.027
638.144,204.393
639.594,211.443
641.044,212.536
642.495,198.897
643.945,207.795
645.395,214.861
646.846,210.478
648.296,212.781
649.746,215.412
651.197,214.08
652.647,216.094
654.097,217.475
655.547,216.402
656.998,210.918
658.448,207.187
659.898,204.74
661.349,200.754
662.799,216.12
664.249,217.663
665.7,215.228
667.15,217.93
668.6,220.339
670.051,214.463
671.501,208.622
672.951,220.377
674.402,221.711
675.852,216.439
677.302,219.713
678.753,228.267
680.203,212.918
681.653,222.271
683.104,227.344
684.554,225.465
686.004,220.7
687.455,218.996
688.905,223.388
690.355,224.946
691.806,227.664
693.256,221.907
694.706,221.288
696.157,222.948
697.607,220.952
699.057,223.071
700.508,226.369
701.958,235.847
703.408,233.964
704.859,228.151
706.309,226.672
707.759,228.027
709.21,218.656
710.66,215.931
712.11,222.682
713.561,220.928
715.011,219.604
716.461,228.473
717.912,221.451
719.362,218.32
720.812,221.649
722.263,222.479
723.713,228.492
725.163,235.64
726.613,228.429
728.064,224.43
729.514,228.628
730.964,227.485
732.415,225.845
733.865,225.571
735.315,225.093
736.766,222.606
738.216,236.898
739.666,232.573
741.117,224.825
742.567,225.642
744.017,226.557
745.468,215.311
746.918,228.047
748.368,226.596
749.819,220.513
751.269,224.931
752.719,226.946
754.17,220.472
755.62,222.831
757.07,234.184
758.521,231.383
759.971,220.6
761.421,221.728
762.872,228.231
764.322,226.064
765.772,222.867
767.223,229.861
768.673,236.393
770.123,226.934
771.574,222.441
773.024,228.608
774.474,231.319
775.925,220.3
777.375,226.952
778.825,230.707
780.276,229.617
781.726,228.652
783.176,227.628
784.627,222.866
786.077,231.101
787.527,230.876
788.978,226.735
790.428,235.06
791.878,239.135
793.328,233.682
794.779,240.575
796.229,230.752
797.68,235.747
799.13,234.304
800.58,232.821
802.03,234.248
803.481,239.49
804.931,248.149
806.381,235.856
807.832,241.662
809.282,235.973
810.732,232.306
812.183,233.765
813.633,235.878
815.083,237.487
816.534,239.421
817.984,239.756
819.434,243.194
820.885,240.592
822.335,239.629
823.785,244.925
825.236,238.283
826.686,234.41
828.136,244.12
829.587,239.023
831.037,241.458
832.487,253.033
833.938,256.721
835.388,240.744
836.838,250.084
838.289,256.687
839.739,247.187
841.189,247.113
842.64,254.554
844.09,257.499
845.54,258.42
846.991,251.011
848.441,250.969
849.891,252.848
851.342,253.338
852.792,257.66
854.242,262.257
855.693,250.065
857.143,233.64
858.593,252.987
860.044,259.69
861.494,259.635
862.944,255.728
864.394,253.448
865.845,259.486
867.295,259.309
868.745,257.744
870.196,261.086
871.646,253.825
873.096,248.788
874.547,248.478
875.997,243.794
877.447,249.781
878.898,245.886
880.348,258.624
881.798,261.339
883.249,258.586
884.699,257.66
886.149,258.826
887.6,255.944
889.05,242.635
890.5,253.552
891.951,256.175
893.401,254.761
894.851,256.168
896.302,259.18
897.752,256.051
899.202,254.632
900.653,265.061
902.103,261.492
903.553,264.913
905.004,265.469
906.454,266.372
907.904,281.392
909.355,285.095
910.805,282.605
912.255,277.309
913.706,263.018
915.156,262.07
916.606,267.852
918.057,269.057
919.507,277.801
920.957,256.431
922.408,264.89
923.858,279.414
925.308,279.913
926.759,274.271
928.209,277.591
929.659,289.791
931.109,283.943
932.56,283.943
934.01,286.145
935.46,289.944
936.911,279.044
938.361,274.186
939.811,285.457
941.262,281.423
942.712,294.084
944.162,287.632
945.613,288.024
947.063,275.199
948.513,271.745
949.964,281.617
951.414,284.579
952.864,274.997
954.315,281.603
955.765,288.88
957.215,288.014
958.666,285.919
960.116,283.803
961.566,281.89
963.017,280.349
964.467,272.576
965.917,282.242
967.368,282.214
968.818,283.48
970.268,278.089
971.719,273.201
973.169,276.263
974.619,281.426
976.07,286.365
977.52,280.637
978.97,293.41
980.421,290.468
981.871,290.079
983.321,288.889
984.772,283.39
986.222,292.603
987.672,279.147
989.123,289.844
990.573,285.625
992.023,286.679
993.474,287.365
994.924,285.552
996.374,286.265
997.825,290.356
999.275,284.248
1000.73,293.506
1002.18,291.558
1003.63,298.081
1005.08,303.736
1006.53,306.034
1007.98,307.327
1009.43,302.001
1010.88,297.143
1012.33,300.282
1013.78,317.688
1015.23,313.407
1016.68,309.379
1018.13,312.65
1019.58,314.023
1021.03,312.479
1022.48,308.226
1023.93,325.701
1025.38,324.038
1026.83,334.233
1028.28,330.596
1029.73,324.107
1031.18,327.401
1032.63,322.988
1034.08,324.484
1035.53,327.731
1036.98,348.664
1038.43,352.869
1039.88,348.217
1041.33,349.926
1042.78,352.397
1044.23,345.062
1045.69,358.567
1047.14,353.871
1048.59,350.854
1050.04,356.283
1051.49,354.959
1052.94,358.235
1054.39,368.172
1055.84,372.508
1057.29,370.124
1058.74,378.625
1060.19,382.341
1061.64,378.011
1063.09,388.026
1064.54,395.329
1065.99,397.149
1067.44,401.535
1068.89,409.277
1070.34,422.093
1071.79,416.296
1073.24,410.991
1074.69,403.068
1076.14,405.637
1077.59,414.334
1079.04,420.265
1080.49,421.456
1081.94,419.664
1083.39,404.973
1084.84,431.837
1086.29,429.46
1087.74,417.881
1089.2,421.821
1090.65,426.574
1092.1,418.917
1093.55,414.31
1095,412.953
1096.45,407.686
1097.9,405.978
1099.35,408.464
1100.8,407.146
1102.25,412.212
1103.7,403.515
1105.15,387.519
1106.6,420.633
1108.05,417.298
1109.5,399.269
1110.95,398.135
1112.4,396.333
1113.85,399.182
1115.3,402.561
1116.75,400.107
1118.2,394.099
1119.65,392.397
1121.1,382.433
1122.55,399.192
1124,385.894
1125.45,381.671
1126.9,388.442
1128.35,387.905
1129.8,384.923
1131.25,388.814
1132.7,374.692
1134.16,387.639
1135.61,393.295
1137.06,377.802
1138.51,377.516
1139.96,373.644
1141.41,372.446
1142.86,372.781
1144.31,368.135
1145.76,378.029
1147.21,373.792
1148.66,365.926
1150.11,377.528
1151.56,371.901
1153.01,361.371
1154.46,362.513
1155.91,367.607
1157.36,367.898
1158.81,378.338
1160.26,376.071
1161.71,354.822
1163.16,374.266
1164.61,370.24
1166.06,369.175
1167.51,374.009
1168.96,373.939
1170.41,368.51
1171.86,367.331
1173.31,364.163
1174.76,360.315
1176.21,368.112
1177.66,365.45
1179.12,365.055
1180.57,367.174
1182.02,370.178
1183.47,370.677
1184.92,369.954
1186.37,380.301
1187.82,370.378
1189.27,376.803
1190.72,374.648
1192.17,371.479
1193.62,370.378
1195.07,363.947
1196.52,364.282
1197.97,378.697
1199.42,382.756
1200.87,378.997
1202.32,382.126
1203.77,362.375
1205.22,374.515
1206.67,375.993
1208.12,366.993
1209.57,368.053
1211.02,374.752
1212.47,373.554
1213.92,382.446
1215.37,371.328
1216.82,382.758
1218.27,379.672
1219.72,388.558
1221.17,387.398
1222.63,379.889
1224.08,380.57
1225.53,383.879
1226.98,374.033
1228.43,369.136
1229.88,391.741
1231.33,375.491
1232.78,394.624
1234.23,387.9
1235.68,394.094
1237.13,399.193
1238.58,400.207
1240.03,401.673
1241.48,399.5
1242.93,413.29
1244.38,399.808
1245.83,387.785
1247.28,395.768
1248.73,415.754
1250.18,413.728
1251.63,403.395
1253.08,405.638
1254.53,413.021
1255.98,412.432
1257.43,424.131
1258.88,430.835
1260.33,419.719
1261.78,428.721
1263.23,433.148
1264.68,427.758
1266.13,431.472
1267.59,443.709
1269.04,454.531
1270.49,457.55
1271.94,451.673
1273.39,471.856
1274.84,466.096
1276.29,466.025
1277.74,478.844
1279.19,478.673
1280.64,489.898
1282.09,498.825
1283.54,507.304
1284.99,521.897
1286.44,524.086
1287.89,531.134
1289.34,515.454
1290.79,549.29
1292.24,562.085
1293.69,565.383
1295.14,580.768
1296.59,600.512
1298.04,609.701
1299.49,619.615
1300.94,644.142
1302.39,660.48
1303.84,662.452
1305.29,674.183
1306.74,697.21
1308.19,709.251
1309.64,734.123
1311.09,766.452
1312.55,794.746
1314,815.734
1315.45,841.186
1316.9,872.442
1318.35,887.586
1319.8,925.166
1321.25,937.854
1322.7,947.298
1324.15,993.592
1325.6,992.844
1327.05,988.336
1328.5,987.909
1329.95,994.306
1331.4,1009.79
1332.85,1018.2
1334.3,1011.04
1335.75,1012.23
1337.2,978.21
1338.65,970.334
1340.1,940.301
1341.55,937.09
1343,916.338
1344.45,883.562
1345.9,868.936
1347.35,861.479
1348.8,830.65
1350.25,789.723
1351.7,761.433
1353.15,755.193
1354.6,761.186
1356.06,738.033
1357.51,690.371
1358.96,665.018
1360.41,662.524
1361.86,656.77
1363.31,646.387
1364.76,640.781
1366.21,625.881
1367.66,594.011
1369.11,587.584
1370.56,597.163
1372.01,582.144
1373.46,581.028
1374.91,569.31
1376.36,574.209
1377.81,567.882
1379.26,552.808
1380.71,544.952
1382.16,545.462
1383.61,550.835
1385.06,537.115
1386.51,518.256
1387.96,537.055
1389.41,538.81
1390.86,549.183
1392.31,547.072
1393.76,530.073
1395.21,535.79
1396.66,533.71
1398.11,528.014
1399.56,548.291
1401.02,551.832
1402.47,548.815
1403.92,545.31
1405.37,553.043
1406.82,557.675
1408.27,557.411
1409.72,545.472
1411.17,561.316
1412.62,566.376
1414.07,549.077
1415.52,546.413
1416.97,562.22
1418.42,565.607
1419.87,578.562
1421.32,578.957
1422.77,583.482
1424.22,567.228
1425.67,575.683
1427.12,603.212
1428.57,588.779
1430.02,587.898
1431.47,597.506
1432.92,599.614
1434.37,603.236
1435.82,612.78
1437.27,623.128
1438.72,646.856
1440.17,631.325
1441.62,624.506
1443.07,636.738
1444.53,625.592
1445.98,643.595
1447.43,661.482
1448.88,668.792
1450.33,661.128
1451.78,659.354
1453.23,678.974
1454.68,698.051
1456.13,698.194
1457.58,703.843
1459.03,712.926
1460.48,726.97
1461.93,710.597
1463.38,745.221
1464.83,757.91
1466.28,757.68
1467.73,766.895
1469.18,779.432
1470.63,799.789
1472.08,825.78
1473.53,840.751
1474.98,846.409
1476.43,855.5
1477.88,875.112
1479.33,864.222
1480.78,902.508
1482.23,920.723
1483.68,935.366
1485.13,971.673
1486.58,983.983
1488.03,992.064
1489.49,1026.29
1490.94,1055.17
1492.39,1064.92
1493.84,1083.9
1495.29,1110.27
1496.74,1160.19
1498.19,1181.47
1499.64,1226.68
1501.09,1221.53
1502.54,1301.64
1503.99,1355.97
1505.44,1396.34
1506.89,1455.13
1508.34,1513.85
1509.79,1571.55
1511.24,1638.11
1512.69,1716.54
1514.14,1806.76
1515.59,1902.81
1517.04,1999.12
1518.49,2103.29
1519.94,2219.13
1521.39,2384.07
1522.84,2563.87
1524.29,2714.93
1525.74,2881.56
1527.19,3140.02
1528.64,3380.1
1530.09,3610.23
1531.54,3888.36
1532.99,4206.4
1534.45,4560.44
1535.9,4943.99
1537.35,5305.19
1538.8,5730.16
1540.25,6108.22
1541.7,6600.11
1543.15,7097.74
1544.6,7682.26
1546.05,8099.13
1547.5,8552.05
1548.95,9036.74
1550.4,9573.5
1551.85,10013.9
1553.3,10029.8
1554.75,10046.2
1556.2,10075
1557.65,10099.6
1559.1,10117.7
1560.55,10181.7
1562,10150.5
1563.45,10142.5
1564.9,10137.9
1566.35,10119
1567.8,10040.6
1569.25,9543.69
1570.7,8988.95
1572.15,8426.64
1573.6,7874.86
1575.05,7336.38
1576.5,6783.81
1577.96,6241.29
1579.41,5761.59
1580.86,5332.42
1582.31,4906.39
1583.76,4490.51
1585.21,4191.79
1586.66,3871.76
1588.11,3625.61
1589.56,3368.33
1591.01,3149.94
1592.46,2930.89
1593.91,2771.85
1595.36,2591.77
1596.81,2454.59
1598.26,2332.37
1599.71,2199.81
1601.16,2089.44
1602.61,1987.21
1604.06,1882.39
1605.51,1791.19
1606.96,1710.25
1608.41,1623.42
1609.86,1576.39
1611.31,1504.93
1612.76,1429.72
1614.21,1397.23
1615.66,1340.24
1617.11,1285.02
1618.56,1239.59
1620.01,1204.94
1621.46,1176.5
1622.92,1135.5
1624.37,1093.49
1625.82,1055.08
1627.27,1037.88
1628.72,1020.57
1630.17,978.818
1631.62,956.455
1633.07,958.089
1634.52,928.098
1635.97,928.32
1637.42,912.535
1638.87,874.602
1640.32,864.912
1641.77,859.451
1643.22,846.22
1644.67,828.638
1646.12,812.868
1647.57,807.189
1649.02,793.402
1650.47,778.825
1651.92,771.58
1653.37,771.769
1654.82,764.44
1656.27,769.644
1657.72,748.854
1659.17,744.884
1660.62,722.833
1662.07,713.132
1663.52,700.304
1664.97,707.393
1666.42,687.594
1667.88,688.437
1669.33,671.035
1670.78,660.053
1672.23,674.184
1673.68,674.751
1675.13,668.782
1676.58,659.11
1678.03,658.654
1679.48,663.887
1680.93,652.048
1682.38,635.428
1683.83,645.246
1685.28,627.492
1686.73,617.487
1688.18,606.214
1689.63,611.561
1691.08,626.649
1692.53,623.455
1693.98,606.36
1695.43,609.074
1696.88,617.585
1698.33,614.232
1699.78,609.935
1701.23,607.303
1702.68,611.637
1704.13,601.482
1705.58,609.182
1707.03,599.951
1708.48,611.18
1709.93,580.816
1711.39,586.762
1712.84,609.426
1714.29,593.163
1715.74,584.492
1717.19,591.819
1718.64,600.821
1720.09,593.155
1721.54,598.817
1722.99,599.318
1724.44,586.759
1725.89,592.337
1727.34,595.282
1728.79,581.824
1730.24,587.966
1731.69,586.771
1733.14,584.064
1734.59,572.556
1736.04,596.029
1737.49,578.408
1738.94,563.212
1740.39,558.132
1741.84,552.284
1743.29,551.477
1744.74,562.217
1746.19,562.584
1747.64,565.147
1749.09,550.662
1750.54,559.944
1751.99,551.848
1753.44,532.292
1754.89,538.258
1756.35,544.951
1757.8,534.297
1759.25,538.013
1760.7,543.127
1762.15,523.986
1763.6,531.622
1765.05,528.769
1766.5,532.499
1767.95,521.513
1769.4,518.283
1770.85,514.13
1772.3,528.086
1773.75,507.561
1775.2,522.122
1776.65,506.054
1778.1,504.253
1779.55,509.3
1781,503.263
1782.45,509.452
1783.9,512.038
1785.35,510.618
1786.8,510.028
1788.25,517.757
1789.7,510.77
1791.15,502.684
1792.6,507.193
1794.05,495.043
1795.5,496.571
1796.95,502.6
1798.4,514.814
1799.85,517.754
1801.31,503.228
1802.76,489.769
1804.21,493.517
1805.66,503.169
1807.11,502.577
1808.56,485.014
1810.01,490.533
1811.46,478.711
1812.91,476.189
1814.36,494.908
1815.81,496.123
1817.26,495.343
1818.71,483.219
1820.16,481.38
1821.61,487.897
1823.06,486.779
1824.51,491.548
1825.96,495.515
1827.41,495.345
1828.86,497.605
1830.31,495.696
1831.76,502.352
1833.21,504.076
1834.66,491.291
1836.11,504.23
1837.56,494.197
1839.01,495.161
1840.46,503.727
1841.91,501.581
1843.36,517.925
1844.82,508.656
1846.27,502.715
1847.72,499.664
1849.17,514.003
1850.62,505.464
1852.07,522.073
1853.52,504.931
1854.97,507.961
1856.42,513.39
1857.87,517.938
1859.32,519.95
1860.77,515.252
1862.22,502.75
1863.67,505.54
1865.12,510.321
1866.57,515.16
1868.02,514.567
1869.47,504.045
1870.92,506.931
1872.37,513.973
1873.82,515.602
1875.27,520.22
1876.72,506.999
1878.17,498.665
1879.62,500.321
1881.07,505.292
1882.52,508.77
1883.97,499.209
1885.42,504.071
1886.87,490.542
1888.32,500.465
1889.78,509.04
1891.23,477.144
1892.68,483.715
1894.13,483.708
1895.58,487.708
1897.03,485.357
1898.48,490.222
1899.93,479.675
1901.38,474.025
1902.83,475.207
1904.28,477.358
1905.73,472.367
1907.18,482.105
1908.63,479.392
1910.08,488.513
1911.53,481.338
1912.98,468.544
1914.43,475.639
1915.88,477.467
1917.33,473.456
1918.78,474.011
1920.23,474.663
1921.68,473.695
1923.13,467.893
1924.58,470.244
1926.03,473.462
1927.48,470.344
1928.93,478.035
1930.38,468.875
1931.83,481.853
1933.29,462.607
1934.74,470.475
1936.19,469.782
1937.64,462.749
1939.09,466.703
1940.54,464.925
1941.99,477.663
1943.44,466.575
1944.89,470.761
1946.34,472.567
1947.79,474.769
1949.24,460.711
1950.69,477.256
1952.14,480.961
1953.59,488.765
1955.04,493.869
1956.49,475.58
1957.94,479.43
1959.39,476.021
1960.84,464.535
1962.29,485.316
1963.74,477.639
1965.19,486.286
1966.64,488.914
1968.09,475.327
1969.54,473.951
1970.99,472.243
1972.44,475.2
1973.89,481.162
1975.34,488.805
1976.79,498.399
1978.25,499.517
1979.7,493.561
1981.15,491.868
1982.6,496.246
1984.05,497.707
1985.5,487.944
1986.95,485.545
1988.4,493.066
1989.85,487.751
1991.3,492.659
1992.75,493.563
1994.2,483.581
1995.65,495.882
1997.1,479.499
1998.55,483.642
2000,480.34
2001.45,490.86
2002.9,492.961
2004.35,504.414
2005.8,496.282
2007.25,485.574
2008.7,489.571
2010.15,485.115
2011.6,477.695
2013.05,472.694
2014.5,474.664
2015.95,483.966
2017.4,478.669
2018.85,474.342
2020.3,486.982
2021.75,494.228
2023.21,495.807
2024.66,489.431
2026.11,465.934
2027.56,500.211
2029.01,471.186
2030.46,477.672
2031.91,465.408
2033.36,483.148
2034.81,460.449
2036.26,496.278
2037.71,469.744
2039.16,477.834
2040.61,475.173
2042.06,459.246
2043.51,476.957
2044.96,476.522
2046.41,456.738
2047.86,456.999
2049.31,479.146
2050.76,453.824
2052.21,456.56
2053.66,448.988
2055.11,456.076
2056.56,465.789
2058.01,465.678
2059.46,462.676
2060.91,450.765
2062.36,448.435
2063.81,451.665
2065.26,451.936
2066.72,458.068
2068.17,456.065
2069.62,450.4
2071.07,458.654
2072.52,447.779
2073.97,448.713
2075.42,451.58
2076.87,452.656
2078.32,463.412
2079.77,459.269
2081.22,452.534
2082.67,443.71
2084.12,446.86
2085.57,448.377
2087.02,441.324
2088.47,447.894
2089.92,448.633
2091.37,449.152
2092.82,446.342
2094.27,450.875
2095.72,453.317
2097.17,448.996
2098.62,451.228
2100.07,441.981
2101.52,453.108
2102.97,454.657
2104.42,448.518
2105.87,453.952
2107.32,456.786
2108.77,458.058
2110.22,462.058
2111.68,464.993
2113.13,463.527
2114.58,455.48
2116.03,451.588
2117.48,451.747
2118.93,456.962
2120.38,462.767
2121.83,459.826
2123.28,462.509
2124.73,467.251
2126.18,468.353
2127.63,465.783
2129.08,463.945
2130.53,468.735
2131.98,470.652
2133.43,457.506
2134.88,459.797
2136.33,470.41
2137.78,463.934
2139.23,462.174
2140.68,464.531
2142.13,466.417
2143.58,478.754
2145.03,473.94
2146.48,471.386
2147.93,471.434
2149.38,471.049
2150.83,479.79
2152.28,476.627
2153.73,477.34
2155.18,482.033
2156.64,481.917
2158.09,476.558
2159.54,487.557
2160.99,486.205
2162.44,483.438
2163.89,494.238
2165.34,490.072
2166.79,487.623
2168.24,485.248
2169.69,486.865
2171.14,490.791
2172.59,485.591
2174.04,489.547
2175.49,502.63
2176.94,496.54
2178.39,500.909
2179.84,503.38
2181.29,498.529
2182.74,493.246
2184.19,498.762
2185.64,492.245
2187.09,492.31
2188.54,491.25
2189.99,493.752
2191.44,493.858
2192.89,495.447
2194.34,501.109
2195.79,510.259
2197.24,499.504
2198.69,504.138
2200.15,500.407
2201.6,501.633
2203.05,492.518
2204.5,494.532
2205.95,503.584
2207.4,507.116
2208.85,501.529
2210.3,504.628
2211.75,513.62
2213.2,525.271
2214.65,505.43
2216.1,517.938
2217.55,516.168
2219,505.002
2220.45,516.788
2221.9,515.032
2223.35,518.252
2224.8,525.629
2226.25,535.438
2227.7,515.903
2229.15,524.591
2230.6,533.573
2232.05,518.713
2233.5,513.214
2234.95,506.456
2236.4,530.521
2237.85,537.397
2239.3,522.727
2240.75,527.249
2242.2,531.623
2243.65,516.907
2245.11,532.463
2246.56,540.73
2248.01,534.776
2249.46,527.662
2250.91,541.084
2252.36,541.232
2253.81,556.878
2255.26,542.328
2256.71,532.679
2258.16,541.915
2259.61,554.98
2261.06,545.815
2262.51,531.647
2263.96,543.194
2265.41,557.274
2266.86,548.701
2268.31,558.991
2269.76,553.483
2271.21,545.755
2272.66,559.984
2274.11,557.42
2275.56,548.503
2277.01,554.184
2278.46,555.523
2279.91,555.523
2281.36,552.705
2282.81,565.561
2284.26,570.257
2285.71,564.321
2287.16,556.685
2288.61,569.299
2290.07,575.756
2291.52,585.466
2292.97,580.914
2294.42,583.356
2295.87,582.716
2297.32,572.819
2298.77,575.439
2300.22,577.882
2301.67,565.513
2303.12,589.336
2304.57,591.773
2306.02,590.727
2307.47,575.734
2308.92,582.547
2310.37,603.067
2311.82,599.111
2313.27,591.744
2314.72,582.022
2316.17,593.177
2317.62,594.264
2319.07,628.071
2320.52,615.001
2321.97,608.139
2323.42,628.301
2324.87,615.028
2326.32,621.54
2327.77,627.85
2329.22,623.504
2330.67,623.136
2332.12,637.223
2333.57,637.909
2335.03,647.625
2336.48,622.436
2337.93,634.297
2339.38,646.391
2340.83,645.47
2342.28,655.646
2343.73,657.573
2345.18,653.989
2346.63,666.501
2348.08,656.45
2349.53,656.849
2350.98,681.16
2352.43,682.45
2353.88,692.243
2355.33,690.224
2356.78,693.323
2358.23,708.909
2359.68,707.699
2361.13,699.72
2362.58,702.251
2364.03,725.42
2365.48,727.969
2366.93,763.196
2368.38,725.322
2369.83,742.711
2371.28,739.996
2372.73,767.102
2374.18,771.606
2375.63,781.218
2377.08,794.312
2378.54,798.153
2379.99,808.323
2381.44,821.062
2382.89,827.447
2384.34,832.645
2385.79,833.385
2387.24,849.817
2388.69,857.135
2390.14,874.258
2391.59,895.774
2393.04,893.606
2394.49,880.556
2395.94,891.553
2397.39,923.302
2398.84,955.338
2400.29,937.739
2401.74,959.716
2403.19,961.292
2404.64,989.978
2406.09,1002.88
2407.54,983.72
2408.99,991.85
2410.44,1001.24
2411.89,990.726
2413.34,1019.85
2414.79,1035.52
2416.24,1020.41
2417.69,1010.57
2419.14,1022.74
2420.59,1019.85
2422.04,992.491
2423.5,1011.44
2424.95,1021.65
2426.4,1005.22
2427.85,994.298
2429.3,1000.2
2430.75,1009.6
2432.2,1008.74
2433.65,996.564
2435.1,974.753
2436.55,996.441
2438,979.713
2439.45,979.787
2440.9,988.508
2442.35,974.843
2443.8,976.797
2445.25,961.695
2446.7,977.052
2448.15,964.101
2449.6,956.422
2451.05,943.299
2452.5,949.311
2453.95,930.414
2455.4,952.661
2456.85,933.132
2458.3,933.625
2459.75,942.511
2461.2,946.527
2462.65,936.737
2464.1,936.499
2465.55,929.108
2467.01,928.049
2468.46,933.009
2469.91,933.157
2471.36,928.353
2472.81,932.533
2474.26,937.148
2475.71,927.326
2477.16,943.94
2478.61,948.744
2480.06,961.079
2481.51,956.398
2482.96,957.219
2484.41,937.953
2485.86,960.98
2487.31,972.108
2488.76,967.936
2490.21,963.304
2491.66,960.52
2493.11,959.247
2494.56,969.012
2496.01,952.792
2497.46,951.002
2498.91,960.98
2500.36,963.526
2501.81,957.712
2503.26,985.346
2504.71,988.451
2506.16,999.513
2507.61,1019.49
2509.06,982.456
2510.51,1030.28
2511.97,1012.57
2513.42,1023.25
2514.87,1037.68
2516.32,1051.4
2517.77,1050.18
2519.22,1057.18
2520.67,1076.41
2522.12,1085.61
2523.57,1102.21
2525.02,1099.5
2526.47,1111.68
2527.92,1117.42
2529.37,1099.72
2530.82,1126.8
2532.27,1150.28
2533.72,1143.8
2535.17,1152.41
2536.62,1171.84
2538.07,1202.2
2539.52,1185.3
2540.97,1220.15
2542.42,1224.2
2543.87,1278.71
2545.32,1288.02
2546.77,1282.53
2548.22,1311.52
2549.67,1328.53
2551.12,1341.39
2552.57,1343.67
2554.02,1374.21
2555.48,1403.27
2556.93,1439.34
2558.38,1456.78
2559.83,1472.97
2561.28,1496.7
2562.73,1551.8
2564.18,1568.63
2565.63,1598.12
2567.08,1637.38
2568.53,1658.57
2569.98,1705.8
2571.43,1768.78
2572.88,1802.26
2574.33,1801.07
2575.78,1857.65
2577.23,1906.61
2578.68,1945.49
2580.13,2000.56
2581.58,2045.36
2583.03,2082.18
2584.48,2142.35
2585.93,2194.17
2587.38,2238.12
2588.83,2326.63
2590.28,2414.6
2591.73,2505.56
2593.18,2536.2
2594.63,2603.26
2596.08,2696.65
2597.53,2768.53
2598.98,2890.27
2600.44,2972.5
2601.89,3081.24
2603.34,3191.59
2604.79,3284.5
2606.24,3409.28
2607.69,3495.03
2609.14,3638.96
2610.59,3712.56
2612.04,3866.1
2613.49,3968.91
2614.94,4127.31
2616.39,4252.73
2617.84,4348.36
2619.29,4484.08
2620.74,4611.72
2622.19,4740.69
2623.64,4904.5
2625.09,4984.43
2626.54,5110.49
2627.99,5238.1
2629.44,5389.25
2630.89,5529.79
2632.34,5660.25
2633.79,5756.98
2635.24,5928.15
2636.69,5966.22
2638.14,6059.36
2639.59,6182.25
2641.04,6219.11
2642.49,6297.58
2643.94,6343.11
2645.4,6361.44
2646.85,6388.29
2648.3,6402.09
2649.75,6358.27
2651.2,6367.23
2652.65,6288.38
2654.1,6318.94
2655.55,6228.43
2657,6173.68
2658.45,6068.5
2659.9,5962.47
2661.35,5852.37
2662.8,5756.26
2664.25,5622.53
2665.7,5542.17
2667.15,5444.36
2668.6,5274.63
2670.05,5166.43
2671.5,5046.17
2672.95,4832.49
2674.4,4747.19
2675.85,4601.05
2677.3,4434.15
2678.75,4312.83
2680.2,4218.25
2681.65,4021.76
2683.1,3910.58
2684.55,3778.92
2686,3680.33
2687.45,3545.01
2688.91,3400.42
2690.36,3279.37
2691.81,3180.09
2693.26,3075.41
2694.71,2918.98
2696.16,2829.68
2697.61,2792.5
2699.06,2650.31
2700.51,2582.65
2701.96,2538.9
2703.41,2445.61
2704.86,2333.06
2706.31,2268.9
2707.76,2174.07
2709.21,2143.46
2710.66,2075.21
2712.11,1999.5
2713.56,1948.96
2715.01,1915.84
2716.46,1854.87
2717.91,1810.88
2719.36,1754.07
2720.81,1727.11
2722.26,1693.37
2723.71,1636.24
2725.16,1585.06
2726.61,1554.5
2728.06,1533.56
2729.51,1511.44
2730.96,1472.42
2732.41,1421.77
2733.87,1422.47
2735.32,1374.01
2736.77,1359.71
2738.22,1334.87
2739.67,1317.85
2741.12,1299.91
2742.57,1258.47
2744.02,1247.11
2745.47,1245.51
2746.92,1207.51
2748.37,1208.12
2749.82,1176.6
2751.27,1179.87
2752.72,1147.37
2754.17,1151.34
2755.62,1122.39
2757.07,1093.43
2758.52,1085.78
2759.97,1081.21
2761.42,1054.63
2762.87,1046.86
2764.32,1051.34
2765.77,1034.38
2767.22,997.295
2768.67,1035.45
2770.12,1009.89
2771.57,1003.08
2773.02,988.837
2774.47,990.791
2775.92,985.519
2777.38,969.209
2778.83,968.322
2780.28,955.264
2781.73,947.397
2783.18,933.387
2784.63,934.635
2786.08,926.422
2787.53,896.94
2788.98,911.878
2790.43,921.668
2791.88,908.388
2793.33,895.955
2794.78,881.953
2796.23,879.53
2797.68,888.325
2799.13,876.409
2800.58,877.37
2802.03,866.02
2803.48,859.459
2804.93,868.139
2806.38,854.228
2807.83,837.335
2809.28,843.724
2810.73,833.869
2812.18,841.326
2813.63,841.901
2815.08,848.733
2816.53,826.231
2817.98,832.818
2819.43,841.893
2820.88,826.626
2822.33,813.98
2823.79,821.211
2825.24,811.232
2826.69,803.976
2828.14,798.584
2829.59,800.311
2831.04,812.127
2832.49,818.035
2833.94,781.022
2835.39,778.947
2836.84,781.352
2838.29,774.513
2839.74,774.517
2841.19,779.312
2842.64,793.042
2844.09,790.126
2845.54,781.162
2846.99,776.648
2848.44,774.508
2849.89,762.939
2851.34,775.547
2852.79,767.134
2854.24,758.614
2855.69,769.434
2857.14,788.168
2858.59,767.492
2860.04,757.128
2861.49,767.967
2862.94,752.766
2864.39,754.63
2865.84,771.127
2867.3,767.215
2868.75,765.702
2870.2,765.531
2871.65,751.792
2873.1,757.029
2874.55,772.658
2876,764.971
2877.45,767.331
2878.9,769.117
2880.35,764.657
2881.8,747.513
2883.25,753.811
2884.7,755.116
2886.15,754.975
2887.6,752.902
2889.05,745.862
2890.5,758.115
2891.95,765.266
2893.4,758.264
2894.85,762.847
2896.3,762.497
2897.75,751.652
2899.2,749.973
2900.65,748.886
2902.1,744.118
2903.55,740.97
2905,741.811
2906.45,744.038
2907.9,746.134
2909.35,739.688
2910.8,726.479
2912.26,725.893
2913.71,733.197
2915.16,707.956
2916.61,737.359
2918.06,726.823
2919.51,710.419
2920.96,726.345
2922.41,722.975
2923.86,721.165
2925.31,714.821
2926.76,703.713
2928.21,698.716
2929.66,696.994
2931.11,693.036
2932.56,685.394
2934.01,700.831
2935.46,686.478
2936.91,686.473
2938.36,683.653
2939.81,675.633
2941.26,668.207
2942.71,674.508
2944.16,677.546
2945.61,675.17
2947.06,674.091
2948.51,676.547
2949.96,661.705
2951.41,659.811
2952.86,670.549
2954.31,659.095
2955.77,654.69
2957.22,663.108
2958.67,655.559
2960.12,644.882
2961.57,675.094
2963.02,653.97
2964.47,650.952
2965.92,648.424
2967.37,652.332
2968.82,650.55
2970.27,656.495
2971.72,640.461
2973.17,642.28
2974.62,641.538
2976.07,634.264
2977.52,634.869
2978.97,640.159
2980.42,633.793
2981.87,644.037
2983.32,649.551
2984.77,642.109
2986.22,631.554
2987.67,638.729
2989.12,643.987
2990.57,647.282
2992.02,640.808
2993.47,630.272
2994.92,635.923
2996.37,646.884
2997.82,643.982
2999.27,650.071
3000.73,627.314
3002.18,641.417
3003.63,629.142
3005.08,637.419
3006.53,634.241
3007.98,618.93
3009.43,615.864
3010.88,624.195
3012.33,635.005
3013.78,648.521
3015.23,620.033
3016.68,631.148
3018.13,621.957
3019.58,630.719
3021.03,632.083
3022.48,621.134
3023.93,634.433
3025.38,646.641
3026.83,627.757
3028.28,636.217
3029.73,652.788
3031.18,654.476
3032.63,643.495
3034.08,655.112
3035.53,658.57
3036.98,619.825
3038.43,647.451
3039.88,650.958
3041.33,646.049
3042.78,644.84
3044.23,635.577
3045.69,635.42
3047.14,631.403
3048.59,644.894
3050.04,653.676
3051.49,635.361
3052.94,633.557
3054.39,646.652
3055.84,657.636
3057.29,654.149
3058.74,643.949
3060.19,660.022
3061.64,668.026
3063.09,673.032
3064.54,676.982
3065.99,673.961
3067.44,656.936
3068.89,671.139
3070.34,683.723
3071.79,703.54
3073.24,673.589
3074.69,688.957
3076.14,687.756
3077.59,692.323
3079.04,712.944
3080.49,711.86
3081.94,726.702
3083.39,720.933
3084.84,738.571
3086.29,727.64
3087.74,734.628
3089.2,738.29
3090.65,750.719
3092.1,755.244
3093.55,758.566
3095,755.952
3096.45,761.107
3097.9,773.086
3099.35,791.207
3100.8,798.793
3102.25,790.816
3103.7,815.037
3105.15,820.001
3106.6,811.002
3108.05,831.496
3109.5,815.389
3110.95,831.266
3112.4,835.577
3113.85,860.321
3115.3,856.494
3116.75,866.176
3118.2,859.672
3119.65,873.494
3121.1,879.719
3122.55,881.772
3124,886.445
3125.45,882.889
3126.9,892.029
3128.35,905.957
3129.8,893.524
3131.25,895.076
3132.7,908.897
3134.16,902.097
3135.61,901.802
3137.06,917.775
3138.51,895.027
3139.96,909.579
3141.41,915.048
3142.86,904.446
3144.31,921.38
3145.76,921.668
3147.21,924.665
3148.66,911.221
3150.11,910.064
3151.56,896.381
3153.01,905.251
3154.46,921.405
3155.91,927.228
3157.36,936.885
3158.81,947.356
3160.26,919.154
3161.71,936.671
3163.16,946.518
3164.61,944.153
3166.06,934.684
3167.51,962.368
3168.96,954.944
3170.41,954.189
3171.86,968.741
3173.31,976.526
3174.76,981.807
3176.21,965.054
3177.67,980.772
3179.12,974.358
3180.57,988.352
3182.02,1011.54
3183.47,998.298
3184.92,977.372
3186.37,992.204
3187.82,987.827
3189.27,971.648
3190.72,993.518
3192.17,975.294
3193.62,968.872
3195.07,964.035
3196.52,962.261
3197.97,939.423
3199.42,901.227
3200.87,919.853
3202.32,912.33
3203.77,898.328
3205.22,897.236
3206.67,883.841
3208.12,873.863
3209.57,855.451
3211.02,834.444
3212.47,853.258
3213.92,824.334
3215.37,801.312
3216.82,802.449
3218.27,786.166
3219.72,770.945
3221.17,772.678
3222.63,766.823
3224.08,765.131
3225.53,751.93
3226.98,746.277
3228.43,710.657
3229.88,733.16
3231.33,715.104
3232.78,696.502
3234.23,681.681
3235.68,687.855
3237.13,684.479
3238.58,682.143
3240.03,661.713
3241.48,652.613
3242.93,657.476
3244.38,665.796
3245.83,661.698
3247.28,663.354
3248.73,647.222
3250.18,653.462
3251.63,650.757
3253.08,650.035
3254.53,641.37
3255.98,617.914
3257.43,631.229
3258.88,630.928
3260.33,624.601
3261.78,624.027
3263.23,621.224
3264.68,635.697
3266.13,626.722
3267.59,612.14
3269.04,620.786
3270.49,631.8
3271.94,626.784
3273.39,609.635
3274.84,620.831
3276.29,614.734
3277.74,610.461
3279.19,625.916
3280.64,608.402
3282.09,616.637
3283.54,610.076
3284.99,618.451
3286.44,614.328
3287.89,608.669
3289.34,622.738
3290.79,622.825
3292.24,601.609
3293.69,627.443
3295.14,626.556
3296.59,616.061
3298.04,610.92
3299.49,609.385
3300.94,604.28
3302.39,613.127
3303.84,599.032
3305.29,608.119
3306.74,623.679
3308.19,612.056
3309.64,600.988
3311.09,606.28
3312.55,618.182
3314,614.14
3315.45,593.57
3316.9,603.29
3318.35,618.397
3319.8,596.132
3321.25,616.595
3322.7,604.656
3324.15,608.805
3325.6,616.528
3327.05,618.467
3328.5,602.216
3329.95,615.346
3331.4,622.266
3332.85,602.319
3334.3,597.072
3335.75,603.717
3337.2,608.184
3338.65,605.635
3340.1,607.687
3341.55,613.952
3343,613.123
3344.45,604.707
3345.9,611.575
3347.35,601.996
3348.8,592.37
3350.25,613.302
3351.7,606.53
3353.15,604.502
3354.6,612.972
3356.06,603.97
3357.51,609.323
3358.96,609.162
3360.41,604.267
3361.86,605.871
3363.31,601.193
3364.76,601.962
3366.21,607.555
3367.66,610.691
3369.11,611.409
3370.56,624.934
3372.01,620.14
3373.46,640.104
3374.91,613.561
3376.36,611.691
3377.81,606.627
3379.26,613.453
3380.71,599.174
3382.16,615.177
3383.61,610.084
3385.06,624.869
3386.51,614.671
3387.96,605.042
3389.41,590.892
3390.86,609.228
3392.31,614.194
3393.76,604.415
3395.21,613.422
3396.66,613.192
3398.11,628.851
3399.56,621.361
3401.02,622.483
3402.47,617.726
3403.92,605.639
3405.37,594.782
3406.82,620.459
3408.27,601.238
3409.72,605.733
3411.17,614.155
3412.62,616.574
3414.07,614.475
3415.52,618.609
3416.97,605.004
3418.42,619.618
3419.87,606.224
3421.32,609.815
3422.77,615.347
3424.22,623.625
3425.67,628.054
3427.12,631.191
3428.57,627.218
3430.02,614.207
3431.47,622.031
3432.92,628.035
3434.37,608.024
3435.82,618.879
3437.27,620.837
3438.72,619.127
3440.17,622.1
3441.62,610.882
3443.07,612.627
3444.52,619.568
3445.98,590.322
3447.43,625.059
3448.88,623.523
3450.33,618.798
3451.78,616.634
3453.23,622.263
3454.68,622.51
3456.13,619.669
3457.58,619.913
3459.03,613.923
3460.48,609.677
3461.93,634.876
3463.38,624.008
3464.83,630.1
3466.28,636.787
3467.73,637.256
3469.18,628.816
3470.63,619.196
3472.08,628.384
3473.53,639.029
3474.98,632.947
3476.43,609.022
3477.88,638.121
3479.33,634.659
3480.78,635.001
3482.23,626.295
3483.68,642.977
3485.13,603.443
3486.58,629.352
3488.03,641.007
3489.49,635.39
3490.94,617.401
3492.39,619.477
3493.84,627.662
3495.29,639.824
3496.74,639.582
3498.19,622.382
3499.64,633.223
3501.09,632.097
3502.54,641.852
3503.99,629.112
3505.44,632.253
3506.89,638.926
3508.34,644
3509.79,633.103
3511.24,637.025
3512.69,636.876
3514.14,632.887
3515.59,660.075
3517.04,641.149
3518.49,645.233
3519.94,643.961
3521.39,636.93
3522.84,646.939
3524.29,644.634
3525.74,642.474
3527.19,653.191
3528.64,631.977
3530.09,642.065
3531.54,647.719
3532.99,656.889
3534.45,652.459
3535.9,625.06
3537.35,646.324
3538.8,644.641
3540.25,641.022
3541.7,641.822
3543.15,637.219
3544.6,655.07
3546.05,638.867
3547.5,639.323
3548.95,646.269
3550.4,653.902
3551.85,648.531
3553.3,642.254
3554.75,633.343
3556.2,631.581
3557.65,648.386
3559.1,635.282
3560.55,643.561
3562,644.299
3563.45,645.056
3564.9,636.278
3566.35,648.005
3567.8,660.547
3569.25,651.961
3570.7,657.602
3572.15,653.37
3573.6,643.72
3575.05,640.187
3576.5,644.601
3577.96,649.714
3579.41,662.155
3580.86,646.219
3582.31,656.124
3583.76,658.379
3585.21,650.266
3586.66,642.13
3588.11,652.754
3589.56,655.509
3591.01,650.167
3592.46,674.999
3593.91,632.343
3595.36,634.574
3596.81,645.424
3598.26,658.874
3599.71,655.142
3601.16,652.111
3602.61,652.594
3604.06,659.323
3605.51,654.53
3606.96,666.79
3608.41,656.822
3609.86,672.649
3611.31,665.169
3612.76,657.196
3614.21,662.531
3615.66,663.403
3617.11,671.784
3618.56,652.843
3620.01,667.611
3621.46,682.892
3622.92,680.674
3624.37,667.681
3625.82,653.723
3627.27,666.598
3628.72,669.665
3630.17,661.432
3631.62,665.398
3633.07,656.452
3634.52,676.134
3635.97,655.333
3637.42,670.952
3638.87,673.169
3640.32,694.276
3641.77,669.301
3643.22,658.138
3644.67,682.673
3646.12,665.331
3647.57,681.022
3649.02,677.041
3650.47,671.857
3651.92,687.826
3653.37,679.77
3654.82,674.1
3656.27,672.706
3657.72,670.953
3659.17,670.298
3660.62,681.295
3662.07,680.812
3663.52,681.115
3664.97,672.232
3666.43,679.214
3667.88,699.701
3669.33,685.325
3670.78,684.133
3672.23,683.658
3673.68,690.085
3675.13,684.316
3676.58,679.73
3678.03,674.428
3679.48,676.151
3680.93,691.305
3682.38,686.322
3683.83,686.915
3685.28,674.088
3686.73,698.945
3688.18,687.251
3689.63,690.895
3691.08,682.423
3692.53,685.477
3693.98,688.806
3695.43,670.633
3696.88,694.611
3698.33,715.673
3699.78,695.644
3701.23,692.044
3702.68,690.223
3704.13,681.831
3705.58,681.002
3707.03,691.219
3708.48,682.714
3709.93,689.637
3711.39,694.213
3712.84,691.205
3714.29,708.684
3715.74,700.327
3717.19,698.31
3718.64,690.181
3720.09,697.15
3721.54,697.02
3722.99,701.654
3724.44,711.967
3725.89,706.106
3727.34,721.289
3728.79,717.426
3730.24,701.915
3731.69,694.426
3733.14,696.947
3734.59,693.445
3736.04,704.091
3737.49,694.188
3738.94,697.874
3740.39,698.579
3741.84,719.423
3743.29,721.317
3744.74,702.699
3746.19,708.863
3747.64,713.193
3749.09,708.013
3750.54,719.093
3751.99,716.572
3753.44,704
3754.89,712.761
3756.35,708.653
3757.8,707.219
3759.25,710.479
3760.7,704.212
3762.15,736.664
3763.6,721.862
3765.05,724.661
3766.5,723.31
3767.95,707.351
3769.4,720.44
3770.85,705.172
3772.3,717.974
3773.75,717.883
3775.2,722.809
3776.65,727.618
3778.1,731.351
3779.55,713.906
3781,714.163
3782.45,740.16
3783.9,727.932
3785.35,727.295
3786.8,730.849
3788.25,729.866
3789.7,752.83
3791.15,739.488
3792.6,721.73
3794.05,720.664
3795.5,736.955
3796.95,740.76
3798.4,717.044
3799.85,736.271
3801.31,739.326
3802.76,729.223
3804.21,729.264
3805.66,737.238
3807.11,737.205
3808.56,725.879
3810.01,722.644
3811.46,743.514
3812.91,728.153
3814.36,732.508
3815.81,756.006
3817.26,741.725
3818.71,746.958
3820.16,754.821
3821.61,746.746
3823.06,746.364
3824.51,742.374
3825.96,741.773
3827.41,740.588
3828.86,753.162
3830.31,751.116
3831.76,752.469
3833.21,765.397
3834.66,738.404
3836.11,736.67
3837.56,732.563
3839.01,745.453
3840.46,747.415
3841.91,753.449
3843.36,760.549
3844.82,752.264
3846.27,764.866
3847.72,762.862
3849.17,762.865
3850.62,765.101
3852.07,759.232
3853.52,756.269
3854.97,763.493
3856.42,745.082
3857.87,779.749
3859.32,768.966
3860.77,778.553
3862.22,762.587
3863.67,764.621
3865.12,750.995
3866.57,775.577
3868.02,770.396
3869.47,769.915
3870.92,782.614
3872.37,757.476
3873.82,781.37
3875.27,777.231
3876.72,784.68
3878.17,782.773
3879.62,766.518
3881.07,771.707
3882.52,790.742
3883.97,778.389
3885.42,788.485
3886.87,782.952
3888.32,782.008
3889.78,789.928
3891.23,790.23
3892.68,774.422
3894.13,774.422
3895.58,775.215
3897.03,794.708
3898.48,798.129
3899.93,801.976
3901.38,791.987
3902.83,803.295
3904.28,810.04
3905.73,795.528
3907.18,805.982
3908.63,800.349
3910.08,786.254
3911.53,795.738
3912.98,817.312
3914.43,802.937
3915.88,813.745
3917.33,809.384
3918.78,813.928
3920.23,801.376
3921.68,823.924
3923.13,803.837
3924.58,809.386
3926.03,825.837
3927.48,828.005
3928.93,806.105
3930.38,819.253
3931.83,844.915
3933.28,815.712
3934.74,835.848
3936.19,844.759
3937.64,837.655
3939.09,827.291
3940.54,812.362
3941.99,833.048
3943.44,841.523
3944.89,823.751
3946.34,824.622
3947.79,831.249
3949.24,820.741
3950.69,857.504
3952.14,842.278
3953.59,825.057
3955.04,849.226
3956.49,860.305
3957.94,847.411
3959.39,855.008
3960.84,880.326
3962.29,839.577
3963.74,867.293
3965.19,834.764
3966.64,872.697
3968.09,874.676
3969.54,863.507
3970.99,859.393
3972.44,856.042
3973.89,862.407
3975.34,875.489
3976.79,837.433
3978.25,876.179
3979.7,884.638
3981.15,865.938
3982.6,885.476
3984.05,889.459
3985.5,858.843
3986.95,887.734
3988.4,909.858
3989.85,882.593
3991.3,882.527
3992.75,885.985
3994.2,873.913
3995.65,889.229
3997.1,873.182
3998.55,897.457
4000,882.454
