-0.1,31.9636
1.45033,31.9636
2.90065,31.9636
4.35098,31.9636
5.80131,31.9636
7.25163,26.3699
8.70196,59.501
10.1523,40.9759
11.6026,32.0767
13.0529,27.8353
14.5033,24.5518
15.9536,21.4879
17.4039,19.5546
18.8542,18.1416
20.3046,18.7513
21.7549,18.7001
23.2052,16.4599
24.6555,14.31
26.1059,14.6494
27.5562,14.2157
29.0065,12.7945
30.4569,11.0765
31.9072,9.4629
33.3575,9.86874
34.8078,10.3834
36.2582,10.1904
37.7085,9.65226
39.1588,9.90855
40.6091,8.41925
42.0595,6.74437
43.5098,6.6526
44.9601,8.69944
46.4104,9.94831
47.8608,12.6231
49.3111,16.5515
50.7614,20.3348
52.2117,32.6253
53.6621,59.8788
55.1124,101.692
56.5627,159.224
58.0131,239.051
59.4634,311.941
60.9137,380.364
62.364,440.718
63.8144,490.322
65.2647,536.205
66.715,561.312
68.1653,576.387
69.6157,587.629
71.066,600.529
72.5163,601.281
73.9666,601.325
75.417,599.656
76.8673,596.322
78.3176,593.082
79.7679,606.323
81.2183,623.545
82.6686,642.601
84.1189,661.361
85.5693,672.18
87.0196,679.429
88.4699,675.261
89.9202,667.007
91.3706,666.051
92.8209,641.256
94.2712,629.377
95.7215,617.96
97.1719,601.309
98.6222,578.233
100.073,567.161
101.523,561.631
102.973,551.663
104.423,532.353
105.874,508.824
107.324,511.135
108.774,503.198
110.225,490.895
111.675,483.996
113.125,481.826
114.576,476.261
116.026,468.122
117.476,459.527
118.927,452.325
120.377,432.32
121.827,427.655
123.278,428.763
124.728,426.021
126.178,408.092
127.629,395.468
129.079,387.166
130.529,379.705
131.98,372.846
133.43,371.323
134.88,365.99
136.331,363.57
137.781,360.012
139.231,354.593
140.682,357.749
142.132,344.235
143.582,332.994
145.033,328.478
146.483,330.047
147.933,323.076
149.384,316.665
150.834,304.477
152.284,293.772
153.735,294.319
155.185,302.385
156.635,284.953
158.086,284.545
159.536,289.896
160.986,269.017
162.437,270.327
163.887,271.895
165.337,276.191
166.788,277.869
168.238,266.4
169.688,270.007
171.139,269.392
172.589,266.224
174.039,262.997
175.489,263.326
176.94,256.314
178.39,252.488
179.84,254.489
181.291,257.819
182.741,247.761
184.191,239.59
185.642,236.234
187.092,232.124
188.542,227.246
189.993,232.175
191.443,233.164
192.893,232.262
194.344,230.907
195.794,230.408
197.244,232.051
198.695,234.41
200.145,230.426
201.595,227.097
203.046,227.924
204.496,224.856
205.946,234.312
207.397,234.49
208.847,232.027
210.297,231.554
211.748,223.768
213.198,224.709
214.648,222.165
216.099,217.99
217.549,214.37
218.999,209.65
220.45,205.627
221.9,200.363
223.35,200.281
224.801,208.291
226.251,215.102
227.701,212.674
229.152,211.423
230.602,209.643
232.052,205.131
233.503,197.867
234.953,209.438
236.403,207.479
237.854,203.825
239.304,205.873
240.754,198.494
242.204,196.031
243.655,199.658
245.105,196.898
246.555,188.101
248.006,203.294
249.456,198.436
250.906,198.605
252.357,198.329
253.807,194.707
255.257,192.832
256.708,199.128
258.158,199.179
259.608,198.934
261.059,200.497
262.509,199.503
263.959,188.741
265.41,188.019
266.86,194.235
268.31,200.097
269.761,194.967
271.211,196.073
272.661,190.313
274.112,188.96
275.562,193.803
277.012,198.843
278.463,189.443
279.913,190.279
281.363,187.489
282.814,182.364
284.264,182.762
285.714,181.212
287.165,180.124
288.615,180.571
290.065,179.708
291.516,174.928
292.966,172.602
294.416,177.809
295.867,177.116
297.317,174.401
298.767,173.697
300.218,166.721
301.668,171.905
303.118,173.426
304.569,175.42
306.019,177.634
307.469,166.541
308.919,171.039
310.37,169.628
311.82,167.852
313.27,165.94
314.721,157.011
316.171,152.902
317.621,150.087
319.072,155.087
320.522,159.619
321.972,149.666
323.423,153.889
324.873,155.427
326.323,155.097
327.774,153.431
329.224,152.257
330.674,159.819
332.125,156.862
333.575,154.392
335.025,154.485
336.476,155.933
337.926,153.596
339.376,154.879
340.827,153.669
342.277,150.459
343.727,150.872
345.178,163.971
346.628,149.042
348.078,146.208
349.529,147.23
350.979,147.582
352.429,146.295
353.88,152.761
355.33,147.649
356.78,147.03
358.231,149.681
359.681,150.376
361.131,144.239
362.582,145.776
364.032,148.58
365.482,150.845
366.933,150.158
368.383,143.637
369.833,144.867
371.284,138.905
372.734,139.934
374.184,144.14
375.635,141.792
377.085,144.028
378.535,145.673
379.986,146.874
381.436,147.549
382.886,147.772
384.336,147.996
385.787,146.157
387.237,146.501
388.687,145.018
390.138,141.88
391.588,140.805
393.038,142.036
394.489,143.081
395.939,143.609
397.389,145.872
398.84,149.206
400.29,141.362
401.74,141.493
403.191,141.049
404.641,146.544
406.091,152.037
407.542,139.419
408.992,144.578
410.442,144.068
411.893,141.608
413.343,141.588
414.793,146.019
416.244,147.478
417.694,140.753
419.144,139.395
420.595,136.491
422.045,134.175
423.495,146.337
424.946,149.82
426.396,139.508
427.846,134.332
429.297,136.31
430.747,140.628
432.197,144.568
433.648,137.421
435.098,134.3
436.548,139.116
437.999,144.904
439.449,137.188
440.899,143.379
442.35,138.822
443.8,138.95
445.25,139.567
446.701,136.112
448.151,141.976
449.601,139.976
451.051,136.194
452.502,137.125
453.952,141.479
455.402,142.464
456.853,141.899
458.303,134.682
459.753,138.41
461.204,142.64
462.654,139.24
464.104,136.206
465.555,141.51
467.005,139.631
468.455,138.367
469.906,137.363
471.356,134.489
472.806,139.012
474.257,137.369
475.707,137.627
477.157,137.527
478.608,139.74
480.058,150.011
481.508,141.079
482.959,141.213
484.409,137.626
485.859,136.998
487.31,142.011
488.76,138.397
490.21,141.113
491.661,134.987
493.111,135.373
494.561,140.302
496.012,141.083
497.462,138.025
498.912,137.096
500.363,131.998
501.813,132.254
503.263,138.034
504.714,140.981
506.164,136.56
507.614,132.033
509.065,130.566
510.515,131.521
511.965,133.506
513.416,135.113
514.866,132.614
516.316,132.023
517.766,137.525
519.217,138.193
520.667,130.122
522.117,131.271
523.568,134.796
525.018,136.961
526.468,137.706
527.919,136.185
529.369,132.302
530.819,128.889
532.27,131.205
533.72,131.196
535.17,133.874
536.621,138.465
538.071,139.449
539.521,128.641
540.972,134.468
542.422,138.5
543.872,137.922
545.323,134.968
546.773,134.034
548.223,135.516
549.674,134.606
551.124,136.616
552.574,138.658
554.025,139.627
555.475,140.403
556.925,135.61
558.376,137.85
559.826,136.834
561.276,134.592
562.727,134.133
564.177,136.417
565.627,137.445
567.078,135.96
568.528,130.877
569.978,133.947
571.429,140.42
572.879,128.944
574.329,131.116
575.78,131.49
577.23,131.604
578.68,133.175
580.131,135.043
581.581,133.696
583.031,137.129
584.482,132.578
585.932,134.4
587.382,136.318
588.832,135.231
590.283,136.712
591.733,138.086
593.183,143.181
594.634,139.301
596.084,135.842
597.534,136.539
598.985,134.617
600.435,135.42
601.885,139.993
603.336,139.567
604.786,135.451
606.236,132.93
607.687,136.104
609.137,129.792
610.587,133.766
612.038,131.732
613.488,133.46
614.938,138.174
616.389,135.917
617.839,134.768
619.289,127.116
620.74,135.046
622.19,140.546
623.64,137.394
625.091,133.094
626.541,138.966
627.991,136.573
629.442,135.13
630.892,136.522
632.342,139.224
633.793,140.069
635.243,136.501
636.693,139.779
638.144,136.681
639.594,141.395
641.044,142.126
642.495,133.006
643.945,138.956
645.395,143.681
646.846,140.75
648.296,142.29
649.746,144.049
651.197,143.159
652.647,144.506
654.097,145.429
655.547,144.712
656.998,141.044
658.448,138.549
659.898,136.913
661.349,134.248
662.799,144.523
664.249,145.555
665.7,143.926
667.15,145.733
668.6,147.344
670.051,143.415
671.501,139.509
672.951,147.37
674.402,148.261
675.852,144.736
677.302,146.926
678.753,152.646
680.203,142.381
681.653,148.637
683.104,152.029
684.554,150.772
686.004,147.586
687.455,146.446
688.905,149.383
690.355,150.425
691.806,152.243
693.256,148.393
694.706,147.979
696.157,149.089
697.607,147.754
699.057,149.171
700.508,151.376
701.958,157.715
703.408,156.456
704.859,152.568
706.309,151.579
707.759,152.486
709.21,146.219
710.66,144.396
712.11,148.911
713.561,147.738
715.011,146.853
716.461,152.784
717.912,148.088
719.362,145.994
720.812,148.22
722.263,148.776
723.713,152.796
725.163,157.576
726.613,152.754
728.064,150.08
729.514,152.887
730.964,152.123
732.415,151.026
733.865,150.843
735.315,150.524
736.766,148.86
738.216,158.417
739.666,155.525
741.117,150.344
742.567,150.89
744.017,151.503
745.468,143.982
746.918,152.499
748.368,151.529
749.819,147.461
751.269,150.415
752.719,151.762
754.17,147.433
755.62,149.011
757.07,156.602
758.521,154.73
759.971,147.519
761.421,148.273
762.872,152.622
764.322,151.173
765.772,149.035
767.223,153.712
768.673,158.08
770.123,151.754
771.574,148.75
773.024,152.874
774.474,154.687
775.925,147.319
777.375,151.767
778.825,154.278
780.276,153.549
781.726,152.904
783.176,152.219
784.627,149.034
786.077,154.541
787.527,154.391
788.978,151.621
790.428,157.188
791.878,159.913
793.328,156.267
794.779,160.877
796.229,154.307
797.68,157.648
799.13,156.683
800.58,155.691
802.03,156.646
803.481,160.151
804.931,165.942
806.381,157.721
807.832,161.604
809.282,157.799
810.732,155.347
812.183,156.322
813.633,157.735
815.083,158.811
816.534,160.104
817.984,160.329
819.434,162.628
820.885,160.888
822.335,160.244
823.785,163.786
825.236,159.344
826.686,156.754
828.136,163.247
829.587,159.839
831.037,161.467
832.487,169.208
833.938,171.673
835.388,160.99
836.838,167.235
838.289,171.651
839.739,165.298
841.189,165.249
842.64,170.225
844.09,172.194
845.54,172.81
846.991,167.855
848.441,167.827
849.891,169.083
851.342,169.411
852.792,172.302
854.242,175.375
855.693,167.223
857.143,156.239
858.593,169.176
860.044,173.659
861.494,173.622
862.944,171.009
864.394,169.485
865.845,173.522
867.295,173.404
868.745,172.358
870.196,174.593
871.646,169.737
873.096,166.368
874.547,166.161
875.997,163.029
877.447,167.033
878.898,164.428
880.348,172.946
881.798,174.762
883.249,172.921
884.699,172.302
886.149,173.081
887.6,171.154
889.05,162.254
890.5,169.554
891.951,171.309
893.401,170.363
894.851,171.304
896.302,173.318
897.752,171.225
899.202,170.276
900.653,177.251
902.103,174.864
903.553,177.151
905.004,177.523
906.454,178.127
907.904,188.171
909.355,190.648
910.805,188.983
912.255,185.441
913.706,175.884
915.156,175.251
916.606,179.117
918.057,179.923
919.507,185.77
920.957,171.48
922.408,177.137
923.858,186.849
925.308,187.183
926.759,183.41
928.209,185.63
929.659,193.788
931.109,189.877
932.56,189.877
934.01,191.35
935.46,193.89
936.911,186.602
938.361,183.353
939.811,190.89
941.262,188.192
942.712,196.659
944.162,192.344
945.613,192.606
947.063,184.03
948.513,181.721
949.964,188.322
951.414,190.303
952.864,183.895
954.315,188.313
955.765,193.179
957.215,192.6
958.666,191.199
960.116,189.784
961.566,188.505
963.017,187.474
964.467,182.276
965.917,188.74
967.368,188.721
968.818,189.568
970.268,185.962
971.719,182.694
973.169,184.742
974.619,188.194
976.07,191.497
977.52,187.666
978.97,196.208
980.421,194.241
981.871,193.981
983.321,193.185
984.772,189.508
986.222,195.669
987.672,186.67
989.123,193.823
990.573,191.002
992.023,191.707
993.474,192.166
994.924,190.953
996.374,191.43
997.825,194.166
999.275,190.081
1000.73,196.273
1002.18,194.97
1003.63,199.332
1005.08,203.113
1006.53,204.65
1007.98,205.515
1009.43,201.953
1010.88,198.704
1012.33,200.803
1013.78,212.443
1015.23,209.58
1016.68,206.887
1018.13,209.074
1019.58,209.993
1021.03,208.96
1022.48,206.115
1023.93,217.801
1025.38,216.69
1026.83,223.507
1028.28,221.075
1029.73,216.735
1031.18,218.938
1032.63,215.987
1034.08,216.988
1035.53,219.159
1036.98,233.157
1038.43,235.969
1039.88,232.859
1041.33,234.001
1042.78,235.654
1044.23,230.749
1045.69,239.78
1047.14,236.639
1048.59,234.622
1050.04,238.252
1051.49,237.367
1052.94,239.558
1054.39,246.203
1055.84,249.102
1057.29,247.508
1058.74,253.192
1060.19,255.677
1061.64,252.782
1063.09,259.479
1064.54,264.363
1065.99,265.58
1067.44,268.513
1068.89,273.69
1070.34,282.26
1071.79,278.384
1073.24,274.837
1074.69,269.538
1076.14,271.256
1077.59,277.072
1079.04,281.038
1080.49,281.835
1081.94,280.636
1083.39,270.812
1084.84,288.777
1086.29,287.187
1087.74,279.444
1089.2,282.079
1090.65,285.257
1092.1,280.137
1093.55,277.056
1095,276.149
1096.45,272.626
1097.9,271.484
1099.35,273.147
1100.8,272.265
1102.25,275.653
1103.7,269.837
1105.15,259.14
1106.6,281.284
1108.05,279.054
1109.5,266.998
1110.95,266.239
1112.4,265.034
1113.85,266.939
1115.3,269.199
1116.75,267.558
1118.2,263.541
1119.65,262.403
1121.1,255.739
1122.55,266.947
1124,258.054
1125.45,255.229
1126.9,259.758
1128.35,259.398
1129.8,257.404
1131.25,260.006
1132.7,250.562
1134.16,259.221
1135.61,263.003
1137.06,252.642
1138.51,252.451
1139.96,249.862
1141.41,249.061
1142.86,249.285
1144.31,246.178
1145.76,252.794
1147.21,249.961
1148.66,244.701
1150.11,252.459
1151.56,248.696
1153.01,241.655
1154.46,242.419
1155.91,245.825
1157.36,246.02
1158.81,253.001
1160.26,251.485
1161.71,237.275
1163.16,250.278
1164.61,247.586
1166.06,246.873
1167.51,250.106
1168.96,250.059
1170.41,246.429
1171.86,245.64
1173.31,243.522
1174.76,240.949
1176.21,246.162
1177.66,244.383
1179.12,244.118
1180.57,245.535
1182.02,247.544
1183.47,247.878
1184.92,247.394
1186.37,254.313
1187.82,247.678
1189.27,251.974
1190.72,250.533
1192.17,248.414
1193.62,247.678
1195.07,243.377
1196.52,243.602
1197.97,253.241
1199.42,255.955
1200.87,253.442
1202.32,255.534
1203.77,242.326
1205.22,250.444
1206.67,251.433
1208.12,245.414
1209.57,246.123
1211.02,250.603
1212.47,249.802
1213.92,255.748
1215.37,248.313
1216.82,255.956
1218.27,253.893
1219.72,259.835
1221.17,259.059
1222.63,254.038
1224.08,254.493
1225.53,256.706
1226.98,250.122
1228.43,246.847
1229.88,261.964
1231.33,251.097
1232.78,263.891
1234.23,259.395
1235.68,263.537
1237.13,266.947
1238.58,267.625
1240.03,268.606
1241.48,267.153
1242.93,276.374
1244.38,267.358
1245.83,259.319
1247.28,264.656
1248.73,278.022
1250.18,276.666
1251.63,269.757
1253.08,271.257
1254.53,276.194
1255.98,275.8
1257.43,283.623
1258.88,288.106
1260.33,280.673
1261.78,286.693
1263.23,289.653
1264.68,286.049
1266.13,288.532
1267.59,296.716
1269.04,303.952
1270.49,305.971
1271.94,302.041
1273.39,315.538
1274.84,311.686
1276.29,311.638
1277.74,320.211
1279.19,320.096
1280.64,327.603
1282.09,333.573
1283.54,339.242
1284.99,349.001
1286.44,350.465
1287.89,355.178
1289.34,344.693
1290.79,367.319
1292.24,375.875
1293.69,378.081
1295.14,388.369
1296.59,401.573
1298.04,407.717
1299.49,414.347
1300.94,430.748
1302.39,441.674
1303.84,442.992
1305.29,450.837
1306.74,466.236
1308.19,474.288
1309.64,490.92
1311.09,512.539
1312.55,531.46
1314,545.495
1315.45,562.515
1316.9,583.417
1318.35,593.544
1319.8,618.674
1321.25,627.158
1322.7,633.474
1324.15,664.431
1325.6,663.931
1327.05,660.916
1328.5,660.631
1329.95,664.909
1331.4,675.266
1332.85,680.884
1334.3,676.101
1335.75,676.892
1337.2,654.145
1338.65,648.878
1340.1,628.795
1341.55,626.648
1343,612.77
1344.45,590.853
1345.9,581.072
1347.35,576.085
1348.8,555.469
1350.25,528.1
1351.7,509.183
1353.15,505.01
1354.6,509.018
1356.06,493.535
1357.51,461.662
1358.96,444.709
1360.41,443.041
1361.86,439.193
1363.31,432.249
1364.76,428.501
1366.21,418.537
1367.66,397.225
1369.11,392.927
1370.56,399.332
1372.01,389.289
1373.46,388.543
1374.91,380.707
1376.36,383.983
1377.81,379.752
1379.26,369.672
1380.71,364.418
1382.16,364.759
1383.61,368.352
1385.06,359.178
1386.51,346.566
1387.96,359.138
1389.41,360.311
1390.86,367.248
1392.31,365.836
1393.76,354.469
1395.21,358.291
1396.66,356.9
1398.11,353.091
1399.56,366.651
1401.02,369.019
1402.47,367.001
1403.92,364.658
1405.37,369.829
1406.82,372.926
1408.27,372.75
1409.72,364.766
1411.17,375.361
1412.62,378.745
1414.07,367.177
1415.52,365.396
1416.97,375.966
1418.42,378.231
1419.87,386.894
1421.32,387.158
1422.77,390.184
1424.22,379.314
1425.67,384.969
1427.12,403.378
1428.57,393.726
1430.02,393.137
1431.47,399.562
1432.92,400.972
1434.37,403.394
1435.82,409.776
1437.27,416.696
1438.72,432.563
1440.17,422.177
1441.62,417.618
1443.07,425.797
1444.53,418.343
1445.98,430.383
1447.43,442.344
1448.88,447.232
1450.33,442.107
1451.78,440.921
1453.23,454.041
1454.68,466.798
1456.13,466.894
1457.58,470.672
1459.03,476.745
1460.48,486.137
1461.93,475.188
1463.38,498.341
1464.83,506.827
1466.28,506.673
1467.73,512.836
1469.18,521.219
1470.63,534.832
1472.08,552.212
1473.53,562.224
1474.98,566.008
1476.43,572.087
1477.88,585.201
1479.33,577.919
1480.78,603.522
1482.23,615.703
1483.68,625.495
1485.13,649.774
1486.58,658.006
1488.03,663.41
1489.49,686.299
1490.94,705.608
1492.39,712.127
1493.84,724.824
1495.29,742.452
1496.74,775.837
1498.19,790.072
1499.64,820.304
1501.09,816.86
1502.54,870.427
1503.99,906.76
1505.44,933.758
1506.89,973.068
1508.34,1012.34
1509.79,1050.92
1511.24,1095.43
1512.69,1147.88
1514.14,1208.21
1515.59,1272.44
1517.04,1336.85
1518.49,1406.5
1519.94,1483.97
1521.39,1594.27
1522.84,1714.5
1524.29,1815.52
1525.74,1926.95
1527.19,2099.78
1528.64,2260.33
1530.09,2414.22
1531.54,2600.21
1532.99,2812.89
1534.45,3049.64
1535.9,3306.13
1537.35,3547.67
1538.8,3831.85
1540.25,4084.67
1541.7,4413.6
1543.15,4746.38
1544.6,5137.25
1546.05,5416.02
1547.5,5718.9
1548.95,6043.02
1550.4,6401.96
1551.85,6696.43
1553.3,6707.08
1554.75,6718.07
1556.2,6737.29
1557.65,6753.76
1559.1,6765.84
1560.55,6808.68
1562,6787.81
1563.45,6782.48
1564.9,6779.41
1566.35,6766.72
1567.8,6714.33
1569.25,6382.02
1570.7,6011.06
1572.15,5635.04
1573.6,5266.05
1575.05,4905.96
1576.5,4536.45
1577.96,4173.65
1579.41,3852.87
1580.86,3565.88
1582.31,3280.98
1583.76,3002.88
1585.21,2803.12
1586.66,2589.11
1588.11,2424.51
1589.56,2252.46
1591.01,2106.42
1592.46,1959.94
1593.91,1853.58
1595.36,1733.16
1596.81,1641.43
1598.26,1559.7
1599.71,1471.05
1601.16,1397.25
1602.61,1328.88
1604.06,1258.79
1605.51,1197.8
1606.96,1143.67
1608.41,1085.61
1609.86,1054.16
1611.31,1006.37
1612.76,956.076
1614.21,934.351
1615.66,896.244
1617.11,859.311
1618.56,828.937
1620.01,805.761
1621.46,786.743
1622.92,759.329
1624.37,731.233
1625.82,705.548
1627.27,694.048
1628.72,682.472
1630.17,654.551
1631.62,639.597
1633.07,640.69
1634.52,620.634
1635.97,620.783
1637.42,610.227
1638.87,584.861
1640.32,578.381
1641.77,574.729
1643.22,565.881
1644.67,554.124
1646.12,543.578
1647.57,539.781
1649.02,530.561
1650.47,520.813
1651.92,515.968
1653.37,516.095
1654.82,511.193
1656.27,514.674
1657.72,500.771
1659.17,498.116
1660.62,483.37
1662.07,476.883
1663.52,468.305
1664.97,473.046
1666.42,459.805
1667.88,460.369
1669.33,448.732
1670.78,441.388
1672.23,450.838
1673.68,451.217
1675.13,447.225
1676.58,440.757
1678.03,440.453
1679.48,443.952
1680.93,436.036
1682.38,424.921
1683.83,431.487
1685.28,419.614
1686.73,412.923
1688.18,405.385
1689.63,408.961
1691.08,419.051
1692.53,416.915
1693.98,405.483
1695.43,407.298
1696.88,412.989
1698.33,410.747
1699.78,407.873
1701.23,406.114
1702.68,409.012
1704.13,402.221
1705.58,407.37
1707.03,401.197
1708.48,408.706
1709.93,388.401
1711.39,392.377
1712.84,407.533
1714.29,396.658
1715.74,390.859
1717.19,395.759
1718.64,401.779
1720.09,396.653
1721.54,400.439
1722.99,400.774
1724.44,392.376
1725.89,396.106
1727.34,398.075
1728.79,389.075
1730.24,393.183
1731.69,392.383
1733.14,390.573
1734.59,382.878
1736.04,398.574
1737.49,386.791
1738.94,376.629
1740.39,373.232
1741.84,369.321
1743.29,368.782
1744.74,375.963
1746.19,376.209
1747.64,377.923
1749.09,368.237
1750.54,374.444
1751.99,369.03
1753.44,355.953
1754.89,359.942
1756.35,364.418
1757.8,357.293
1759.25,359.778
1760.7,363.198
1762.15,350.398
1763.6,355.504
1765.05,353.597
1766.5,356.091
1767.95,348.745
1769.4,346.584
1770.85,343.807
1772.3,353.14
1773.75,339.415
1775.2,349.152
1776.65,338.407
1778.1,337.203
1779.55,340.577
1781,336.54
1782.45,340.679
1783.9,342.408
1785.35,341.459
1786.8,341.064
1788.25,346.233
1789.7,341.56
1791.15,336.153
1792.6,339.169
1794.05,331.044
1795.5,332.065
1796.95,336.097
1798.4,344.264
1799.85,346.231
1801.31,336.517
1802.76,327.517
1804.21,330.023
1805.66,336.477
1807.11,336.082
1808.56,324.337
1810.01,328.028
1811.46,320.122
1812.91,318.435
1814.36,330.953
1815.81,331.766
1817.26,331.244
1818.71,323.137
1820.16,321.907
1821.61,326.265
1823.06,325.517
1824.51,328.706
1825.96,331.359
1827.41,331.245
1828.86,332.756
1830.31,331.48
1831.76,335.931
1833.21,337.084
1834.66,328.534
1836.11,337.187
1837.56,330.478
1839.01,331.122
1840.46,336.851
1841.91,335.416
1843.36,346.345
1844.82,340.147
1846.27,336.173
1847.72,334.134
1849.17,343.722
1850.62,338.012
1852.07,349.119
1853.52,337.656
1854.97,339.682
1856.42,343.312
1857.87,346.354
1859.32,347.699
1860.77,344.558
1862.22,336.197
1863.67,338.063
1865.12,341.26
1866.57,344.496
1868.02,344.1
1869.47,337.063
1870.92,338.993
1872.37,343.702
1873.82,344.792
1875.27,347.88
1876.72,339.039
1878.17,333.465
1879.62,334.573
1881.07,337.897
1882.52,340.223
1883.97,333.829
1885.42,337.081
1886.87,328.034
1888.32,334.669
1889.78,340.404
1891.23,319.074
1892.68,323.468
1894.13,323.463
1895.58,326.138
1897.03,324.566
1898.48,327.819
1899.93,320.767
1901.38,316.989
1902.83,317.779
1904.28,319.217
1905.73,315.88
1907.18,322.391
1908.63,320.577
1910.08,326.676
1911.53,321.879
1912.98,313.323
1914.43,318.068
1915.88,319.29
1917.33,316.608
1918.78,316.979
1920.23,317.415
1921.68,316.768
1923.13,312.888
1924.58,314.46
1926.03,316.612
1927.48,314.527
1928.93,319.67
1930.38,313.545
1931.83,322.223
1933.29,309.353
1934.74,314.614
1936.19,314.151
1937.64,309.448
1939.09,312.092
1940.54,310.903
1941.99,319.421
1943.44,312.006
1944.89,314.806
1946.34,316.013
1947.79,317.486
1949.24,308.085
1950.69,319.149
1952.14,321.626
1953.59,326.845
1955.04,330.258
1956.49,318.028
1957.94,320.603
1959.39,318.323
1960.84,310.642
1962.29,324.539
1963.74,319.405
1965.19,325.188
1966.64,326.945
1968.09,317.859
1969.54,316.939
1970.99,315.797
1972.44,317.774
1973.89,321.761
1975.34,326.872
1976.79,333.288
1978.25,334.035
1979.7,330.052
1981.15,328.92
1982.6,331.848
1984.05,332.825
1985.5,326.296
1986.95,324.692
1988.4,329.721
1989.85,326.167
1991.3,329.449
1992.75,330.054
1994.2,323.379
1995.65,331.604
1997.1,320.649
1998.55,323.419
2000,321.211
2001.45,328.246
2002.9,329.651
2004.35,337.31
2005.8,331.872
2007.25,324.712
2008.7,327.384
2010.15,324.405
2011.6,319.442
2013.05,316.098
2014.5,317.416
2015.95,323.636
2017.4,320.094
2018.85,317.2
2020.3,325.653
2021.75,330.498
2023.21,331.554
2024.66,327.291
2026.11,311.577
2027.56,334.5
2029.01,315.09
2030.46,319.427
2031.91,311.226
2033.36,323.089
2034.81,307.91
2036.26,331.869
2037.71,314.126
2039.16,319.536
2040.61,317.756
2042.06,307.105
2043.51,318.949
2044.96,318.658
2046.41,305.428
2047.86,305.603
2049.31,320.413
2050.76,303.479
2052.21,305.309
2053.66,300.246
2055.11,304.985
2056.56,311.481
2058.01,311.407
2059.46,309.399
2060.91,301.434
2062.36,299.876
2063.81,302.036
2065.26,302.217
2066.72,306.318
2068.17,304.978
2069.62,301.19
2071.07,306.71
2072.52,299.437
2073.97,300.062
2075.42,301.979
2076.87,302.698
2078.32,309.892
2079.77,307.121
2081.22,302.617
2082.67,296.716
2084.12,298.822
2085.57,299.837
2087.02,295.121
2088.47,299.514
2089.92,300.009
2091.37,300.356
2092.82,298.476
2094.27,301.508
2095.72,303.141
2097.17,300.251
2098.62,301.743
2100.07,295.56
2101.52,303.001
2102.97,304.037
2104.42,299.932
2105.87,303.565
2107.32,305.46
2108.77,306.311
2110.22,308.986
2111.68,310.948
2113.13,309.968
2114.58,304.587
2116.03,301.985
2117.48,302.091
2118.93,305.578
2120.38,309.46
2121.83,307.493
2123.28,309.287
2124.73,312.458
2126.18,313.195
2127.63,311.477
2129.08,310.247
2130.53,313.451
2131.98,314.733
2133.43,305.942
2134.88,307.474
2136.33,314.571
2137.78,310.24
2139.23,309.063
2140.68,310.639
2142.13,311.901
2143.58,320.151
2145.03,316.931
2146.48,315.224
2147.93,315.256
2149.38,314.998
2150.83,320.844
2152.28,318.728
2153.73,319.205
2155.18,322.344
2156.64,322.266
2158.09,318.682
2159.54,326.037
2160.99,325.133
2162.44,323.283
2163.89,330.505
2165.34,327.719
2166.79,326.081
2168.24,324.493
2169.69,325.575
2171.14,328.2
2172.59,324.723
2174.04,327.368
2175.49,336.117
2176.94,332.045
2178.39,334.966
2179.84,336.618
2181.29,333.375
2182.74,329.842
2184.19,333.53
2185.64,329.173
2187.09,329.216
2188.54,328.507
2189.99,330.18
2191.44,330.251
2192.89,331.313
2194.34,335.1
2195.79,341.219
2197.24,334.027
2198.69,337.125
2200.15,334.63
2201.6,335.45
2203.05,329.355
2204.5,330.701
2205.95,336.755
2207.4,339.117
2208.85,335.38
2210.3,337.453
2211.75,343.466
2213.2,351.257
2214.65,337.989
2216.1,346.354
2217.55,345.17
2219,337.703
2220.45,345.585
2221.9,344.411
2223.35,346.564
2224.8,351.496
2226.25,358.056
2227.7,344.993
2229.15,350.803
2230.6,356.809
2232.05,346.872
2233.5,343.195
2234.95,338.676
2236.4,354.768
2237.85,359.366
2239.3,349.556
2240.75,352.58
2242.2,355.505
2243.65,345.664
2245.11,356.067
2246.56,361.595
2248.01,357.613
2249.46,352.856
2250.91,361.832
2252.36,361.931
2253.81,372.393
2255.26,362.663
2256.71,356.211
2258.16,362.388
2259.61,371.125
2261.06,364.996
2262.51,355.521
2263.96,363.243
2265.41,372.658
2266.86,366.925
2268.31,373.806
2269.76,370.124
2271.21,364.955
2272.66,374.471
2274.11,372.756
2275.56,366.793
2277.01,370.592
2278.46,371.488
2279.91,371.488
2281.36,369.603
2282.81,378.2
2284.26,381.34
2285.71,377.371
2287.16,372.265
2288.61,380.7
2290.07,385.018
2291.52,391.511
2292.97,388.467
2294.42,390.1
2295.87,389.672
2297.32,383.053
2298.77,384.806
2300.22,386.439
2301.67,378.168
2303.12,394.099
2304.57,395.728
2306.02,395.029
2307.47,385.003
2308.92,389.559
2310.37,403.281
2311.82,400.636
2313.27,395.709
2314.72,389.208
2316.17,396.667
2317.62,397.394
2319.07,420.001
2320.52,411.261
2321.97,406.673
2323.42,420.155
2324.87,411.279
2326.32,415.634
2327.77,419.854
2329.22,416.947
2330.67,416.701
2332.12,426.121
2333.57,426.58
2335.03,433.078
2336.48,416.233
2337.93,424.165
2339.38,432.252
2340.83,431.637
2342.28,438.441
2343.73,439.73
2345.18,437.333
2346.63,445.7
2348.08,438.979
2349.53,439.246
2350.98,455.503
2352.43,456.365
2353.88,462.914
2355.33,461.564
2356.78,463.637
2358.23,474.059
2359.68,473.25
2361.13,467.914
2362.58,469.607
2364.03,485.101
2365.48,486.805
2366.93,510.362
2368.38,485.035
2369.83,496.663
2371.28,494.848
2372.73,512.973
2374.18,515.986
2375.63,522.413
2377.08,531.17
2378.54,533.738
2379.99,540.539
2381.44,549.058
2382.89,553.327
2384.34,556.804
2385.79,557.298
2387.24,568.287
2388.69,573.18
2390.14,584.63
2391.59,599.019
2393.04,597.569
2394.49,588.843
2395.94,596.196
2397.39,617.427
2398.84,638.85
2400.29,627.082
2401.74,641.778
2403.19,642.832
2404.64,662.015
2406.09,670.642
2407.54,657.83
2408.99,663.267
2410.44,669.544
2411.89,662.514
2413.34,681.988
2414.79,692.472
2416.24,682.367
2417.69,675.788
2419.14,683.921
2420.59,681.994
2422.04,663.695
2423.5,676.365
2424.95,683.191
2426.4,672.207
2427.85,664.903
2429.3,668.852
2430.75,675.135
2432.2,674.558
2433.65,666.419
2435.1,651.833
2436.55,666.337
2438,655.15
2439.45,655.199
2440.9,661.032
2442.35,651.893
2443.8,653.201
2445.25,643.101
2446.7,653.371
2448.15,644.71
2449.6,639.575
2451.05,630.8
2452.5,634.82
2453.95,622.183
2455.4,637.06
2456.85,624.001
2458.3,624.33
2459.75,630.272
2461.2,632.958
2462.65,626.412
2464.1,626.252
2465.55,621.31
2467.01,620.601
2468.46,623.918
2469.91,624.017
2471.36,620.805
2472.81,623.6
2474.26,626.686
2475.71,620.118
2477.16,631.228
2478.61,634.441
2480.06,642.689
2481.51,639.559
2482.96,640.108
2484.41,627.224
2485.86,642.623
2487.31,650.065
2488.76,647.275
2490.21,644.177
2491.66,642.316
2493.11,641.465
2494.56,647.994
2496.01,637.148
2497.46,635.951
2498.91,642.623
2500.36,644.326
2501.81,640.438
2503.26,658.917
2504.71,660.993
2506.16,668.391
2507.61,681.752
2509.06,656.984
2510.51,688.968
2511.97,677.122
2513.42,684.262
2514.87,693.911
2516.32,703.087
2517.77,702.275
2519.22,706.954
2520.67,719.815
2522.12,725.966
2523.57,737.065
2525.02,735.253
2526.47,743.397
2527.92,747.236
2529.37,735.401
2530.82,753.507
2532.27,769.208
2533.72,764.881
2535.17,770.636
2536.62,783.63
2538.07,803.933
2539.52,792.631
2540.97,815.932
2542.42,818.64
2543.87,855.094
2545.32,861.321
2546.77,857.648
2548.22,877.034
2549.67,888.407
2551.12,897.012
2552.57,898.534
2554.02,918.958
2555.48,938.387
2556.93,962.512
2558.38,974.172
2559.83,985.001
2561.28,1000.87
2562.73,1037.71
2564.18,1048.97
2565.63,1068.69
2567.08,1094.94
2568.53,1109.11
2569.98,1140.7
2571.43,1182.81
2572.88,1205.2
2574.33,1204.4
2575.78,1242.24
2577.23,1274.98
2578.68,1300.98
2580.13,1337.81
2581.58,1367.77
2583.03,1392.39
2584.48,1432.62
2585.93,1467.28
2587.38,1496.67
2588.83,1555.86
2590.28,1614.69
2591.73,1675.51
2593.18,1696
2594.63,1740.84
2596.08,1803.29
2597.53,1851.36
2598.98,1932.77
2600.44,1987.76
2601.89,2060.47
2603.34,2134.27
2604.79,2196.4
2606.24,2279.84
2607.69,2337.18
2609.14,2433.43
2610.59,2482.65
2612.04,2585.33
2613.49,2654.07
2614.94,2760
2616.39,2843.87
2617.84,2907.82
2619.29,2998.58
2620.74,3083.93
2622.19,3170.18
2623.64,3279.72
2625.09,3333.17
2626.54,3417.47
2627.99,3502.8
2629.44,3603.88
2630.89,3697.86
2632.34,3785.1
2633.79,3849.79
2635.24,3964.25
2636.69,3989.71
2638.14,4051.99
2639.59,4134.17
2641.04,4158.82
2642.49,4211.3
2643.94,4241.74
2645.4,4254
2646.85,4271.95
2648.3,4281.18
2649.75,4251.88
2651.2,4257.87
2652.65,4205.14
2654.1,4225.58
2655.55,4165.05
2657,4128.44
2658.45,4058.11
2659.9,3987.2
2661.35,3913.58
2662.8,3849.3
2664.25,3759.88
2665.7,3706.14
2667.15,3640.73
2668.6,3527.23
2670.05,3454.87
2671.5,3374.45
2672.95,3231.56
2674.4,3174.53
2675.85,3076.8
2677.3,2965.19
2678.75,2884.06
2680.2,2820.81
2681.65,2689.42
2683.1,2615.07
2684.55,2527.03
2686,2461.1
2687.45,2370.61
2688.91,2273.92
2690.36,2192.97
2691.81,2126.58
2693.26,2056.57
2694.71,1951.97
2696.16,1892.25
2697.61,1867.39
2699.06,1772.3
2700.51,1727.06
2701.96,1697.8
2703.41,1635.42
2704.86,1560.15
2706.31,1517.25
2707.76,1453.84
2709.21,1433.37
2710.66,1387.73
2712.11,1337.1
2713.56,1303.3
2715.01,1281.16
2716.46,1240.38
2717.91,1210.97
2719.36,1172.98
2720.81,1154.94
2722.26,1132.38
2723.71,1094.18
2725.16,1059.95
2726.61,1039.52
2728.06,1025.51
2729.51,1010.72
2730.96,984.633
2732.41,950.76
2733.87,951.227
2735.32,918.826
2736.77,909.259
2738.22,892.652
2739.67,881.268
2741.12,869.273
2742.57,841.562
2744.02,833.961
2745.47,832.896
2746.92,807.48
2748.37,807.887
2749.82,786.815
2751.27,789
2752.72,767.264
2754.17,769.917
2755.62,750.564
2757.07,731.194
2758.52,726.081
2759.97,723.023
2761.42,705.251
2762.87,700.051
2764.32,703.049
2765.77,691.709
2767.22,666.908
2768.67,692.423
2770.12,675.327
2771.57,670.774
2773.02,661.251
2774.47,662.558
2775.92,659.033
2777.38,648.126
2778.83,647.533
2780.28,638.801
2781.73,633.54
2783.18,624.171
2784.63,625.006
2786.08,619.514
2787.53,599.799
2788.98,609.788
2790.43,616.334
2791.88,607.454
2793.33,599.14
2794.78,589.776
2796.23,588.156
2797.68,594.038
2799.13,586.069
2800.58,586.712
2802.03,579.122
2803.48,574.734
2804.93,580.539
2806.38,571.236
2807.83,559.939
2809.28,564.212
2810.73,557.622
2812.18,562.608
2813.63,562.993
2815.08,567.562
2816.53,552.515
2817.98,556.919
2819.43,562.987
2820.88,552.778
2822.33,544.322
2823.79,549.157
2825.24,542.484
2826.69,537.632
2828.14,534.027
2829.59,535.181
2831.04,543.083
2832.49,547.034
2833.94,522.282
2835.39,520.895
2836.84,522.503
2838.29,517.93
2839.74,517.932
2841.19,521.139
2842.64,530.32
2844.09,528.37
2845.54,522.376
2846.99,519.358
2848.44,517.926
2849.89,510.19
2851.34,518.621
2852.79,512.995
2854.24,507.298
2855.69,514.533
2857.14,527.061
2858.59,513.235
2860.04,506.304
2861.49,513.552
2862.94,503.387
2864.39,504.634
2865.84,515.666
2867.3,513.049
2868.75,512.038
2870.2,511.923
2871.65,502.736
2873.1,506.238
2874.55,516.689
2876,511.549
2877.45,513.127
2878.9,514.321
2880.35,511.339
2881.8,499.874
2883.25,504.086
2884.7,504.958
2886.15,504.864
2887.6,503.478
2889.05,498.77
2890.5,506.964
2891.95,511.746
2893.4,507.064
2894.85,510.129
2896.3,509.894
2897.75,502.642
2899.2,501.519
2900.65,500.792
2902.1,497.604
2903.55,495.499
2905,496.061
2906.45,497.55
2907.9,498.952
2909.35,494.642
2910.8,485.808
2912.26,485.416
2913.71,490.301
2915.16,473.422
2916.61,493.084
2918.06,486.039
2919.51,475.069
2920.96,485.719
2922.41,483.465
2923.86,482.255
2925.31,478.013
2926.76,470.585
2928.21,467.243
2929.66,466.091
2931.11,463.444
2932.56,458.334
2934.01,468.657
2935.46,459.059
2936.91,459.056
2938.36,457.17
2939.81,451.807
2941.26,446.841
2942.71,451.054
2944.16,453.086
2945.61,451.498
2947.06,450.776
2948.51,452.418
2949.96,442.493
2951.41,441.226
2952.86,448.407
2954.31,440.747
2955.77,437.802
2957.22,443.431
2958.67,438.383
2960.12,431.243
2961.57,451.447
2963.02,437.321
2964.47,435.302
2965.92,433.612
2967.37,436.225
2968.82,435.034
2970.27,439.009
2971.72,428.287
2973.17,429.503
2974.62,429.007
2976.07,424.143
2977.52,424.547
2978.97,428.085
2980.42,423.828
2981.87,430.678
2983.32,434.366
2984.77,429.389
2986.22,422.331
2987.67,427.129
2989.12,430.645
2990.57,432.848
2992.02,428.519
2993.47,421.473
2994.92,425.252
2996.37,432.582
2997.82,430.642
2999.27,434.713
3000.73,419.496
3002.18,428.926
3003.63,420.717
3005.08,426.253
3006.53,424.127
3007.98,413.889
3009.43,411.838
3010.88,417.41
3012.33,424.638
3013.78,433.677
3015.23,414.627
3016.68,422.059
3018.13,415.913
3019.58,421.772
3021.03,422.685
3022.48,415.362
3023.93,424.256
3025.38,432.419
3026.83,419.791
3028.28,425.448
3029.73,436.53
3031.18,437.659
3032.63,430.316
3034.08,438.085
3035.53,440.396
3036.98,414.487
3038.43,432.961
3039.88,435.306
3041.33,432.023
3042.78,431.215
3044.23,425.021
3045.69,424.916
3047.14,422.23
3048.59,431.251
3050.04,437.124
3051.49,424.876
3052.94,423.67
3054.39,432.427
3055.84,439.772
3057.29,437.44
3058.74,430.62
3060.19,441.367
3061.64,446.72
3063.09,450.068
3064.54,452.709
3065.99,450.689
3067.44,439.304
3068.89,448.802
3070.34,457.217
3071.79,470.469
3073.24,450.44
3074.69,460.717
3076.14,459.914
3077.59,462.968
3079.04,476.757
3080.49,476.033
3081.94,485.958
3083.39,482.1
3084.84,493.894
3086.29,486.585
3087.74,491.258
3089.2,493.707
3090.65,502.018
3092.1,505.044
3093.55,507.266
3095,505.518
3096.45,508.965
3097.9,516.975
3099.35,529.093
3100.8,534.166
3102.25,528.831
3103.7,545.029
3105.15,548.348
3106.6,542.33
3108.05,556.035
3109.5,545.264
3110.95,555.881
3112.4,558.764
3113.85,575.311
3115.3,572.752
3116.75,579.226
3118.2,574.877
3119.65,584.12
3121.1,588.282
3122.55,589.655
3124,592.78
3125.45,590.402
3126.9,596.515
3128.35,605.828
3129.8,597.514
3131.25,598.552
3132.7,607.795
3134.16,603.247
3135.61,603.05
3137.06,613.731
3138.51,598.519
3139.96,608.25
3141.41,611.908
3142.86,604.818
3144.31,616.142
3145.76,616.334
3147.21,618.339
3148.66,609.349
3150.11,608.575
3151.56,599.425
3153.01,605.356
3154.46,616.159
3155.91,620.052
3157.36,626.51
3158.81,633.512
3160.26,614.654
3161.71,626.368
3163.16,632.952
3164.61,631.371
3166.06,625.039
3167.51,643.551
3168.96,638.587
3170.41,638.082
3171.86,647.813
3173.31,653.019
3174.76,656.55
3176.21,645.347
3177.67,655.858
3179.12,651.569
3180.57,660.927
3182.02,676.431
3183.47,667.578
3184.92,653.585
3186.37,663.503
3187.82,660.576
3189.27,649.757
3190.72,664.382
3192.17,652.195
3193.62,647.901
3195.07,644.666
3196.52,643.48
3197.97,628.207
3199.42,602.665
3200.87,615.121
3202.32,610.09
3203.77,600.727
3205.22,599.996
3206.67,591.039
3208.12,584.367
3209.57,572.054
3211.02,558.006
3212.47,570.588
3213.92,551.246
3215.37,535.85
3216.82,536.611
3218.27,525.722
3219.72,515.544
3221.17,516.702
3222.63,512.787
3224.08,511.656
3225.53,502.828
3226.98,499.048
3228.43,475.228
3229.88,490.276
3231.33,478.202
3232.78,465.762
3234.23,455.851
3235.68,459.98
3237.13,457.722
3238.58,456.16
3240.03,442.498
3241.48,436.413
3242.93,439.665
3244.38,445.229
3245.83,442.488
3247.28,443.596
3248.73,432.808
3250.18,436.981
3251.63,435.172
3253.08,434.689
3254.53,428.895
3255.98,413.21
3257.43,422.113
3258.88,421.912
3260.33,417.681
3261.78,417.297
3263.23,415.423
3264.68,425.101
3266.13,419.099
3267.59,409.348
3269.04,415.13
3270.49,422.495
3271.94,419.141
3273.39,407.673
3274.84,415.16
3276.29,411.083
3277.74,408.225
3279.19,418.56
3280.64,406.849
3282.09,412.355
3283.54,407.968
3284.99,413.568
3286.44,410.811
3287.89,407.027
3289.34,416.435
3290.79,416.493
3292.24,402.306
3293.69,419.581
3295.14,418.989
3296.59,411.97
3298.04,408.532
3299.49,407.506
3300.94,404.092
3302.39,410.008
3303.84,400.582
3305.29,406.659
3306.74,417.064
3308.19,409.292
3309.64,401.89
3311.09,405.429
3312.55,413.389
3314,410.686
3315.45,396.93
3316.9,403.43
3318.35,413.532
3319.8,398.643
3321.25,412.327
3322.7,404.343
3324.15,407.118
3325.6,412.283
3327.05,413.579
3328.5,402.712
3329.95,411.492
3331.4,416.119
3332.85,402.781
3334.3,399.272
3335.75,403.715
3337.2,406.703
3338.65,404.998
3340.1,406.37
3341.55,410.56
3343,410.006
3344.45,404.378
3345.9,408.97
3347.35,402.564
3348.8,396.127
3350.25,410.125
3351.7,405.596
3353.15,404.24
3354.6,409.905
3356.06,403.885
3357.51,407.465
3358.96,407.357
3360.41,404.083
3361.86,405.156
3363.31,402.027
3364.76,402.542
3366.21,406.282
3367.66,408.379
3369.11,408.86
3370.56,417.904
3372.01,414.698
3373.46,428.048
3374.91,410.298
3376.36,409.048
3377.81,405.661
3379.26,410.226
3380.71,400.677
3382.16,411.379
3383.61,407.973
3385.06,417.86
3386.51,411.04
3387.96,404.601
3389.41,395.139
3390.86,407.401
3392.31,410.722
3393.76,404.182
3395.21,410.206
3396.66,410.051
3398.11,420.523
3399.56,415.514
3401.02,416.265
3402.47,413.084
3403.92,405
3405.37,397.74
3406.82,414.911
3408.27,402.058
3409.72,405.064
3411.17,410.695
3412.62,412.313
3414.07,410.91
3415.52,413.674
3416.97,404.576
3418.42,414.349
3419.87,405.392
3421.32,407.794
3422.77,411.493
3424.22,417.029
3425.67,419.99
3427.12,422.088
3428.57,419.431
3430.02,410.73
3431.47,415.963
3432.92,419.977
3434.37,406.596
3435.82,413.854
3437.27,415.164
3438.72,414.02
3440.17,416.009
3441.62,408.507
3443.07,409.674
3444.52,414.315
3445.98,394.758
3447.43,417.987
3448.88,416.96
3450.33,413.801
3451.78,412.353
3453.23,416.117
3454.68,416.283
3456.13,414.383
3457.58,414.546
3459.03,410.54
3460.48,407.701
3461.93,424.552
3463.38,417.285
3464.83,421.358
3466.28,425.83
3467.73,426.144
3469.18,420.5
3470.63,414.067
3472.08,420.211
3473.53,427.329
3474.98,423.262
3476.43,407.263
3477.88,426.722
3479.33,424.407
3480.78,424.636
3482.23,418.814
3483.68,429.969
3485.13,403.532
3486.58,420.858
3488.03,428.652
3489.49,424.896
3490.94,412.866
3492.39,414.255
3493.84,419.728
3495.29,427.861
3496.74,427.699
3498.19,416.197
3499.64,423.447
3501.09,422.694
3502.54,429.217
3503.99,420.698
3505.44,422.798
3506.89,427.26
3508.34,430.653
3509.79,423.366
3511.24,425.989
3512.69,425.889
3514.14,423.222
3515.59,441.403
3517.04,428.747
3518.49,431.478
3519.94,430.627
3521.39,425.926
3522.84,432.619
3524.29,431.078
3525.74,429.633
3527.19,436.799
3528.64,422.614
3530.09,429.36
3531.54,433.14
3532.99,439.272
3534.45,436.31
3535.9,417.988
3537.35,432.207
3538.8,431.082
3540.25,428.662
3541.7,429.197
3543.15,426.119
3544.6,438.056
3546.05,427.221
3547.5,427.526
3548.95,432.171
3550.4,437.275
3551.85,433.683
3553.3,429.486
3554.75,423.527
3556.2,422.348
3557.65,433.586
3559.1,424.824
3560.55,430.36
3562,430.853
3563.45,431.359
3564.9,425.49
3566.35,433.332
3567.8,441.719
3569.25,435.977
3570.7,439.749
3572.15,436.919
3573.6,430.466
3575.05,428.103
3576.5,431.055
3577.96,434.474
3579.41,442.794
3580.86,432.137
3582.31,438.761
3583.76,440.269
3585.21,434.844
3586.66,429.403
3588.11,436.507
3589.56,438.35
3591.01,434.777
3592.46,451.383
3593.91,422.858
3595.36,424.35
3596.81,431.606
3598.26,440.6
3599.71,438.104
3601.16,436.077
3602.61,436.4
3604.06,440.9
3605.51,437.695
3606.96,445.894
3608.41,439.228
3609.86,449.812
3611.31,444.809
3612.76,439.478
3614.21,443.046
3615.66,443.628
3617.11,449.233
3618.56,436.567
3620.01,446.442
3621.46,456.661
3622.92,455.178
3624.37,446.489
3625.82,437.155
3627.27,445.765
3628.72,447.816
3630.17,442.31
3631.62,444.962
3633.07,438.98
3634.52,452.142
3635.97,438.232
3637.42,448.676
3638.87,450.159
3640.32,464.274
3641.77,447.573
3643.22,440.108
3644.67,456.515
3646.12,444.918
3647.57,455.41
3649.02,452.749
3650.47,449.282
3651.92,459.961
3653.37,454.573
3654.82,450.782
3656.27,449.849
3657.72,448.677
3659.17,448.239
3660.62,455.593
3662.07,455.27
3663.52,455.473
3664.97,449.533
3666.43,454.201
3667.88,467.901
3669.33,458.288
3670.78,457.491
3672.23,457.173
3673.68,461.471
3675.13,457.613
3676.58,454.547
3678.03,451.001
3679.48,452.153
3680.93,462.287
3682.38,458.955
3683.83,459.351
3685.28,450.774
3686.73,467.396
3688.18,459.576
3689.63,462.013
3691.08,456.347
3692.53,458.39
3693.98,460.616
3695.43,448.463
3696.88,464.498
3698.33,478.582
3699.78,465.188
3701.23,462.781
3702.68,461.563
3704.13,455.951
3705.58,455.397
3707.03,462.23
3708.48,456.542
3709.93,461.171
3711.39,464.232
3712.84,462.22
3714.29,473.908
3715.74,468.32
3717.19,466.971
3718.64,461.535
3720.09,466.196
3721.54,466.109
3722.99,469.207
3724.44,476.104
3725.89,472.184
3727.34,482.338
3728.79,479.754
3730.24,469.382
3731.69,464.374
3733.14,466.06
3734.59,463.718
3736.04,470.837
3737.49,464.215
3738.94,466.68
3740.39,467.151
3741.84,481.09
3743.29,482.356
3744.74,469.906
3746.19,474.028
3747.64,476.924
3749.09,473.46
3750.54,480.869
3751.99,479.184
3753.44,470.776
3754.89,476.635
3756.35,473.888
3757.8,472.929
3759.25,475.109
3760.7,470.918
3762.15,492.619
3763.6,482.721
3765.05,484.593
3766.5,483.69
3767.95,473.017
3769.4,481.77
3770.85,471.56
3772.3,480.121
3773.75,480.06
3775.2,483.354
3776.65,486.57
3778.1,489.066
3779.55,477.401
3781,477.572
3782.45,494.957
3783.9,486.78
3785.35,486.354
3786.8,488.731
3788.25,488.073
3789.7,503.43
3791.15,494.508
3792.6,482.633
3794.05,481.92
3795.5,492.814
3796.95,495.359
3798.4,479.499
3799.85,492.357
3801.31,494.4
3802.76,487.643
3804.21,487.671
3805.66,493.003
3807.11,492.981
3808.56,485.407
3810.01,483.244
3811.46,497.2
3812.91,486.928
3814.36,489.84
3815.81,505.553
3817.26,496.004
3818.71,499.503
3820.16,504.761
3821.61,499.362
3823.06,499.106
3824.51,496.438
3825.96,496.036
3827.41,495.243
3828.86,503.652
3830.31,502.284
3831.76,503.188
3833.21,511.834
3834.66,493.783
3836.11,492.623
3837.56,489.877
3839.01,498.497
3840.46,499.809
3841.91,503.844
3843.36,508.592
3844.82,503.051
3846.27,511.478
3847.72,510.138
3849.17,510.14
3850.62,511.636
3852.07,507.711
3853.52,505.729
3854.97,510.56
3856.42,498.248
3857.87,521.431
3859.32,514.22
3860.77,520.631
3862.22,509.955
3863.67,511.314
3865.12,502.202
3866.57,518.641
3868.02,515.176
3869.47,514.855
3870.92,523.347
3872.37,506.536
3873.82,522.515
3875.27,519.747
3876.72,524.729
3878.17,523.453
3879.62,512.583
3881.07,516.053
3882.52,528.783
3883.97,520.522
3885.42,527.273
3886.87,523.573
3888.32,522.941
3889.78,528.238
3891.23,528.44
3892.68,517.869
3894.13,517.869
3895.58,518.399
3897.03,531.434
3898.48,533.722
3899.93,536.295
3901.38,529.615
3902.83,537.177
3904.28,541.687
3905.73,531.982
3907.18,538.974
3908.63,535.206
3910.08,525.781
3911.53,532.123
3912.98,546.55
3914.43,536.937
3915.88,544.165
3917.33,541.249
3918.78,544.287
3920.23,535.893
3921.68,550.971
3923.13,537.539
3924.58,541.25
3926.03,552.251
3927.48,553.701
3928.93,539.055
3930.38,547.848
3931.83,565.008
3933.28,545.48
3934.74,558.945
3936.19,564.904
3937.64,560.154
3939.09,553.223
3940.54,543.24
3941.99,557.073
3943.44,562.74
3944.89,550.856
3946.34,551.438
3947.79,555.87
3949.24,548.843
3950.69,573.427
3952.14,563.245
3953.59,551.729
3955.04,567.891
3956.49,575.3
3957.94,566.678
3959.39,571.758
3960.84,588.689
3962.29,561.439
3963.74,579.973
3965.19,558.221
3966.64,583.587
3968.09,584.91
3969.54,577.442
3970.99,574.69
3972.44,572.45
3973.89,576.706
3975.34,585.454
3976.79,560.005
3978.25,585.915
3979.7,591.572
3981.15,579.067
3982.6,592.132
3984.05,594.796
3985.5,574.322
3986.95,593.642
3988.4,608.437
3989.85,590.204
3991.3,590.161
3992.75,592.473
3994.2,584.4
3995.65,594.642
3997.1,583.911
3998.55,600.145
4000,590.111
