1.77681,43735
3.2286,29900.7
4.68039,10841.6
6.13218,3044.07
7.58397,368.165
9.03575,79.6332
10.4875,68.4437
11.9393,70.0423
13.3911,74.0388
14.8429,73.2395
16.2947,69.243
17.7465,65.2468
19.1983,54.8564
20.6501,46.8639
22.1018,42.0683
23.5536,37.2728
25.0054,33.2766
26.4572,30.0795
27.909,27.6817
29.3608,26.0832
30.8126,23.6855
32.2644,22.8862
33.7161,21.2877
35.1679,20.4885
36.6197,21.2877
38.0715,23.6855
39.5233,23.6855
40.9751,25.284
42.4269,27.6817
43.8787,30.0795
45.3304,35.6743
46.7822,41.2691
48.234,58.0535
49.6858,94.8192
51.1376,157.161
52.5894,257.068
54.0412,408.927
55.493,615.934
56.9447,866.102
58.3965,1131.46
59.8483,1393.61
61.3001,1574.24
62.7519,1712.51
64.2037,1838
65.6555,1899.54
67.1073,1960.28
68.559,1994.65
70.0108,2021.83
71.4626,2083.37
72.9144,2124.13
74.3662,2150.51
75.818,2176.08
77.2698,2219.24
78.7216,2306.36
80.1733,2371.1
81.6251,2431.04
83.0769,2461.42
84.5287,2476.6
85.9805,2492.59
87.4323,2447.83
88.8841,2376.7
90.3359,2308.76
91.7877,2223.24
93.2394,2135.32
94.6912,2022.63
96.143,1942.7
97.5948,1873.17
99.0466,1767.66
100.498,1730.9
101.95,1656.56
103.402,1600.62
104.854,1564.65
106.306,1547.06
107.757,1529.49
109.209,1519.1
110.661,1497.52
112.113,1465.54
113.564,1451.16
115.016,1439.17
116.468,1411.99
117.92,1388.02
119.372,1371.23
120.823,1347.25
122.275,1303.29
123.727,1266.53
125.179,1232.96
126.631,1220.17
128.082,1220.17
129.534,1173.01
130.986,1151.44
132.438,1141.05
133.889,1114.67
135.341,1095.49
136.793,1086.7
138.245,1065.91
139.697,1048.33
141.148,1024.36
142.6,1019.56
144.052,995.582
145.504,973.202
146.956,961.212
148.407,955.617
149.859,956.417
151.311,930.839
152.763,910.057
154.215,909.258
155.666,909.258
157.118,890.081
158.57,919.649
160.022,927.642
161.473,922.047
162.925,927.642
164.377,965.209
165.829,977.998
167.281,986.79
168.732,999.579
170.184,982.793
171.636,938.832
173.088,905.268
174.54,874.095
175.991,834.93
177.443,823.74
178.895,814.947
180.347,817.345
181.798,805.356
183.25,790.968
184.702,784.574
186.154,782.975
187.606,775.788
189.057,766.996
190.509,759.003
191.961,750.211
193.413,773.39
194.865,767.795
196.316,758.204
197.768,747.014
199.22,759.003
200.672,747.014
202.124,748.612
203.575,751.809
205.027,734.225
206.479,739.021
207.931,743.017
209.382,751.809
210.834,747.813
212.286,731.028
213.738,727.83
215.19,744.616
216.641,743.816
218.093,744.616
219.545,741.418
220.997,725.433
222.449,721.436
223.9,716.64
225.352,725.433
226.804,730.228
228.256,718.239
229.707,714.242
231.159,722.235
232.611,729.429
234.063,731.827
235.515,745.415
236.966,720.637
238.418,723.035
239.87,732.626
241.322,727.031
242.774,713.443
244.225,708.647
245.677,712.644
247.129,712.644
248.581,709.447
250.033,689.464
251.484,704.651
252.936,699.056
254.388,689.464
255.84,687.866
257.291,711.045
258.743,708.647
260.195,686.267
261.647,690.263
263.099,691.862
264.55,664.686
266.002,658.295
267.454,671.08
268.906,675.876
270.358,671.08
271.809,672.679
273.261,675.876
274.713,661.489
276.165,666.284
277.616,661.489
279.068,639.912
280.52,635.916
281.972,653.499
283.424,643.908
284.875,635.916
286.327,631.919
287.779,639.912
289.231,641.51
290.683,630.321
292.134,617.533
293.586,611.139
295.038,623.128
296.49,612.737
297.941,599.15
299.393,611.938
300.845,611.139
302.297,579.168
303.749,579.968
305.2,581.566
306.652,583.165
308.104,581.566
309.556,576.77
311.008,571.176
312.459,574.373
313.911,563.183
315.363,568.778
316.815,581.566
318.267,550.395
319.718,545.6
321.17,548.797
322.622,548.797
324.074,552.793
325.525,548.797
326.977,550.395
328.429,544.001
329.881,551.194
331.333,555.191
332.784,542.402
334.236,547.998
335.688,530.414
337.14,537.607
338.592,535.209
340.043,517.626
341.495,525.618
342.947,552.793
344.399,534.41
345.85,523.221
347.302,532.012
348.754,543.202
350.206,540.804
351.658,540.005
353.109,529.614
354.561,523.221
356.013,524.02
357.465,511.232
358.917,519.224
360.368,528.016
361.82,525.618
363.272,515.228
364.724,509.633
366.176,514.428
367.627,520.023
369.079,518.425
370.531,516.826
371.983,530.414
373.434,517.626
374.886,517.626
376.338,512.83
377.79,509.633
379.242,515.228
380.693,520.823
382.145,506.436
383.597,496.845
385.049,489.651
386.501,493.648
387.952,501.64
389.404,505.637
390.856,504.038
392.308,504.038
393.759,507.235
395.211,507.235
396.663,510.432
398.115,496.845
399.567,508.035
401.018,512.031
402.47,506.436
403.922,501.64
405.374,516.027
406.826,503.239
408.277,511.232
409.729,514.428
411.181,501.64
412.633,508.035
414.085,509.633
415.536,497.644
416.988,490.451
418.44,496.046
419.892,509.633
421.343,508.834
422.795,507.235
424.247,498.444
425.699,488.852
427.151,487.254
428.602,508.834
430.054,508.834
431.506,508.834
432.958,500.042
434.41,496.046
435.861,510.432
437.313,494.447
438.765,503.239
440.217,505.637
441.668,498.444
443.12,492.049
444.572,509.633
446.024,506.436
447.476,500.841
448.927,498.444
450.379,493.648
451.831,492.049
453.283,478.462
454.735,482.458
456.186,483.258
457.638,488.053
459.09,493.648
460.542,488.852
461.993,454.484
463.445,480.061
464.897,487.254
466.349,487.254
467.801,487.254
469.252,477.663
470.704,494.447
472.156,491.25
473.608,491.25
475.06,490.451
476.511,488.053
477.963,483.258
479.415,485.656
480.867,494.447
482.319,484.856
483.77,476.064
485.222,485.656
486.674,500.042
488.126,480.86
489.577,485.656
491.029,494.447
492.481,492.849
493.933,480.86
495.385,472.068
496.836,485.656
498.288,487.254
499.74,485.656
501.192,484.856
502.644,472.068
504.095,474.466
505.547,472.867
506.999,478.462
508.451,483.258
509.902,485.656
511.354,480.061
512.806,469.67
514.258,472.068
515.71,488.852
517.161,496.046
518.613,484.856
520.065,463.276
521.517,467.272
522.969,470.47
524.42,470.47
525.872,469.67
527.324,470.47
528.776,479.261
530.228,480.061
531.679,488.852
533.131,488.053
534.583,479.261
536.035,479.261
537.486,464.874
538.938,448.89
540.39,462.477
541.842,472.867
543.294,471.269
544.745,475.265
546.197,478.462
547.649,476.863
549.101,473.667
550.553,473.667
552.004,474.466
553.456,478.462
554.908,476.863
556.36,476.863
557.811,476.863
559.263,484.856
560.715,480.86
562.167,466.473
563.619,477.663
565.07,473.667
566.522,471.269
567.974,463.276
569.426,460.879
570.878,476.064
572.329,457.681
573.781,480.061
575.233,486.455
576.685,480.061
578.137,472.867
579.588,472.867
581.04,468.072
582.492,465.674
583.944,473.667
585.395,475.265
586.847,468.072
588.299,462.477
589.751,467.272
591.203,484.856
592.654,469.67
594.106,460.079
595.558,468.871
597.01,465.674
598.462,466.473
599.913,464.874
601.365,480.061
602.817,482.458
604.269,475.265
605.72,481.659
607.172,480.86
608.624,460.879
610.076,469.67
611.528,472.867
612.979,471.269
614.431,469.67
615.883,476.863
617.335,476.863
618.787,481.659
620.238,482.458
621.69,472.068
623.142,469.67
624.594,484.057
626.046,469.67
627.497,470.47
628.949,477.663
630.401,476.064
631.853,464.075
633.304,472.867
634.756,484.856
636.208,473.667
637.66,486.455
639.112,494.447
640.563,486.455
642.015,488.852
643.467,496.046
644.919,482.458
646.371,479.261
647.822,481.659
649.274,487.254
650.726,490.451
652.178,512.83
653.629,498.444
655.081,502.44
656.533,498.444
657.985,492.049
659.437,491.25
660.888,505.637
662.34,496.046
663.792,496.046
665.244,492.849
666.696,489.651
668.147,495.247
669.599,496.845
671.051,492.849
672.503,492.849
673.954,499.243
675.406,499.243
676.858,498.444
678.31,500.841
679.762,497.644
681.213,507.235
682.665,506.436
684.117,505.637
685.569,500.042
687.021,492.049
688.472,502.44
689.924,492.049
691.376,496.046
692.828,488.053
694.28,488.053
695.731,498.444
697.183,492.849
698.635,487.254
700.087,497.644
701.538,504.038
702.99,501.64
704.442,505.637
705.894,512.031
707.346,502.44
708.797,516.027
710.249,503.239
711.701,515.228
713.153,523.221
714.605,519.224
716.056,514.428
717.508,502.44
718.96,509.633
720.412,500.042
721.863,506.436
723.315,516.027
724.767,518.425
726.219,513.629
727.671,503.239
729.122,508.035
730.574,512.031
732.026,507.235
733.478,500.841
734.93,504.038
736.381,507.235
737.833,512.031
739.285,516.826
740.737,513.629
742.189,516.826
743.64,524.02
745.092,516.826
746.544,495.247
747.996,504.837
749.447,524.819
750.899,519.224
752.351,505.637
753.803,501.64
755.255,503.239
756.706,506.436
758.158,497.644
759.61,504.837
761.062,512.83
762.514,511.232
763.965,512.031
765.417,524.819
766.869,516.027
768.321,498.444
769.772,512.031
771.224,511.232
772.676,508.035
774.128,531.213
775.58,508.834
777.031,516.826
778.483,507.235
779.935,520.023
781.387,528.016
782.839,523.221
784.29,535.209
785.742,536.009
787.194,514.428
788.646,519.224
790.098,525.618
791.549,517.626
793.001,521.622
794.453,520.823
795.905,527.216
797.356,521.622
798.808,520.823
800.26,520.023
801.712,523.221
803.164,532.812
804.615,544.001
806.067,520.023
807.519,528.815
808.971,532.812
810.423,531.213
811.874,531.213
813.326,537.607
814.778,517.626
816.23,536.009
817.681,529.614
819.133,541.603
820.585,556.789
822.037,548.797
823.489,539.205
824.94,537.607
826.392,538.406
827.844,547.198
829.296,551.993
830.748,539.205
832.199,528.815
833.651,529.614
835.103,560.786
836.555,551.194
838.007,555.191
839.458,567.979
840.91,566.38
842.362,551.993
843.814,547.198
845.265,544.001
846.717,546.399
848.169,555.191
849.621,581.566
851.073,572.774
852.524,563.982
853.976,576.77
855.428,573.574
856.88,579.968
858.332,579.968
859.783,579.168
861.235,568.778
862.687,580.767
864.139,585.563
865.59,583.165
867.042,587.96
868.494,560.786
869.946,556.789
871.398,558.388
872.849,571.176
874.301,572.774
875.753,569.577
877.205,568.778
878.657,572.774
880.108,560.786
881.56,563.982
883.012,563.183
884.464,564.781
885.915,561.585
887.367,556.789
888.819,564.781
890.271,559.986
891.723,564.781
893.174,579.968
894.626,587.161
896.078,591.956
897.53,587.96
898.982,578.369
900.433,573.574
901.885,567.179
903.337,581.566
904.789,590.358
906.241,591.157
907.692,593.555
909.144,587.96
910.596,591.956
912.048,585.563
913.499,599.15
914.951,594.354
916.403,588.759
917.855,578.369
919.307,565.581
920.758,581.566
922.21,603.146
923.662,595.953
925.114,599.15
926.566,597.551
928.017,597.551
929.469,611.938
930.921,605.544
932.373,599.949
933.824,572.774
935.276,599.949
936.728,612.737
938.18,605.544
939.632,610.339
941.083,609.54
942.535,598.351
943.987,603.146
945.439,616.733
946.891,606.343
948.342,598.351
949.794,601.547
951.246,603.146
952.698,608.741
954.15,623.128
955.601,603.146
957.053,594.354
958.505,601.547
959.957,605.544
961.408,598.351
962.86,595.154
964.312,621.529
965.764,623.128
967.216,615.135
968.667,602.347
970.119,615.934
971.571,611.139
973.023,611.139
974.475,618.332
975.926,607.142
977.378,613.536
978.83,611.938
980.282,616.733
981.733,616.733
983.185,624.726
984.637,622.328
986.089,616.733
987.541,615.934
988.992,631.12
990.444,623.927
991.896,639.112
993.348,623.128
994.8,629.521
996.251,638.313
997.703,626.324
999.155,647.105
1000.61,630.321
1002.06,636.715
1003.51,641.51
1004.96,638.313
1006.41,631.919
1007.87,639.112
1009.32,649.503
1010.77,651.9
1012.22,658.295
1013.67,657.495
1015.12,649.503
1016.58,656.696
1018.03,648.704
1019.48,650.302
1020.93,668.682
1022.38,679.073
1023.84,687.066
1025.29,692.661
1026.74,684.668
1028.19,687.066
1029.64,698.256
1031.09,700.654
1032.55,689.464
1034,699.056
1035.45,708.647
1036.9,714.242
1038.35,727.83
1039.8,727.83
1041.26,731.827
1042.71,749.411
1044.16,755.806
1045.61,729.429
1047.06,733.426
1048.52,747.014
1049.97,756.605
1051.42,763
1052.87,773.39
1054.32,768.595
1055.77,772.591
1057.23,790.968
1058.68,799.761
1060.13,813.349
1061.58,803.757
1063.03,810.951
1064.49,826.937
1065.94,834.13
1067.39,817.345
1068.84,813.349
1070.29,847.719
1071.74,854.113
1073.2,856.511
1074.65,867.701
1076.1,877.293
1077.55,885.286
1079,875.694
1080.46,870.898
1081.91,878.092
1083.36,872.497
1084.81,910.857
1086.26,914.853
1087.71,922.846
1089.17,910.857
1090.62,876.493
1092.07,895.676
1093.52,916.452
1094.97,896.476
1096.42,887.683
1097.88,902.87
1099.33,879.69
1100.78,877.293
1102.23,882.888
1103.68,882.888
1105.14,868.5
1106.59,866.902
1108.04,871.697
1109.49,863.705
1110.94,866.102
1112.39,843.722
1113.85,851.715
1115.3,848.518
1116.75,846.919
1118.2,846.12
1119.65,835.729
1121.11,832.532
1122.56,824.539
1124.01,832.532
1125.46,833.331
1126.91,819.743
1128.36,822.141
1129.82,819.743
1131.27,808.553
1132.72,810.951
1134.17,794.965
1135.62,807.754
1137.07,794.166
1138.53,789.37
1139.98,806.155
1141.43,806.155
1142.88,786.173
1144.33,790.169
1145.79,802.958
1147.24,815.747
1148.69,796.563
1150.14,786.972
1151.59,799.761
1153.04,778.186
1154.5,779.785
1155.95,788.57
1157.4,797.363
1158.85,796.563
1160.3,793.366
1161.76,793.366
1163.21,786.972
1164.66,786.173
1166.11,776.588
1167.56,790.169
1169.01,794.166
1170.47,801.359
1171.92,806.155
1173.37,798.162
1174.82,818.145
1176.27,802.958
1177.72,802.958
1179.18,831.733
1180.63,806.954
1182.08,805.356
1183.53,818.944
1184.98,815.747
1186.44,813.349
1187.89,808.553
1189.34,810.951
1190.79,813.349
1192.24,800.56
1193.69,822.94
1195.15,833.331
1196.6,826.937
1198.05,815.747
1199.5,820.542
1200.95,838.127
1202.41,838.926
1203.86,833.331
1205.31,830.933
1206.76,857.31
1208.21,851.715
1209.66,839.726
1211.12,828.535
1212.57,840.525
1214.02,839.726
1215.47,823.74
1216.92,838.926
1218.37,847.719
1219.83,849.317
1221.28,853.314
1222.73,853.314
1224.18,849.317
1225.63,861.307
1227.09,865.303
1228.54,851.715
1229.99,840.525
1231.44,855.712
1232.89,841.324
1234.34,868.5
1235.8,865.303
1237.25,859.708
1238.7,844.521
1240.15,864.504
1241.6,888.483
1243.06,880.49
1244.51,878.891
1245.96,886.085
1247.41,918.849
1248.86,903.669
1250.31,886.884
1251.77,909.258
1253.22,921.247
1254.67,922.047
1256.12,916.452
1257.57,919.649
1259.02,936.434
1260.48,946.825
1261.93,975.6
1263.38,959.614
1264.83,977.198
1266.28,979.596
1267.74,999.579
1269.19,1008.37
1270.64,1013.17
1272.09,1038.74
1273.54,1070.71
1274.99,1073.91
1276.45,1069.91
1277.9,1058.72
1279.35,1089.89
1280.8,1126.66
1282.25,1132.26
1283.71,1143.45
1285.16,1145.84
1286.61,1155.44
1288.06,1190.6
1289.51,1215.38
1290.96,1217.77
1292.42,1255.34
1293.87,1305.69
1295.32,1317.68
1296.77,1367.24
1298.22,1410.39
1299.67,1439.17
1301.13,1460.75
1302.58,1507.11
1304.03,1565.45
1305.48,1597.42
1306.93,1645.38
1308.39,1714.91
1309.84,1778.85
1311.29,1842.79
1312.74,1924.31
1314.19,2032.21
1315.64,2122.53
1317.1,2203.26
1318.55,2284.78
1320,2364.71
1321.45,2464.61
1322.9,2598.09
1324.36,2662.03
1325.81,2766.73
1327.26,2854.65
1328.71,2945.76
1330.16,3016.9
1331.61,3070.45
1333.07,3115.21
1334.52,3177.55
1335.97,3211.92
1337.42,3160.76
1338.87,3163.96
1340.33,3109.61
1341.78,3052.86
1343.23,3003.31
1344.68,2916.19
1346.13,2853.05
1347.58,2768.33
1349.04,2642.05
1350.49,2525.35
1351.94,2419.85
1353.39,2291.97
1354.84,2192.86
1356.29,2142.52
1357.75,2045.8
1359.2,1960.28
1360.65,1902.73
1362.1,1802.83
1363.55,1719.71
1365.01,1663.76
1366.46,1611.81
1367.91,1563.05
1369.36,1527.89
1370.81,1493.52
1372.26,1459.15
1373.72,1428.78
1375.17,1402.41
1376.62,1341.66
1378.07,1328.87
1379.52,1300.89
1380.98,1287.31
1382.43,1280.91
1383.88,1256.94
1385.33,1224.17
1386.78,1224.17
1388.23,1227.37
1389.69,1196.19
1391.14,1188.2
1392.59,1221.77
1394.04,1226.57
1395.49,1181.01
1396.94,1179.41
1398.4,1160.22
1399.85,1161.82
1401.3,1168.22
1402.75,1154.64
1404.2,1149.84
1405.66,1146.64
1407.11,1163.42
1408.56,1179.41
1410.01,1166.62
1411.46,1172.21
1412.91,1142.65
1414.37,1162.62
1415.82,1165.02
1417.27,1156.23
1418.72,1148.24
1420.17,1150.64
1421.63,1163.42
1423.08,1155.44
1424.53,1171.41
1425.98,1151.44
1427.43,1160.22
1428.88,1157.83
1430.34,1190.6
1431.79,1197.79
1433.24,1193.79
1434.69,1202.59
1436.14,1212.98
1437.59,1230.56
1439.05,1224.17
1440.5,1224.97
1441.95,1248.15
1443.4,1262.53
1444.85,1261.74
1446.31,1232.96
1447.76,1256.14
1449.21,1270.53
1450.66,1287.31
1452.11,1282.51
1453.56,1280.12
1455.02,1293.7
1456.47,1316.08
1457.92,1332.07
1459.37,1351.25
1460.82,1344.86
1462.28,1352.05
1463.73,1411.99
1465.18,1425.58
1466.63,1433.57
1468.08,1427.98
1469.53,1436.77
1470.99,1446.36
1472.44,1459.95
1473.89,1497.52
1475.34,1529.49
1476.79,1536.67
1478.24,1562.25
1479.7,1563.05
1481.15,1623.8
1482.6,1620.6
1484.05,1656.56
1485.5,1678.94
1486.96,1686.14
1488.41,1715.71
1489.86,1756.47
1491.31,1774.06
1492.76,1813.22
1494.21,1852.38
1495.67,1893.15
1497.12,1917.92
1498.57,1966.68
1500.02,1996.25
1501.47,2065.78
1502.93,2080.17
1504.38,2146.51
1505.83,2214.45
1507.28,2302.36
1508.73,2368.7
1510.18,2443.83
1511.64,2518.97
1513.09,2607.68
1514.54,2720.38
1515.99,2823.48
1517.44,2928.18
1518.89,3006.51
1520.35,3134.39
1521.8,3260.67
1523.25,3450.89
1524.7,3620.34
1526.15,3878.5
1527.61,4062.32
1529.06,4351.66
1530.51,4654.57
1531.96,4996.66
1533.41,5392.29
1534.86,5770.33
1536.32,6227.51
1537.77,6800.58
1539.22,7428.78
1540.67,8143.33
1542.12,8879.41
1543.58,9701.1
1545.03,10583.4
1546.48,11547.3
1547.93,12606.4
1549.38,13722.1
1550.83,14899.4
1552.29,16168.7
1553.74,17435.5
1555.19,18641.6
1556.64,19871.6
1558.09,21155.2
1559.54,22285.4
1561,23441.9
1562.45,24386.6
1563.9,25076.4
1565.35,25478.4
1566.8,25701.4
1568.26,25493.6
1569.71,25067.6
1571.16,24501.7
1572.61,23616.1
1574.06,22468.4
1575.51,21098.4
1576.97,19713.3
1578.42,18306.6
1579.87,16924
1581.32,15554
1582.77,14221.7
1584.23,13014
1585.68,11761.6
1587.13,10690.6
1588.58,9813
1590.03,8946.59
1591.48,8170.48
1592.94,7576.69
1594.39,7073.92
1595.84,6552.81
1597.29,6141.19
1598.74,5739.97
1600.2,5390.69
1601.65,5144.52
1603.1,4895.95
1604.55,4631.4
1606,4429.98
1607.45,4218.98
1608.91,4003.98
1610.36,3803.36
1611.81,3583.57
1613.26,3490.06
1614.71,3312.62
1616.16,3170.35
1617.62,2999.32
1619.07,2864.24
1620.52,2762.74
1621.97,2633.26
1623.42,2508.57
1624.88,2437.44
1626.33,2355.92
1627.78,2260.81
1629.23,2149.71
1630.68,2079.37
1632.13,2041.8
1633.59,1997.05
1635.04,1929.11
1636.49,1879.56
1637.94,1837.2
1639.39,1798.03
1640.85,1764.47
1642.3,1758.07
1643.75,1708.52
1645.2,1656.56
1646.65,1635.79
1648.1,1605.41
1649.56,1555.06
1651.01,1530.28
1652.46,1514.3
1653.91,1479.93
1655.36,1453.55
1656.81,1442.36
1658.27,1432.77
1659.72,1423.98
1661.17,1399.21
1662.62,1357.64
1664.07,1348.85
1665.53,1323.27
1666.98,1324.07
1668.43,1323.27
1669.88,1282.51
1671.33,1264.13
1672.78,1252.14
1674.24,1236.16
1675.69,1228.96
1677.14,1205.78
1678.59,1203.39
1680.04,1200.19
1681.5,1193.79
1682.95,1172.21
1684.4,1161.82
1685.85,1141.85
1687.3,1151.44
1688.75,1125.86
1690.21,1124.26
1691.66,1105.88
1693.11,1105.88
1694.56,1091.49
1696.01,1081.9
1697.46,1085.1
1698.92,1080.3
1700.37,1082.7
1701.82,1082.7
1703.27,1070.71
1704.72,1063.52
1706.18,1063.52
1707.63,1067.51
1709.08,1057.92
1710.53,1043.53
1711.98,1049.93
1713.43,1055.52
1714.89,1048.33
1716.34,1027.55
1717.79,1015.56
1719.24,1005.97
1720.69,1021.16
1722.15,1019.56
1723.6,1032.34
1725.05,1014.77
1726.5,1009.17
1727.95,1008.37
1729.4,1006.77
1730.86,1026.75
1732.31,1021.16
1733.76,1011.57
1735.21,1006.77
1736.66,1005.97
1738.11,999.579
1739.57,1003.58
1741.02,987.589
1742.47,990.786
1743.92,996.381
1745.37,986.79
1746.83,989.188
1748.28,981.994
1749.73,970.804
1751.18,993.184
1752.63,966.008
1754.08,937.233
1755.54,956.417
1756.99,973.202
1758.44,961.212
1759.89,931.638
1761.34,944.427
1762.8,956.417
1764.25,948.424
1765.7,940.431
1767.15,943.628
1768.6,928.441
1770.05,910.057
1771.51,917.251
1772.96,922.047
1774.41,911.656
1775.86,921.247
1777.31,912.455
1778.76,898.074
1780.22,908.459
1781.67,895.676
1783.12,886.884
1784.57,879.69
1786.02,862.905
1787.48,899.673
1788.93,856.511
1790.38,881.289
1791.83,873.296
1793.28,884.486
1794.73,866.902
1796.19,864.504
1797.64,870.898
1799.09,862.905
1800.54,856.511
1801.99,870.898
1803.45,868.5
1804.9,843.722
1806.35,842.123
1807.8,847.719
1809.25,842.923
1810.7,859.708
1812.16,857.31
1813.61,839.726
1815.06,838.926
1816.51,835.729
1817.96,828.535
1819.41,838.127
1820.87,853.314
1822.32,855.712
1823.77,859.708
1825.22,870.898
1826.67,867.701
1828.13,865.303
1829.58,890.881
1831.03,846.919
1832.48,842.123
1833.93,842.923
1835.38,851.715
1836.84,844.521
1838.29,868.5
1839.74,872.497
1841.19,876.493
1842.64,883.687
1844.1,870.898
1845.55,874.895
1847,885.286
1848.45,898.074
1849.9,922.047
1851.35,926.043
1852.81,913.254
1854.26,903.669
1855.71,906.86
1857.16,910.857
1858.61,908.459
1860.07,906.067
1861.52,918.05
1862.97,920.448
1864.42,914.853
1865.87,917.251
1867.32,919.649
1868.78,921.247
1870.23,915.652
1871.68,930.04
1873.13,906.067
1874.58,912.455
1876.03,902.071
1877.49,889.282
1878.94,885.286
1880.39,871.697
1881.84,872.497
1883.29,886.085
1884.75,901.272
1886.2,856.511
1887.65,873.296
1889.1,883.687
1890.55,866.902
1892,860.507
1893.46,860.507
1894.91,852.514
1896.36,840.525
1897.81,823.74
1899.26,809.352
1900.72,829.335
1902.17,836.528
1903.62,826.138
1905.07,825.338
1906.52,816.546
1907.97,818.944
1909.43,809.352
1910.88,816.546
1912.33,806.954
1913.78,804.556
1915.23,802.958
1916.68,794.166
1918.14,778.186
1919.59,786.173
1921.04,796.563
1922.49,798.162
1923.94,814.148
1925.4,803.757
1926.85,786.972
1928.3,762.2
1929.75,794.965
1931.2,793.366
1932.65,782.975
1934.11,799.761
1935.56,802.159
1937.01,791.768
1938.46,777.387
1939.91,764.598
1941.37,774.989
1942.82,794.166
1944.27,805.356
1945.72,806.954
1947.17,798.162
1948.62,802.958
1950.08,802.159
1951.53,786.972
1952.98,810.152
1954.43,805.356
1955.88,799.761
1957.33,802.159
1958.79,799.761
1960.24,799.761
1961.69,800.56
1963.14,809.352
1964.59,809.352
1966.05,796.563
1967.5,801.359
1968.95,819.743
1970.4,811.75
1971.85,799.761
1973.3,796.563
1974.76,793.366
1976.21,795.764
1977.66,817.345
1979.11,833.331
1980.56,829.335
1982.02,819.743
1983.47,819.743
1984.92,826.138
1986.37,820.542
1987.82,839.726
1989.27,834.93
1990.73,830.134
1992.18,838.127
1993.63,836.528
1995.08,826.138
1996.53,849.317
1997.98,839.726
1999.44,844.521
2000.89,841.324
2002.34,821.342
2003.79,856.511
2005.24,846.12
2006.7,827.736
2008.15,824.539
2009.6,818.944
2011.05,806.155
2012.5,818.944
2013.95,818.145
2015.41,779.785
2016.86,857.31
2018.31,808.553
2019.76,792.567
2021.21,818.944
2022.67,809.352
2024.12,802.159
2025.57,800.56
2027.02,815.747
2028.47,807.754
2029.92,856.511
2031.38,810.152
2032.83,796.563
2034.28,778.186
2035.73,779.785
2037.18,793.366
2038.63,765.397
2040.09,774.989
2041.54,781.383
2042.99,770.193
2044.44,765.397
2045.89,770.993
2047.35,760.602
2048.8,770.193
2050.25,752.609
2051.7,747.014
2053.15,746.214
2054.6,743.816
2056.06,744.616
2057.51,751.01
2058.96,749.411
2060.41,727.83
2061.86,730.228
2063.32,731.827
2064.77,755.806
2066.22,742.218
2067.67,735.024
2069.12,740.619
2070.57,736.623
2072.03,729.429
2073.48,724.633
2074.93,714.242
2076.38,714.242
2077.83,715.841
2079.28,719.038
2080.74,714.242
2082.19,719.837
2083.64,716.64
2085.09,711.045
2086.54,717.44
2088,723.834
2089.45,719.038
2090.9,716.64
2092.35,715.841
2093.8,711.844
2095.25,704.651
2096.71,707.848
2098.16,707.848
2099.61,708.647
2101.06,699.855
2102.51,702.253
2103.97,722.235
2105.42,735.024
2106.87,720.637
2108.32,717.44
2109.77,711.844
2111.22,704.651
2112.68,720.637
2114.13,735.024
2115.58,715.841
2117.03,715.042
2118.48,741.418
2119.94,742.218
2121.39,731.028
2122.84,723.035
2124.29,727.031
2125.74,737.422
2127.19,740.619
2128.65,714.242
2130.1,724.633
2131.55,747.813
2133,732.626
2134.45,725.433
2135.9,737.422
2137.36,726.232
2138.81,719.837
2140.26,732.626
2141.71,749.411
2143.16,731.827
2144.62,741.418
2146.07,741.418
2147.52,738.221
2148.97,747.813
2150.42,744.616
2151.87,752.609
2153.33,763
2154.78,751.01
2156.23,747.813
2157.68,751.01
2159.13,757.404
2160.58,759.802
2162.04,761.401
2163.49,750.211
2164.94,745.415
2166.39,753.408
2167.84,766.197
2169.3,759.802
2170.75,751.01
2172.2,748.612
2173.65,770.193
2175.1,766.197
2176.55,758.204
2178.01,769.394
2179.46,771.792
2180.91,758.204
2182.36,759.003
2183.81,764.598
2185.27,763
2186.72,791.768
2188.17,798.961
2189.62,798.162
2191.07,790.968
2192.52,768.595
2193.98,781.383
2195.43,760.602
2196.88,770.993
2198.33,799.761
2199.78,794.965
2201.24,818.145
2202.69,790.169
2204.14,786.173
2205.59,791.768
2207.04,802.958
2208.49,775.788
2209.95,782.975
2211.4,801.359
2212.85,776.588
2214.3,790.968
2215.75,756.605
2217.2,775.788
2218.66,789.37
2220.11,779.785
2221.56,797.363
2223.01,798.162
2224.46,792.567
2225.92,767.795
2227.37,767.795
2228.82,771.792
2230.27,801.359
2231.72,803.757
2233.17,786.972
2234.63,808.553
2236.08,802.159
2237.53,784.574
2238.98,802.159
2240.43,805.356
2241.89,814.148
2243.34,810.152
2244.79,809.352
2246.24,822.141
2247.69,825.338
2249.14,818.944
2250.6,814.947
2252.05,810.951
2253.5,816.546
2254.95,813.349
2256.4,805.356
2257.85,826.138
2259.31,840.525
2260.76,821.342
2262.21,825.338
2263.66,822.141
2265.11,825.338
2266.57,837.328
2268.02,833.331
2269.47,827.736
2270.92,826.138
2272.37,818.145
2273.82,843.722
2275.28,832.532
2276.73,826.138
2278.18,830.134
2279.63,830.933
2281.08,844.521
2282.54,853.314
2283.99,846.12
2285.44,873.296
2286.89,866.902
2288.34,863.705
2289.79,870.099
2291.25,874.895
2292.7,866.902
2294.15,857.31
2295.6,871.697
2297.05,863.705
2298.5,878.092
2299.96,887.683
2301.41,898.874
2302.86,876.493
2304.31,860.507
2305.76,913.254
2307.22,917.251
2308.67,894.078
2310.12,888.483
2311.57,885.286
2313.02,918.05
2314.47,934.835
2315.93,907.659
2317.38,908.459
2318.83,922.047
2320.28,890.881
2321.73,898.074
2323.19,918.849
2324.64,934.835
2326.09,938.832
2327.54,942.828
2328.99,933.237
2330.44,937.233
2331.9,944.427
2333.35,943.628
2334.8,954.818
2336.25,958.015
2337.7,961.212
2339.16,958.015
2340.61,958.015
2342.06,977.198
2343.51,985.191
2344.96,983.593
2346.41,996.381
2347.87,980.395
2349.32,988.388
2350.77,1018.76
2352.22,1024.36
2353.67,1027.55
2355.12,1029.95
2356.58,1032.34
2358.03,1023.56
2359.48,1046.73
2360.93,1021.96
2362.38,1039.54
2363.84,1053.92
2365.29,1057.12
2366.74,1055.52
2368.19,1072.31
2369.64,1097.09
2371.09,1117.07
2372.55,1137.85
2374,1139.45
2375.45,1165.02
2376.9,1165.02
2378.35,1175.41
2379.8,1206.58
2381.26,1204.19
2382.71,1214.58
2384.16,1216.97
2385.61,1236.16
2387.06,1255.34
2388.52,1249.75
2389.97,1298.5
2391.42,1322.48
2392.87,1348.05
2394.32,1368.04
2395.77,1411.19
2397.23,1391.21
2398.68,1401.61
2400.13,1448.76
2401.58,1485.53
2403.03,1520.69
2404.49,1527.89
2405.94,1555.06
2407.39,1596.62
2408.84,1615.01
2410.29,1638.98
2411.74,1657.36
2413.2,1679.74
2414.65,1694.93
2416.1,1750.08
2417.55,1784.44
2419,1782.84
2420.46,1786.04
2421.91,1794.83
2423.36,1769.26
2424.81,1786.04
2426.26,1841.19
2427.71,1831.6
2429.17,1837.2
2430.62,1881.16
2432.07,1857.18
2433.52,1861.98
2434.97,1810.02
2436.42,1826.81
2437.88,1848.39
2439.33,1826.81
2440.78,1820.41
2442.23,1796.43
2443.68,1777.25
2445.14,1794.03
2446.59,1769.26
2448.04,1778.85
2449.49,1777.25
2450.94,1756.47
2452.39,1726.1
2453.85,1720.51
2455.3,1705.32
2456.75,1696.53
2458.2,1683.74
2459.65,1674.95
2461.1,1661.36
2462.56,1643.78
2464.01,1654.16
2465.46,1636.59
2466.91,1600.62
2468.36,1614.21
2469.82,1579.84
2471.27,1630.19
2472.72,1622.2
2474.17,1588.63
2475.62,1574.24
2477.07,1556.66
2478.53,1550.26
2479.98,1535.87
2481.43,1542.27
2482.88,1575.84
2484.33,1577.44
2485.79,1579.84
2487.24,1547.86
2488.69,1547.86
2490.14,1543.07
2491.59,1563.05
2493.04,1559.85
2494.5,1558.26
2495.95,1542.27
2497.4,1564.65
2498.85,1547.86
2500.3,1575.84
2501.76,1587.83
2503.21,1580.64
2504.66,1605.41
2506.11,1588.63
2507.56,1574.24
2509.01,1563.85
2510.47,1621.4
2511.92,1606.21
2513.37,1607.01
2514.82,1640.58
2516.27,1648.58
2517.72,1661.36
2519.18,1654.96
2520.63,1639.78
2522.08,1662.96
2523.53,1686.14
2524.98,1699.72
2526.44,1679.74
2527.89,1702.92
2529.34,1733.29
2530.79,1764.47
2532.24,1774.86
2533.69,1780.45
2535.15,1806.02
2536.6,1798.83
2538.05,1875.56
2539.5,1853.98
2540.95,1873.96
2542.41,1897.14
2543.86,1925.91
2545.31,1949.09
2546.76,1969.07
2548.21,1956.29
2549.66,1993.85
2551.12,2029.02
2552.57,2090.56
2554.02,2124.93
2555.47,2128.93
2556.92,2149.71
2558.37,2180.08
2559.83,2226.44
2561.28,2248.82
2562.73,2273.59
2564.18,2360.71
2565.63,2415.06
2567.09,2432.64
2568.54,2471.81
2569.99,2514.97
2571.44,2570.91
2572.89,2604.48
2574.34,2662.03
2575.8,2672.42
2577.25,2808.29
2578.7,2897.81
2580.15,2944.17
2581.6,2994.52
2583.06,3054.46
2584.51,3122.4
2585.96,3222.31
2587.41,3344.59
2588.86,3426.12
2590.31,3504.45
2591.77,3578.78
2593.22,3717.05
2594.67,3816.95
2596.12,3935.24
2597.57,4091.9
2599.02,4214.98
2600.48,4342.07
2601.93,4485.93
2603.38,4630.6
2604.83,4831.21
2606.28,4986.27
2607.74,5202.86
2609.19,5345.93
2610.64,5565.73
2612.09,5725.58
2613.54,5978.14
2614.99,6227.51
2616.45,6480.88
2617.9,6752.62
2619.35,7029.13
2620.8,7289.73
2622.25,7603.04
2623.71,7906.78
2625.16,8259.2
2626.61,8576.54
2628.06,8889.85
2629.51,9329.4
2630.96,9645.15
2632.42,10087.9
2633.87,10438.8
2635.32,10829.6
2636.77,11209.3
2638.22,11639.3
2639.68,12003.7
2641.13,12306.7
2642.58,12663.9
2644.03,13066.7
2645.48,13402.4
2646.93,13804.5
2648.39,14001.9
2649.84,14377.5
2651.29,14635.7
2652.74,14835.5
2654.19,15012.1
2655.64,15278.3
2657.1,15365.4
2658.55,15470.1
2660,15567.6
2661.45,15540.5
2662.9,15434.1
2664.36,15350.2
2665.81,15259.9
2667.26,15052.9
2668.71,14949
2670.16,14788.3
2671.61,14574.9
2673.07,14223.3
2674.52,13916.4
2675.97,13468
2677.42,13171.4
2678.87,12795
2680.32,12469.7
2681.78,12042.1
2683.23,11613.7
2684.68,11199.7
2686.13,10818.5
2687.58,10378.9
2689.04,10051.9
2690.49,9620.38
2691.94,9256.67
2693.39,8857.08
2694.84,8469.39
2696.29,8116.18
2697.75,7758.08
2699.2,7475.95
2700.65,7149.03
2702.1,6807.77
2703.55,6512.85
2705.01,6207.53
2706.46,5995.73
2707.91,5715.19
2709.36,5492.2
2710.81,5245.23
2712.26,4996.66
2713.72,4839.2
2715.17,4664.16
2716.62,4469.95
2718.07,4260.54
2719.52,4130.26
2720.98,3993.59
2722.43,3819.35
2723.88,3694.67
2725.33,3582.77
2726.78,3442.1
2728.23,3311.82
2729.69,3259.08
2731.14,3125.6
2732.59,3022.5
2734.04,2954.56
2735.49,2869.84
2736.94,2774.73
2738.4,2702.79
2739.85,2628.46
2741.3,2529.35
2742.75,2499.78
2744.2,2481.4
2745.66,2363.11
2747.11,2308.76
2748.56,2266.4
2750.01,2235.23
2751.46,2199.26
2752.91,2168.89
2754.37,2103.35
2755.82,2068.18
2757.27,2023.43
2758.72,1993.85
2760.17,1914.72
2761.63,1912.32
2763.08,1890.75
2764.53,1834
2765.98,1838
2767.43,1807.62
2768.88,1745.28
2770.34,1748.48
2771.79,1708.52
2773.24,1677.34
2774.69,1654.16
2776.14,1638.18
2777.59,1658.16
2779.05,1600.62
2780.5,1585.43
2781.95,1576.64
2783.4,1584.63
2784.85,1566.25
2786.31,1531.08
2787.76,1505.51
2789.21,1504.71
2790.66,1481.53
2792.11,1463.15
2793.56,1435.17
2795.02,1432.77
2796.47,1427.18
2797.92,1425.58
2799.37,1405.6
2800.82,1405.6
2802.28,1402.41
2803.73,1368.04
2805.18,1358.44
2806.63,1360.04
2808.08,1341.66
2809.53,1312.08
2810.99,1320.88
2812.44,1317.68
2813.89,1280.91
2815.34,1285.71
2816.79,1267.33
2818.24,1280.12
2819.7,1279.32
2821.15,1267.33
2822.6,1249.75
2824.05,1241.75
2825.5,1237.76
2826.96,1250.55
2828.41,1232.96
2829.86,1244.95
2831.31,1203.39
2832.76,1189
2834.21,1204.19
2835.67,1212.18
2837.12,1209.78
2838.57,1208.98
2840.02,1174.61
2841.47,1195.39
2842.93,1151.44
2844.38,1168.22
2845.83,1157.83
2847.28,1144.24
2848.73,1137.05
2850.18,1155.44
2851.64,1150.64
2853.09,1157.03
2854.54,1150.64
2855.99,1140.25
2857.44,1122.66
2858.9,1149.84
2860.35,1133.05
2861.8,1123.46
2863.25,1142.65
2864.7,1125.06
2866.15,1129.06
2867.61,1140.25
2869.06,1150.64
2870.51,1142.65
2871.96,1192.2
2873.41,1155.44
2874.86,1155.44
2876.32,1125.86
2877.77,1138.65
2879.22,1129.86
2880.67,1145.04
2882.12,1164.22
2883.58,1161.82
2885.03,1157.83
2886.48,1150.64
2887.93,1118.67
2889.38,1137.85
2890.83,1127.46
2892.29,1167.42
2893.74,1149.84
2895.19,1132.26
2896.64,1127.46
2898.09,1128.26
2899.54,1132.26
2901,1118.67
2902.45,1120.27
2903.9,1168.22
2905.35,1121.07
2906.8,1144.24
2908.26,1145.04
2909.71,1140.25
2911.16,1121.07
2912.61,1110.67
2914.06,1096.29
2915.51,1105.88
2916.97,1092.29
2918.42,1105.88
2919.87,1097.09
2921.32,1101.88
2922.77,1084.3
2924.23,1075.51
2925.68,1061.92
2927.13,1063.52
2928.58,1084.3
2930.03,1057.12
2931.48,1055.52
2932.94,1024.36
2934.39,1037.94
2935.84,1029.15
2937.29,1021.96
2938.74,1002.78
2940.2,1009.17
2941.65,985.991
2943.1,957.216
2944.55,962.811
2946,967.607
2947.45,934.835
2948.91,921.247
2950.36,930.839
2951.81,941.23
2953.26,906.86
2954.71,914.853
2956.16,926.842
2957.62,906.86
2959.07,890.081
2960.52,896.476
2961.97,876.493
2963.42,874.895
2964.88,845.321
2966.33,848.518
2967.78,867.701
2969.23,853.314
2970.68,842.923
2972.13,847.719
2973.59,826.937
2975.04,822.141
2976.49,831.733
2977.94,826.138
2979.39,818.145
2980.84,813.349
2982.3,815.747
2983.75,799.761
2985.2,795.764
2986.65,779.785
2988.1,798.961
2989.56,799.761
2991.01,796.563
2992.46,802.159
2993.91,790.968
2995.36,781.383
2996.81,769.394
2998.27,774.989
2999.72,778.186
3001.17,760.602
3002.62,758.204
3004.07,751.809
3005.53,777.387
3006.98,769.394
3008.43,759.003
3009.88,759.802
3011.33,756.605
3012.78,759.003
3014.24,759.003
3015.69,731.028
3017.14,749.411
3018.59,743.017
3020.04,735.823
3021.5,749.411
3022.95,743.017
3024.4,740.619
3025.85,751.01
3027.3,748.612
3028.75,732.626
3030.21,767.795
3031.66,728.63
3033.11,744.616
3034.56,752.609
3036.01,735.024
3037.46,736.623
3038.92,741.418
3040.37,728.63
3041.82,739.82
3043.27,751.01
3044.72,723.834
3046.18,733.426
3047.63,738.221
3049.08,742.218
3050.53,744.616
3051.98,743.017
3053.43,739.021
3054.89,739.021
3056.34,740.619
3057.79,741.418
3059.24,755.806
3060.69,751.809
3062.15,749.411
3063.6,747.813
3065.05,753.408
3066.5,763.799
3067.95,755.007
3069.4,743.816
3070.86,752.609
3072.31,757.404
3073.76,758.204
3075.21,782.176
3076.66,757.404
3078.11,786.972
3079.57,784.574
3081.02,785.373
3082.47,785.373
3083.92,796.563
3085.37,799.761
3086.83,816.546
3088.28,803.757
3089.73,806.155
3091.18,806.954
3092.63,827.736
3094.08,850.116
3095.54,846.919
3096.99,852.514
3098.44,883.687
3099.89,874.095
3101.34,874.095
3102.8,911.656
3104.25,933.237
3105.7,945.226
3107.15,962.012
3108.6,956.417
3110.05,962.811
3111.51,976.399
3112.96,990.786
3114.41,1037.14
3115.86,1029.95
3117.31,1037.94
3118.76,1022.76
3120.22,1061.92
3121.67,1081.1
3123.12,1079.5
3124.57,1101.08
3126.02,1129.86
3127.48,1124.26
3128.93,1189
3130.38,1174.61
3131.83,1165.02
3133.28,1173.81
3134.73,1198.59
3136.19,1185.8
3137.64,1193
3139.09,1177.81
3140.54,1217.77
3141.99,1224.17
3143.45,1232.16
3144.9,1217.77
3146.35,1231.36
3147.8,1243.35
3149.25,1265.73
3150.7,1248.15
3152.16,1284.91
3153.61,1273.72
3155.06,1248.15
3156.51,1258.54
3157.96,1264.93
3159.42,1282.51
3160.87,1242.55
3162.32,1273.72
3163.77,1280.12
3165.22,1276.92
3166.67,1296.9
3168.13,1299.3
3169.58,1276.12
3171.03,1264.13
3172.48,1292.1
3173.93,1289.7
3175.38,1315.28
3176.84,1343.26
3178.29,1341.66
3179.74,1370.43
3181.19,1372.83
3182.64,1388.82
3184.1,1427.98
3185.55,1404.8
3187,1432.77
3188.45,1442.36
3189.9,1437.57
3191.35,1475.13
3192.81,1464.74
3194.26,1466.34
3195.71,1490.32
3197.16,1491.92
3198.61,1476.73
3200.06,1521.49
3201.52,1514.3
3202.97,1518.3
3204.42,1485.53
3205.87,1500.71
3207.32,1507.91
3208.78,1481.53
3210.23,1503.91
3211.68,1437.57
3213.13,1396.01
3214.58,1386.42
3216.03,1356.85
3217.49,1348.05
3218.94,1316.88
3220.39,1290.5
3221.84,1256.94
3223.29,1234.56
3224.75,1179.41
3226.2,1153.84
3227.65,1141.85
3229.1,1107.48
3230.55,1072.31
3232,1051.53
3233.46,1017.16
3234.91,988.388
3236.36,968.406
3237.81,970.804
3239.26,911.656
3240.72,873.296
3242.17,865.303
3243.62,864.504
3245.07,840.525
3246.52,814.947
3247.97,782.975
3249.43,806.155
3250.88,758.204
3252.33,737.422
3253.78,731.028
3255.23,721.436
3256.68,706.249
3258.14,734.225
3259.59,707.848
3261.04,695.059
3262.49,679.073
3263.94,678.274
3265.4,664.686
3266.85,643.908
3268.3,667.883
3269.75,666.284
3271.2,645.507
3272.65,651.9
3274.11,640.711
3275.56,637.514
3277.01,633.518
3278.46,630.321
3279.91,619.131
3281.37,619.93
3282.82,631.12
3284.27,636.715
3285.72,599.949
3287.17,615.135
3288.62,611.139
3290.08,605.544
3291.53,599.15
3292.98,585.563
3294.43,609.54
3295.88,594.354
3297.33,602.347
3298.79,601.547
3300.24,615.934
3301.69,601.547
3303.14,602.347
3304.59,591.157
3306.05,634.317
3307.5,602.347
3308.95,595.953
3310.4,598.351
3311.85,589.558
3313.3,589.558
3314.76,584.763
3316.21,596.752
3317.66,591.956
3319.11,579.168
3320.56,590.358
3322.02,581.566
3323.47,585.563
3324.92,590.358
3326.37,595.154
3327.82,595.154
3329.27,589.558
3330.73,584.763
3332.18,590.358
3333.63,597.551
3335.08,570.377
3336.53,566.38
3337.98,595.953
3339.44,575.172
3340.89,575.971
3342.34,581.566
3343.79,589.558
3345.24,581.566
3346.7,577.57
3348.15,571.975
3349.6,577.57
3351.05,579.968
3352.5,561.585
3353.95,583.165
3355.41,571.176
3356.86,550.395
3358.31,565.581
3359.76,587.161
3361.21,575.971
3362.67,581.566
3364.12,567.979
3365.57,573.574
3367.02,578.369
3368.47,564.781
3369.92,574.373
3371.38,583.165
3372.83,574.373
3374.28,548.797
3375.73,556.789
3377.18,572.774
3378.63,577.57
3380.09,583.964
3381.54,556.789
3382.99,555.99
3384.44,555.99
3385.89,551.194
3387.35,567.179
3388.8,553.592
3390.25,561.585
3391.7,552.793
3393.15,549.596
3394.6,558.388
3396.06,565.581
3397.51,568.778
3398.96,575.971
3400.41,558.388
3401.86,555.191
3403.32,563.183
3404.77,567.179
3406.22,581.566
3407.67,551.993
3409.12,559.986
3410.57,553.592
3412.03,547.998
3413.48,536.009
3414.93,567.979
3416.38,565.581
3417.83,555.191
3419.28,553.592
3420.74,579.968
3422.19,551.194
3423.64,570.377
3425.09,559.986
3426.54,548.797
3428,532.012
3429.45,559.187
3430.9,563.183
3432.35,567.979
3433.8,568.778
3435.25,543.202
3436.71,546.399
3438.16,546.399
3439.61,566.38
3441.06,562.384
3442.51,546.399
3443.97,540.005
3445.42,533.611
3446.87,559.986
3448.32,543.202
3449.77,538.406
3451.22,543.202
3452.68,568.778
3454.13,532.812
3455.58,535.209
3457.03,563.183
3458.48,548.797
3459.94,549.596
3461.39,537.607
3462.84,547.998
3464.29,552.793
3465.74,550.395
3467.19,550.395
3468.65,529.614
3470.1,556.789
3471.55,547.998
3473,532.812
3474.45,519.224
3475.9,551.194
3477.36,563.982
3478.81,567.979
3480.26,559.187
3481.71,534.41
3483.16,548.797
3484.62,523.221
3486.07,555.99
3487.52,540.005
3488.97,528.016
3490.42,544.8
3491.87,548.797
3493.33,556.789
3494.78,544.001
3496.23,544.001
3497.68,546.399
3499.13,544.8
3500.58,552.793
3502.04,564.781
3503.49,544.001
3504.94,530.414
3506.39,524.02
3507.84,550.395
3509.3,569.577
3510.75,571.975
3512.2,541.603
3513.65,543.202
3515.1,554.391
3516.55,546.399
3518.01,555.191
3519.46,549.596
3520.91,545.6
3522.36,544.001
3523.81,547.198
3525.27,547.998
3526.72,536.009
3528.17,551.993
3529.62,540.804
3531.07,550.395
3532.52,557.589
3533.98,552.793
3535.43,560.786
3536.88,551.194
3538.33,529.614
3539.78,547.198
3541.24,551.993
3542.69,537.607
3544.14,552.793
3545.59,556.789
3547.04,544.8
3548.49,538.406
3549.95,550.395
3551.4,539.205
3552.85,531.213
3554.3,533.611
3555.75,554.391
3557.2,560.786
3558.66,540.804
3560.11,536.009
3561.56,542.402
3563.01,543.202
3564.46,546.399
3565.92,546.399
3567.37,541.603
3568.82,544.001
3570.27,544.8
3571.72,532.012
3573.17,537.607
3574.63,548.797
3576.08,546.399
3577.53,559.187
3578.98,521.622
3580.43,536.808
3581.89,532.812
3583.34,534.41
3584.79,526.417
3586.24,551.194
3587.69,534.41
3589.14,549.596
3590.6,550.395
3592.05,536.009
3593.5,537.607
3594.95,532.812
3596.4,526.417
3597.85,527.216
3599.31,546.399
3600.76,548.797
3602.21,530.414
3603.66,547.998
3605.11,515.228
3606.57,546.399
3608.02,544.8
3609.47,540.005
3610.92,544.001
3612.37,559.986
3613.82,537.607
3615.28,540.804
3616.73,528.815
3618.18,559.986
3619.63,527.216
3621.08,550.395
3622.54,544.001
3623.99,549.596
3625.44,554.391
3626.89,547.198
3628.34,531.213
3629.79,535.209
3631.25,536.808
3632.7,543.202
3634.15,536.808
3635.6,533.611
3637.05,528.016
3638.5,542.402
3639.96,536.808
3641.41,544.8
3642.86,540.005
3644.31,530.414
3645.76,544.001
3647.22,536.808
3648.67,537.607
3650.12,528.016
3651.57,532.012
3653.02,522.421
3654.47,542.402
3655.93,564.781
3657.38,543.202
3658.83,549.596
3660.28,542.402
3661.73,542.402
3663.19,532.812
3664.64,549.596
3666.09,521.622
3667.54,540.005
3668.99,543.202
3670.44,556.789
3671.9,542.402
3673.35,536.009
3674.8,559.187
3676.25,551.194
3677.7,526.417
3679.16,542.402
3680.61,542.402
3682.06,555.99
3683.51,543.202
3684.96,547.998
3686.41,547.998
3687.87,541.603
3689.32,550.395
3690.77,529.614
3692.22,552.793
3693.67,537.607
3695.12,541.603
3696.58,546.399
3698.03,551.993
3699.48,552.793
3700.93,551.993
3702.38,541.603
3703.84,558.388
3705.29,547.198
3706.74,532.812
3708.19,547.998
3709.64,573.574
3711.09,559.187
3712.55,553.592
3714,540.005
3715.45,544.001
3716.9,548.797
3718.35,555.191
3719.8,560.786
3721.26,548.797
3722.71,536.808
3724.16,548.797
3725.61,557.589
3727.06,557.589
3728.52,547.998
3729.97,544.8
3731.42,557.589
3732.87,553.592
3734.32,548.797
3735.77,568.778
3737.23,565.581
3738.68,555.191
3740.13,535.209
3741.58,562.384
3743.03,540.804
3744.49,544.8
3745.94,571.176
3747.39,555.99
3748.84,561.585
3750.29,568.778
3751.74,551.194
3753.2,551.993
3754.65,551.993
3756.1,538.406
3757.55,555.191
3759,547.998
3760.46,559.986
3761.91,564.781
3763.36,567.979
3764.81,569.577
3766.26,572.774
3767.71,544.8
3769.17,554.391
3770.62,567.179
3772.07,540.005
3773.52,547.198
3774.97,558.388
3776.42,544.001
3777.88,555.99
3779.33,557.589
3780.78,571.176
3782.23,572.774
3783.68,574.373
3785.14,586.362
3786.59,559.187
3788.04,553.592
3789.49,545.6
3790.94,569.577
3792.39,569.577
3793.85,563.982
3795.3,573.574
3796.75,576.77
3798.2,571.176
3799.65,565.581
3801.1,567.979
3802.56,534.41
3804.01,575.971
3805.46,566.38
3806.91,563.982
3808.36,583.165
3809.82,576.77
3811.27,565.581
3812.72,562.384
3814.17,564.781
3815.62,586.362
3817.07,579.968
3818.53,579.168
3819.98,604.744
3821.43,559.986
3822.88,560.786
3824.33,561.585
3825.79,578.369
3827.24,611.139
3828.69,608.741
3830.14,566.38
3831.59,588.759
3833.04,567.979
3834.5,574.373
3835.95,577.57
3837.4,585.563
3838.85,578.369
3840.3,576.77
3841.76,614.335
3843.21,552.793
3844.66,573.574
3846.11,574.373
3847.56,560.786
3849.01,609.54
3850.47,559.986
3851.92,583.165
3853.37,556.789
3854.82,567.179
3856.27,589.558
3857.72,590.358
3859.18,599.15
3860.63,596.752
3862.08,567.979
3863.53,589.558
3864.98,598.351
3866.44,619.131
3867.89,586.362
3869.34,579.168
3870.79,594.354
3872.24,597.551
3873.69,588.759
3875.15,597.551
3876.6,575.971
3878.05,584.763
3879.5,604.744
3880.95,582.365
3882.41,592.756
3883.86,604.744
3885.31,591.956
3886.76,587.96
3888.21,599.15
3889.66,601.547
3891.12,595.953
3892.57,619.93
3894.02,617.533
3895.47,623.128
3896.92,612.737
3898.37,611.938
3899.83,607.142
3901.28,598.351
3902.73,615.934
3904.18,607.942
3905.63,624.726
3907.09,616.733
3908.54,619.131
3909.99,635.916
3911.44,626.324
3912.89,628.722
3914.34,627.123
3915.8,604.744
3917.25,620.73
3918.7,650.302
3920.15,640.711
3921.6,661.489
3923.06,641.51
3924.51,617.533
3925.96,652.7
3927.41,647.105
3928.86,638.313
3930.31,675.077
3931.77,656.696
3933.22,659.893
3934.67,662.288
3936.12,659.094
3937.57,663.087
3939.02,666.284
3940.48,659.094
3941.93,651.101
3943.38,656.696
3944.83,667.084
3946.28,663.887
3947.74,667.084
3949.19,663.887
3950.64,671.08
3952.09,656.696
3953.54,649.503
3954.99,677.475
3956.45,672.679
3957.9,664.686
3959.35,705.45
3960.8,675.876
3962.25,686.267
3963.71,675.077
3965.16,679.073
3966.61,689.464
3968.06,687.866
3969.51,693.461
3970.96,680.672
3972.42,691.862
3973.87,694.26
3975.32,702.253
3976.77,695.059
3978.22,702.253
3979.68,699.855
3981.13,696.658
3982.58,718.239
3984.03,706.249
3985.48,729.429
3986.93,699.056
3988.39,720.637
3989.84,744.616
3991.29,720.637
3992.74,717.44
3994.19,710.246
3995.64,730.228
3997.1,730.228
3998.55,736.623
4000,734.225
