1.77681,30580.5
3.2286,20907.2
4.68039,7580.67
6.13218,2128.48
7.58397,257.429
9.03575,55.6813
10.4875,47.8573
11.9393,48.9751
13.3911,51.7695
14.8429,51.2106
16.2947,48.4162
17.7465,45.6219
19.1983,38.3568
20.6501,32.7682
22.1018,29.4151
23.5536,26.0619
25.0054,23.2677
26.4572,21.0322
27.909,19.3557
29.3608,18.2379
30.8126,16.5614
32.2644,16.0025
33.7161,14.8848
35.1679,14.326
36.6197,14.8848
38.0715,16.5614
39.5233,16.5614
40.9751,17.6791
42.4269,19.3557
43.8787,21.0322
45.3304,24.9443
46.7822,28.8562
48.234,40.5922
49.6858,66.2996
51.1376,109.89
52.5894,179.748
54.0412,285.93
55.493,430.674
56.9447,605.597
58.3965,791.138
59.8483,974.444
61.3001,1100.74
62.7519,1197.43
64.2037,1285.17
65.6555,1328.2
67.1073,1370.67
68.559,1394.7
70.0108,1413.71
71.4626,1456.74
72.9144,1485.24
74.3662,1503.68
75.818,1521.56
77.2698,1551.74
78.7216,1612.66
80.1733,1657.92
81.6251,1699.84
83.0769,1721.07
84.5287,1731.69
85.9805,1742.87
87.4323,1711.57
88.8841,1661.84
90.3359,1614.33
91.7877,1554.54
93.2394,1493.06
94.6912,1414.26
96.143,1358.38
97.5948,1309.76
99.0466,1235.99
100.498,1210.28
101.95,1158.3
103.402,1119.19
104.854,1094.04
106.306,1081.74
107.757,1069.45
109.209,1062.18
110.661,1047.09
112.113,1024.74
113.564,1014.68
115.016,1006.3
116.468,987.294
117.92,970.532
119.372,958.795
120.823,942.028
122.275,911.29
123.727,885.586
125.179,862.112
126.631,853.17
128.082,853.17
129.534,820.196
130.986,805.11
132.438,797.845
133.889,779.402
135.341,765.988
136.793,759.841
138.245,745.31
139.697,733.014
141.148,716.252
142.6,712.899
144.052,696.132
145.504,680.484
146.956,672.1
148.407,668.188
149.859,668.747
151.311,650.862
152.763,636.331
154.215,635.772
155.666,635.772
157.118,622.364
158.57,643.038
160.022,648.627
161.473,644.715
162.925,648.627
164.377,674.895
165.829,683.837
167.281,689.984
168.732,698.927
170.184,687.19
171.636,656.451
173.088,632.983
174.54,611.186
175.991,583.801
177.443,575.976
178.895,569.829
180.347,571.505
181.798,563.122
183.25,553.062
184.702,548.591
186.154,547.473
187.606,542.448
189.057,536.3
190.509,530.711
191.961,524.563
193.413,540.771
194.865,536.859
196.316,530.152
197.768,522.328
199.22,530.711
200.672,522.328
202.124,523.446
203.575,525.681
205.027,513.386
206.479,516.739
207.931,519.533
209.382,525.681
210.834,522.887
212.286,511.15
213.738,508.915
215.19,520.651
216.641,520.092
218.093,520.651
219.545,518.416
220.997,507.238
222.449,504.443
223.9,501.09
225.352,507.238
226.804,510.591
228.256,502.208
229.707,499.413
231.159,505.002
232.611,510.032
234.063,511.709
235.515,521.21
236.966,503.885
238.418,505.561
239.87,512.268
241.322,508.356
242.774,498.855
244.225,495.501
245.677,498.296
247.129,498.296
248.581,496.06
250.033,482.088
251.484,492.707
252.936,488.795
254.388,482.088
255.84,480.97
257.291,497.178
258.743,495.501
260.195,479.852
261.647,482.647
263.099,483.765
264.55,464.763
266.002,460.294
267.454,469.234
268.906,472.587
270.358,469.234
271.809,470.351
273.261,472.587
274.713,462.527
276.165,465.88
277.616,462.527
279.068,447.44
280.52,444.646
281.972,456.94
283.424,450.234
284.875,444.646
286.327,441.851
287.779,447.44
289.231,448.558
290.683,440.734
292.134,431.792
293.586,427.321
295.038,435.704
296.49,428.439
297.941,418.938
299.393,427.88
300.845,427.321
302.297,404.967
303.749,405.526
305.2,406.643
306.652,407.761
308.104,406.643
309.556,403.29
311.008,399.378
312.459,401.614
313.911,393.79
315.363,397.702
316.815,406.643
318.267,384.848
319.718,381.495
321.17,383.73
322.622,383.73
324.074,386.524
325.525,383.73
326.977,384.848
328.429,380.377
329.881,385.407
331.333,388.201
332.784,379.259
334.236,383.172
335.688,370.877
337.14,375.906
338.592,374.23
340.043,361.935
341.495,367.523
342.947,386.524
344.399,373.671
345.85,365.847
347.302,371.994
348.754,379.818
350.206,378.142
351.658,377.583
353.109,370.318
354.561,365.847
356.013,366.406
357.465,357.464
358.917,363.053
360.368,369.2
361.82,367.523
363.272,360.258
364.724,356.346
366.176,359.699
367.627,363.611
369.079,362.494
370.531,361.376
371.983,370.877
373.434,361.935
374.886,361.935
376.338,358.582
377.79,356.346
379.242,360.258
380.693,364.17
382.145,354.111
383.597,347.405
385.049,342.375
386.501,345.169
387.952,350.758
389.404,353.552
390.856,352.434
392.308,352.434
393.759,354.67
395.211,354.67
396.663,356.905
398.115,347.405
399.567,355.229
401.018,358.023
402.47,354.111
403.922,350.758
405.374,360.817
406.826,351.875
408.277,357.464
409.729,359.699
411.181,350.758
412.633,355.229
414.085,356.346
415.536,347.964
416.988,342.934
418.44,346.846
419.892,356.346
421.343,355.788
422.795,354.67
424.247,348.522
425.699,341.816
427.151,340.699
428.602,355.788
430.054,355.788
431.506,355.788
432.958,349.64
434.41,346.846
435.861,356.905
437.313,345.728
438.765,351.875
440.217,353.552
441.668,348.522
443.12,344.051
444.572,356.346
446.024,354.111
447.476,350.199
448.927,348.522
450.379,345.169
451.831,344.051
453.283,334.551
454.735,337.345
456.186,337.904
457.638,341.257
459.09,345.169
460.542,341.816
461.993,317.785
463.445,335.669
464.897,340.699
466.349,340.699
467.801,340.699
469.252,333.992
470.704,345.728
472.156,343.492
473.608,343.492
475.06,342.934
476.511,341.257
477.963,337.904
479.415,339.581
480.867,345.728
482.319,339.022
483.77,332.874
485.222,339.581
486.674,349.64
488.126,336.227
489.577,339.581
491.029,345.728
492.481,344.61
493.933,336.227
495.385,330.08
496.836,339.581
498.288,340.699
499.74,339.581
501.192,339.022
502.644,330.08
504.095,331.757
505.547,330.639
506.999,334.551
508.451,337.904
509.902,339.581
511.354,335.669
512.806,328.404
514.258,330.08
515.71,341.816
517.161,346.846
518.613,339.022
520.065,323.932
521.517,326.727
522.969,328.962
524.42,328.962
525.872,328.404
527.324,328.962
528.776,335.11
530.228,335.669
531.679,341.816
533.131,341.257
534.583,335.11
536.035,335.11
537.486,325.05
538.938,313.873
540.39,323.374
541.842,330.639
543.294,329.521
544.745,332.315
546.197,334.551
547.649,333.433
549.101,331.198
550.553,331.198
552.004,331.757
553.456,334.551
554.908,333.433
556.36,333.433
557.811,333.433
559.263,339.022
560.715,336.227
562.167,326.168
563.619,333.992
565.07,331.198
566.522,329.521
567.974,323.932
569.426,322.256
570.878,332.874
572.329,320.021
573.781,335.669
575.233,340.14
576.685,335.669
578.137,330.639
579.588,330.639
581.04,327.286
582.492,325.609
583.944,331.198
585.395,332.315
586.847,327.286
588.299,323.374
589.751,326.727
591.203,339.022
592.654,328.404
594.106,321.697
595.558,327.845
597.01,325.609
598.462,326.168
599.913,325.05
601.365,335.669
602.817,337.345
604.269,332.315
605.72,336.786
607.172,336.227
608.624,322.256
610.076,328.404
611.528,330.639
612.979,329.521
614.431,328.404
615.883,333.433
617.335,333.433
618.787,336.786
620.238,337.345
621.69,330.08
623.142,328.404
624.594,338.463
626.046,328.404
627.497,328.962
628.949,333.992
630.401,332.874
631.853,324.491
633.304,330.639
634.756,339.022
636.208,331.198
637.66,340.14
639.112,345.728
640.563,340.14
642.015,341.816
643.467,346.846
644.919,337.345
646.371,335.11
647.822,336.786
649.274,340.699
650.726,342.934
652.178,358.582
653.629,348.522
655.081,351.316
656.533,348.522
657.985,344.051
659.437,343.492
660.888,353.552
662.34,346.846
663.792,346.846
665.244,344.61
666.696,342.375
668.147,346.287
669.599,347.405
671.051,344.61
672.503,344.61
673.954,349.081
675.406,349.081
676.858,348.522
678.31,350.199
679.762,347.964
681.213,354.67
682.665,354.111
684.117,353.552
685.569,349.64
687.021,344.051
688.472,351.316
689.924,344.051
691.376,346.846
692.828,341.257
694.28,341.257
695.731,348.522
697.183,344.61
698.635,340.699
700.087,347.964
701.538,352.434
702.99,350.758
704.442,353.552
705.894,358.023
707.346,351.316
708.797,360.817
710.249,351.875
711.701,360.258
713.153,365.847
714.605,363.053
716.056,359.699
717.508,351.316
718.96,356.346
720.412,349.64
721.863,354.111
723.315,360.817
724.767,362.494
726.219,359.14
727.671,351.875
729.122,355.229
730.574,358.023
732.026,354.67
733.478,350.199
734.93,352.434
736.381,354.67
737.833,358.023
739.285,361.376
740.737,359.14
742.189,361.376
743.64,366.406
745.092,361.376
746.544,346.287
747.996,352.993
749.447,366.965
750.899,363.053
752.351,353.552
753.803,350.758
755.255,351.875
756.706,354.111
758.158,347.964
759.61,352.993
761.062,358.582
762.514,357.464
763.965,358.023
765.417,366.965
766.869,360.817
768.321,348.522
769.772,358.023
771.224,357.464
772.676,355.229
774.128,371.435
775.58,355.788
777.031,361.376
778.483,354.67
779.935,363.611
781.387,369.2
782.839,365.847
784.29,374.23
785.742,374.789
787.194,359.699
788.646,363.053
790.098,367.523
791.549,361.935
793.001,364.729
794.453,364.17
795.905,368.641
797.356,364.729
798.808,364.17
800.26,363.611
801.712,365.847
803.164,372.553
804.615,380.377
806.067,363.611
807.519,369.759
808.971,372.553
810.423,371.435
811.874,371.435
813.326,375.906
814.778,361.935
816.23,374.789
817.681,370.318
819.133,378.7
820.585,389.319
822.037,383.73
823.489,377.024
824.94,375.906
826.392,376.465
827.844,382.613
829.296,385.966
830.748,377.024
832.199,369.759
833.651,370.318
835.103,392.113
836.555,385.407
838.007,388.201
839.458,397.143
840.91,396.025
842.362,385.966
843.814,382.613
845.265,380.377
846.717,382.054
848.169,388.201
849.621,406.643
851.073,400.496
852.524,394.348
853.976,403.29
855.428,401.055
856.88,405.526
858.332,405.526
859.783,404.967
861.235,397.702
862.687,406.085
864.139,409.438
865.59,407.761
867.042,411.114
868.494,392.113
869.946,389.319
871.398,390.437
872.849,399.378
874.301,400.496
875.753,398.261
877.205,397.702
878.657,400.496
880.108,392.113
881.56,394.348
883.012,393.79
884.464,394.907
885.915,392.672
887.367,389.319
888.819,394.907
890.271,391.554
891.723,394.907
893.174,405.526
894.626,410.556
896.078,413.909
897.53,411.114
898.982,404.408
900.433,401.055
901.885,396.584
903.337,406.643
904.789,412.791
906.241,413.35
907.692,415.026
909.144,411.114
910.596,413.909
912.048,409.438
913.499,418.938
914.951,415.585
916.403,411.673
917.855,404.408
919.307,395.466
920.758,406.643
922.21,421.732
923.662,416.703
925.114,418.938
926.566,417.821
928.017,417.821
929.469,427.88
930.921,423.409
932.373,419.497
933.824,400.496
935.276,419.497
936.728,428.439
938.18,423.409
939.632,426.762
941.083,426.204
942.535,418.38
943.987,421.732
945.439,431.233
946.891,423.968
948.342,418.38
949.794,420.615
951.246,421.732
952.698,425.645
954.15,435.704
955.601,421.732
957.053,415.585
958.505,420.615
959.957,423.409
961.408,418.38
962.86,416.144
964.312,434.586
965.764,435.704
967.216,430.115
968.667,421.174
970.119,430.674
971.571,427.321
973.023,427.321
974.475,432.351
975.926,424.527
977.378,428.998
978.83,427.88
980.282,431.233
981.733,431.233
983.185,436.822
984.637,435.145
986.089,431.233
987.541,430.674
988.992,441.293
990.444,436.263
991.896,446.881
993.348,435.704
994.8,440.175
996.251,446.322
997.703,437.939
999.155,452.47
1000.61,440.734
1002.06,445.205
1003.51,448.558
1004.96,446.322
1006.41,441.851
1007.87,446.881
1009.32,454.146
1010.77,455.823
1012.22,460.294
1013.67,459.735
1015.12,454.146
1016.58,459.176
1018.03,453.588
1019.48,454.705
1020.93,467.557
1022.38,474.823
1023.84,480.411
1025.29,484.324
1026.74,478.735
1028.19,480.411
1029.64,488.236
1031.09,489.912
1032.55,482.088
1034,488.795
1035.45,495.501
1036.9,499.413
1038.35,508.915
1039.8,508.915
1041.26,511.709
1042.71,524.004
1044.16,528.476
1045.61,510.032
1047.06,512.827
1048.52,522.328
1049.97,529.034
1051.42,533.506
1052.87,540.771
1054.32,537.418
1055.77,540.212
1057.23,553.062
1058.68,559.21
1060.13,568.711
1061.58,562.004
1063.03,567.034
1064.49,578.212
1065.94,583.242
1067.39,571.505
1068.84,568.711
1070.29,592.743
1071.74,597.214
1073.2,598.891
1074.65,606.715
1076.1,613.422
1077.55,619.011
1079,612.304
1080.46,608.951
1081.91,613.981
1083.36,610.068
1084.81,636.89
1086.26,639.685
1087.71,645.274
1089.17,636.89
1090.62,612.863
1092.07,626.276
1093.52,640.802
1094.97,626.835
1096.42,620.687
1097.88,631.306
1099.33,615.098
1100.78,613.422
1102.23,617.334
1103.68,617.334
1105.14,607.274
1106.59,606.156
1108.04,609.509
1109.49,603.921
1110.94,605.597
1112.39,589.948
1113.85,595.537
1115.3,593.302
1116.75,592.184
1118.2,591.625
1119.65,584.36
1121.11,582.124
1122.56,576.535
1124.01,582.124
1125.46,582.683
1126.91,573.182
1128.36,574.859
1129.82,573.182
1131.27,565.357
1132.72,567.034
1134.17,555.856
1135.62,564.799
1137.07,555.297
1138.53,551.944
1139.98,563.681
1141.43,563.681
1142.88,549.709
1144.33,552.503
1145.79,561.445
1147.24,570.388
1148.69,556.974
1150.14,550.268
1151.59,559.21
1153.04,544.124
1154.5,545.242
1155.95,551.385
1157.4,557.533
1158.85,556.974
1160.3,554.739
1161.76,554.739
1163.21,550.268
1164.66,549.709
1166.11,543.007
1167.56,552.503
1169.01,555.297
1170.47,560.328
1171.92,563.681
1173.37,558.092
1174.82,572.064
1176.27,561.445
1177.72,561.445
1179.18,581.565
1180.63,564.24
1182.08,563.122
1183.53,572.623
1184.98,570.388
1186.44,568.711
1187.89,565.357
1189.34,567.034
1190.79,568.711
1192.24,559.769
1193.69,575.417
1195.15,582.683
1196.6,578.212
1198.05,570.388
1199.5,573.741
1200.95,586.036
1202.41,586.595
1203.86,582.683
1205.31,581.006
1206.76,599.449
1208.21,595.537
1209.66,587.154
1211.12,579.33
1212.57,587.713
1214.02,587.154
1215.47,575.976
1216.92,586.595
1218.37,592.743
1219.83,593.861
1221.28,596.655
1222.73,596.655
1224.18,593.861
1225.63,602.244
1227.09,605.038
1228.54,595.537
1229.99,587.713
1231.44,598.332
1232.89,588.272
1234.34,607.274
1235.8,605.038
1237.25,601.126
1238.7,590.507
1240.15,604.48
1241.6,621.246
1243.06,615.657
1244.51,614.539
1245.96,619.569
1247.41,642.479
1248.86,631.865
1250.31,620.128
1251.77,635.772
1253.22,644.156
1254.67,644.715
1256.12,640.802
1257.57,643.038
1259.02,654.775
1260.48,662.04
1261.93,682.16
1263.38,670.982
1264.83,683.278
1266.28,684.955
1267.74,698.927
1269.19,705.074
1270.64,708.428
1272.09,726.308
1273.54,748.663
1274.99,750.898
1276.45,748.104
1277.9,740.28
1279.35,762.076
1280.8,787.785
1282.25,791.697
1283.71,799.522
1285.16,801.198
1286.61,807.905
1288.06,832.491
1289.51,849.817
1290.96,851.493
1292.42,877.761
1293.87,912.966
1295.32,921.35
1296.77,956.001
1298.22,986.176
1299.67,1006.3
1301.13,1021.39
1302.58,1053.8
1304.03,1094.6
1305.48,1116.95
1306.93,1150.48
1308.39,1199.1
1309.84,1243.81
1311.29,1288.52
1312.74,1345.52
1314.19,1420.97
1315.64,1484.12
1317.1,1540.56
1318.55,1597.57
1320,1653.45
1321.45,1723.31
1322.9,1816.64
1324.36,1861.35
1325.81,1934.56
1327.26,1996.03
1328.71,2059.74
1330.16,2109.48
1331.61,2146.92
1333.07,2178.22
1334.52,2221.81
1335.97,2245.84
1337.42,2210.07
1338.87,2212.31
1340.33,2174.31
1341.78,2134.63
1343.23,2099.98
1344.68,2039.06
1346.13,1994.91
1347.58,1935.68
1349.04,1847.38
1350.49,1765.78
1351.94,1692.01
1353.39,1602.6
1354.84,1533.3
1356.29,1498.09
1357.75,1430.47
1359.2,1370.67
1360.65,1330.43
1362.1,1260.58
1363.55,1202.46
1365.01,1163.33
1366.46,1127.01
1367.91,1092.92
1369.36,1068.33
1370.81,1044.3
1372.26,1020.27
1373.72,999.03
1375.17,980.592
1376.62,938.116
1378.07,929.174
1379.52,909.613
1380.98,900.112
1382.43,895.641
1383.88,878.879
1385.33,855.965
1386.78,855.965
1388.23,858.2
1389.69,836.404
1391.14,830.815
1392.59,854.288
1394.04,857.641
1395.49,825.785
1396.94,824.667
1398.4,811.254
1399.85,812.371
1401.3,816.842
1402.75,807.346
1404.2,803.993
1405.66,801.757
1407.11,813.489
1408.56,824.667
1410.01,815.725
1411.46,819.637
1412.91,798.963
1414.37,812.93
1415.82,814.607
1417.27,808.459
1418.72,802.875
1420.17,804.552
1421.63,813.489
1423.08,807.905
1424.53,819.078
1425.98,805.11
1427.43,811.254
1428.88,809.577
1430.34,832.491
1431.79,837.521
1433.24,834.727
1434.69,840.875
1436.14,848.14
1437.59,860.436
1439.05,855.965
1440.5,856.523
1441.95,872.731
1443.4,882.791
1444.85,882.232
1446.31,862.112
1447.76,878.32
1449.21,888.38
1450.66,900.112
1452.11,896.759
1453.56,895.087
1455.02,904.583
1456.47,920.232
1457.92,931.41
1459.37,944.823
1460.82,940.352
1462.28,945.382
1463.73,987.294
1465.18,996.795
1466.63,1002.38
1468.08,998.471
1469.53,1004.62
1470.99,1011.33
1472.44,1020.83
1473.89,1047.09
1475.34,1069.45
1476.79,1074.48
1478.24,1092.36
1479.7,1092.92
1481.15,1135.39
1482.6,1133.16
1484.05,1158.3
1485.5,1173.95
1486.96,1178.98
1488.41,1199.66
1489.86,1228.16
1491.31,1240.46
1492.76,1267.84
1494.21,1295.23
1495.67,1323.73
1497.12,1341.05
1498.57,1375.14
1500.02,1395.82
1501.47,1444.44
1502.93,1454.5
1504.38,1500.89
1505.83,1548.39
1507.28,1609.86
1508.73,1656.25
1510.18,1708.78
1511.64,1761.31
1513.09,1823.35
1514.54,1902.14
1515.99,1974.24
1517.44,2047.45
1518.89,2102.22
1520.35,2191.63
1521.8,2279.93
1523.25,2412.94
1524.7,2531.42
1526.15,2711.93
1527.61,2840.46
1529.06,3042.77
1530.51,3254.58
1531.96,3493.77
1533.41,3770.4
1534.86,4034.74
1536.32,4354.41
1537.77,4755.11
1539.22,5194.36
1540.67,5693.99
1542.12,6208.67
1543.58,6783.22
1545.03,7400.16
1546.48,8074.15
1547.93,8814.65
1549.38,9594.79
1550.83,10418
1552.29,11305.5
1553.74,12191.3
1555.19,13034.6
1556.64,13894.7
1558.09,14792.2
1559.54,15582.4
1561,16391.1
1562.45,17051.6
1563.9,17533.9
1565.35,17815
1566.8,17971
1568.26,17825.7
1569.71,17527.8
1571.16,17132.1
1572.61,16512.9
1574.06,15710.4
1575.51,14752.5
1576.97,13784
1578.42,12800.4
1579.87,11833.6
1581.32,10875.7
1582.77,9944.11
1584.23,9099.64
1585.68,8223.94
1587.13,7475.08
1588.58,6861.46
1590.03,6255.65
1591.48,5712.97
1592.94,5297.78
1594.39,4946.24
1595.84,4581.86
1597.29,4294.05
1598.74,4013.51
1600.2,3769.29
1601.65,3597.16
1603.1,3423.35
1604.55,3238.37
1606,3097.54
1607.45,2950
1608.91,2799.67
1610.36,2659.39
1611.81,2505.71
1613.26,2440.32
1614.71,2316.26
1616.16,2216.78
1617.62,2097.19
1619.07,2002.74
1620.52,1931.77
1621.97,1841.23
1623.42,1754.05
1624.88,1704.31
1626.33,1647.31
1627.78,1580.8
1629.23,1503.12
1630.68,1453.94
1632.13,1427.67
1633.59,1396.38
1635.04,1348.87
1636.49,1314.23
1637.94,1284.61
1639.39,1257.22
1640.85,1233.75
1642.3,1229.28
1643.75,1194.63
1645.2,1158.3
1646.65,1143.78
1648.1,1122.54
1649.56,1087.33
1651.01,1070
1652.46,1058.83
1653.91,1034.8
1655.36,1016.36
1656.81,1008.53
1658.27,1001.82
1659.72,995.677
1661.17,978.356
1662.62,949.294
1664.07,943.146
1665.53,925.262
1666.98,925.821
1668.43,925.262
1669.88,896.759
1671.33,883.909
1672.78,875.526
1674.24,864.348
1675.69,859.318
1677.14,843.11
1678.59,841.434
1680.04,839.198
1681.5,834.727
1682.95,819.637
1684.4,812.371
1685.85,798.404
1687.3,805.11
1688.75,787.226
1690.21,786.108
1691.66,773.254
1693.11,773.254
1694.56,763.194
1696.01,756.487
1697.46,758.723
1698.92,755.37
1700.37,757.046
1701.82,757.046
1703.27,748.663
1704.72,743.633
1706.18,743.633
1707.63,746.427
1709.08,739.721
1710.53,729.661
1711.98,734.132
1713.43,738.044
1714.89,733.014
1716.34,718.488
1717.79,710.104
1719.24,703.398
1720.69,714.017
1722.15,712.899
1723.6,721.836
1725.05,709.546
1726.5,705.633
1727.95,705.074
1729.4,703.957
1730.86,717.929
1732.31,714.017
1733.76,707.31
1735.21,703.957
1736.66,703.398
1738.11,698.927
1739.57,701.721
1741.02,690.543
1742.47,692.779
1743.92,696.691
1745.37,689.984
1746.83,691.661
1748.28,686.631
1749.73,678.807
1751.18,694.456
1752.63,675.453
1754.08,655.334
1755.54,668.747
1756.99,680.484
1758.44,672.1
1759.89,651.421
1761.34,660.364
1762.8,668.747
1764.25,663.158
1765.7,657.569
1767.15,659.805
1768.6,649.186
1770.05,636.331
1771.51,641.361
1772.96,644.715
1774.41,637.449
1775.86,644.156
1777.31,638.008
1778.76,627.953
1780.22,635.214
1781.67,626.276
1783.12,620.128
1784.57,615.098
1786.02,603.362
1787.48,629.07
1788.93,598.891
1790.38,616.216
1791.83,610.627
1793.28,618.452
1794.73,606.156
1796.19,604.48
1797.64,608.951
1799.09,603.362
1800.54,598.891
1801.99,608.951
1803.45,607.274
1804.9,589.948
1806.35,588.831
1807.8,592.743
1809.25,589.39
1810.7,601.126
1812.16,599.449
1813.61,587.154
1815.06,586.595
1816.51,584.36
1817.96,579.33
1819.41,586.036
1820.87,596.655
1822.32,598.332
1823.77,601.126
1825.22,608.951
1826.67,606.715
1828.13,605.038
1829.58,622.923
1831.03,592.184
1832.48,588.831
1833.93,589.39
1835.38,595.537
1836.84,590.507
1838.29,607.274
1839.74,610.068
1841.19,612.863
1842.64,617.893
1844.1,608.951
1845.55,611.745
1847,619.011
1848.45,627.953
1849.9,644.715
1851.35,647.509
1852.81,638.567
1854.26,631.865
1855.71,634.096
1857.16,636.89
1858.61,635.214
1860.07,633.542
1861.52,641.92
1862.97,643.597
1864.42,639.685
1865.87,641.361
1867.32,643.038
1868.78,644.156
1870.23,640.244
1871.68,650.304
1873.13,633.542
1874.58,638.008
1876.03,630.747
1877.49,621.805
1878.94,619.011
1880.39,609.509
1881.84,610.068
1883.29,619.569
1884.75,630.188
1886.2,598.891
1887.65,610.627
1889.1,617.893
1890.55,606.156
1892,601.685
1893.46,601.685
1894.91,596.096
1896.36,587.713
1897.81,575.976
1899.26,565.916
1900.72,579.888
1902.17,584.918
1903.62,577.653
1905.07,577.094
1906.52,570.946
1907.97,572.623
1909.43,565.916
1910.88,570.946
1912.33,564.24
1913.78,562.563
1915.23,561.445
1916.68,555.297
1918.14,544.124
1919.59,549.709
1921.04,556.974
1922.49,558.092
1923.94,569.27
1925.4,562.004
1926.85,550.268
1928.3,532.947
1929.75,555.856
1931.2,554.739
1932.65,547.473
1934.11,559.21
1935.56,560.886
1937.01,553.621
1938.46,543.565
1939.91,534.623
1941.37,541.889
1942.82,555.297
1944.27,563.122
1945.72,564.24
1947.17,558.092
1948.62,561.445
1950.08,560.886
1951.53,550.268
1952.98,566.475
1954.43,563.122
1955.88,559.21
1957.33,560.886
1958.79,559.21
1960.24,559.21
1961.69,559.769
1963.14,565.916
1964.59,565.916
1966.05,556.974
1967.5,560.328
1968.95,573.182
1970.4,567.593
1971.85,559.21
1973.3,556.974
1974.76,554.739
1976.21,556.415
1977.66,571.505
1979.11,582.683
1980.56,579.888
1982.02,573.182
1983.47,573.182
1984.92,577.653
1986.37,573.741
1987.82,587.154
1989.27,583.801
1990.73,580.447
1992.18,586.036
1993.63,584.918
1995.08,577.653
1996.53,593.861
1997.98,587.154
1999.44,590.507
2000.89,588.272
2002.34,574.3
2003.79,598.891
2005.24,591.625
2006.7,578.771
2008.15,576.535
2009.6,572.623
2011.05,563.681
2012.5,572.623
2013.95,572.064
2015.41,545.242
2016.86,599.449
2018.31,565.357
2019.76,554.18
2021.21,572.623
2022.67,565.916
2024.12,560.886
2025.57,559.769
2027.02,570.388
2028.47,564.799
2029.92,598.891
2031.38,566.475
2032.83,556.974
2034.28,544.124
2035.73,545.242
2037.18,554.739
2038.63,535.182
2040.09,541.889
2041.54,546.36
2042.99,538.536
2044.44,535.182
2045.89,539.094
2047.35,531.829
2048.8,538.536
2050.25,526.24
2051.7,522.328
2053.15,521.769
2054.6,520.092
2056.06,520.651
2057.51,525.122
2058.96,524.004
2060.41,508.915
2061.86,510.591
2063.32,511.709
2064.77,528.476
2066.22,518.975
2067.67,513.945
2069.12,517.857
2070.57,515.062
2072.03,510.032
2073.48,506.679
2074.93,499.413
2076.38,499.413
2077.83,500.531
2079.28,502.767
2080.74,499.413
2082.19,503.326
2083.64,501.09
2085.09,497.178
2086.54,501.649
2088,506.12
2089.45,502.767
2090.9,501.09
2092.35,500.531
2093.8,497.737
2095.25,492.707
2096.71,494.942
2098.16,494.942
2099.61,495.501
2101.06,489.353
2102.51,491.03
2103.97,505.002
2105.42,513.945
2106.87,503.885
2108.32,501.649
2109.77,497.737
2111.22,492.707
2112.68,503.885
2114.13,513.945
2115.58,500.531
2117.03,499.972
2118.48,518.416
2119.94,518.975
2121.39,511.15
2122.84,505.561
2124.29,508.356
2125.74,515.621
2127.19,517.857
2128.65,499.413
2130.1,506.679
2131.55,522.887
2133,512.268
2134.45,507.238
2135.9,515.621
2137.36,507.797
2138.81,503.326
2140.26,512.268
2141.71,524.004
2143.16,511.709
2144.62,518.416
2146.07,518.416
2147.52,516.18
2148.97,522.887
2150.42,520.651
2151.87,526.24
2153.33,533.506
2154.78,525.122
2156.23,522.887
2157.68,525.122
2159.13,529.593
2160.58,531.27
2162.04,532.388
2163.49,524.563
2164.94,521.21
2166.39,526.799
2167.84,535.741
2169.3,531.27
2170.75,525.122
2172.2,523.446
2173.65,538.536
2175.1,535.741
2176.55,530.152
2178.01,537.977
2179.46,539.653
2180.91,530.152
2182.36,530.711
2183.81,534.623
2185.27,533.506
2186.72,553.621
2188.17,558.651
2189.62,558.092
2191.07,553.062
2192.52,537.418
2193.98,546.36
2195.43,531.829
2196.88,539.094
2198.33,559.21
2199.78,555.856
2201.24,572.064
2202.69,552.503
2204.14,549.709
2205.59,553.621
2207.04,561.445
2208.49,542.448
2209.95,547.473
2211.4,560.328
2212.85,543.007
2214.3,553.062
2215.75,529.034
2217.2,542.448
2218.66,551.944
2220.11,545.242
2221.56,557.533
2223.01,558.092
2224.46,554.18
2225.92,536.859
2227.37,536.859
2228.82,539.653
2230.27,560.328
2231.72,562.004
2233.17,550.268
2234.63,565.357
2236.08,560.886
2237.53,548.591
2238.98,560.886
2240.43,563.122
2241.89,569.27
2243.34,566.475
2244.79,565.916
2246.24,574.859
2247.69,577.094
2249.14,572.623
2250.6,569.829
2252.05,567.034
2253.5,570.946
2254.95,568.711
2256.4,563.122
2257.85,577.653
2259.31,587.713
2260.76,574.3
2262.21,577.094
2263.66,574.859
2265.11,577.094
2266.57,585.477
2268.02,582.683
2269.47,578.771
2270.92,577.653
2272.37,572.064
2273.82,589.948
2275.28,582.124
2276.73,577.653
2278.18,580.447
2279.63,581.006
2281.08,590.507
2282.54,596.655
2283.99,591.625
2285.44,610.627
2286.89,606.156
2288.34,603.921
2289.79,608.392
2291.25,611.745
2292.7,606.156
2294.15,599.449
2295.6,609.509
2297.05,603.921
2298.5,613.981
2299.96,620.687
2301.41,628.512
2302.86,612.863
2304.31,601.685
2305.76,638.567
2307.22,641.361
2308.67,625.158
2310.12,621.246
2311.57,619.011
2313.02,641.92
2314.47,653.657
2315.93,634.655
2317.38,635.214
2318.83,644.715
2320.28,622.923
2321.73,627.953
2323.19,642.479
2324.64,653.657
2326.09,656.451
2327.54,659.246
2328.99,652.539
2330.44,655.334
2331.9,660.364
2333.35,659.805
2334.8,667.629
2336.25,669.865
2337.7,672.1
2339.16,669.865
2340.61,669.865
2342.06,683.278
2343.51,688.867
2344.96,687.749
2346.41,696.691
2347.87,685.513
2349.32,691.102
2350.77,712.34
2352.22,716.252
2353.67,718.488
2355.12,720.164
2356.58,721.836
2358.03,715.693
2359.48,731.896
2360.93,714.576
2362.38,726.866
2363.84,736.926
2365.29,739.162
2366.74,738.044
2368.19,749.781
2369.64,767.106
2371.09,781.078
2372.55,795.609
2374,796.727
2375.45,814.607
2376.9,814.607
2378.35,821.872
2379.8,843.669
2381.26,841.992
2382.71,849.258
2384.16,850.935
2385.61,864.348
2387.06,877.761
2388.52,873.849
2389.97,907.936
2391.42,924.703
2392.87,942.587
2394.32,956.559
2395.77,986.735
2397.23,972.767
2398.68,980.033
2400.13,1013
2401.58,1038.71
2403.03,1063.3
2404.49,1068.33
2405.94,1087.33
2407.39,1116.39
2408.84,1129.25
2410.29,1146.01
2411.74,1158.86
2413.2,1174.51
2414.65,1185.13
2416.1,1223.69
2417.55,1247.72
2419,1246.6
2420.46,1248.84
2421.91,1254.99
2423.36,1237.11
2424.81,1248.84
2426.26,1287.4
2427.71,1280.7
2429.17,1284.61
2430.62,1315.35
2432.07,1298.58
2433.52,1301.93
2434.97,1265.61
2436.42,1277.34
2437.88,1292.43
2439.33,1277.34
2440.78,1272.87
2442.23,1256.1
2443.68,1242.69
2445.14,1254.43
2446.59,1237.11
2448.04,1243.81
2449.49,1242.69
2450.94,1228.16
2452.39,1206.93
2453.85,1203.01
2455.3,1192.4
2456.75,1186.25
2458.2,1177.31
2459.65,1171.16
2461.1,1161.66
2462.56,1149.37
2464.01,1156.63
2465.46,1144.34
2466.91,1119.19
2468.36,1128.69
2469.82,1104.66
2471.27,1139.86
2472.72,1134.28
2474.17,1110.8
2475.62,1100.74
2477.07,1088.45
2478.53,1083.98
2479.98,1073.92
2481.43,1078.39
2482.88,1101.86
2484.33,1102.98
2485.79,1104.66
2487.24,1082.3
2488.69,1082.3
2490.14,1078.95
2491.59,1092.92
2493.04,1090.68
2494.5,1089.57
2495.95,1078.39
2497.4,1094.04
2498.85,1082.3
2500.3,1101.86
2501.76,1110.24
2503.21,1105.21
2504.66,1122.54
2506.11,1110.8
2507.56,1100.74
2509.01,1093.48
2510.47,1133.72
2511.92,1123.1
2513.37,1123.66
2514.82,1147.13
2516.27,1152.72
2517.72,1161.66
2519.18,1157.19
2520.63,1146.57
2522.08,1162.77
2523.53,1178.98
2524.98,1188.48
2526.44,1174.51
2527.89,1190.72
2529.34,1211.96
2530.79,1233.75
2532.24,1241.02
2533.69,1244.93
2535.15,1262.81
2536.6,1257.78
2538.05,1311.43
2539.5,1296.34
2540.95,1310.32
2542.41,1326.52
2543.86,1346.64
2545.31,1362.85
2546.76,1376.82
2548.21,1367.88
2549.66,1394.14
2551.12,1418.73
2552.57,1461.77
2554.02,1485.8
2555.47,1488.59
2556.92,1503.12
2558.37,1524.36
2559.83,1556.77
2561.28,1572.42
2562.73,1589.75
2564.18,1650.66
2565.63,1688.66
2567.09,1700.95
2568.54,1728.34
2569.99,1758.52
2571.44,1797.64
2572.89,1821.11
2574.34,1861.35
2575.8,1868.61
2577.25,1963.62
2578.7,2026.21
2580.15,2058.62
2581.6,2093.83
2583.06,2135.75
2584.51,2183.25
2585.96,2253.11
2587.41,2338.61
2588.86,2395.61
2590.31,2450.38
2591.77,2502.36
2593.22,2599.04
2594.67,2668.9
2596.12,2751.61
2597.57,2861.14
2599.02,2947.21
2600.48,3036.06
2601.93,3136.66
2603.38,3237.81
2604.83,3378.08
2606.28,3486.5
2607.74,3637.95
2609.19,3737.99
2610.64,3891.67
2612.09,4003.45
2613.54,4180.05
2614.99,4354.41
2616.45,4531.57
2617.9,4721.57
2619.35,4914.92
2620.8,5097.14
2622.25,5316.21
2623.71,5528.59
2625.16,5775.01
2626.61,5996.9
2628.06,6215.97
2629.51,6523.31
2630.96,6744.1
2632.42,7053.7
2633.87,7299.01
2635.32,7572.31
2636.77,7837.76
2638.22,8138.45
2639.68,8393.27
2641.13,8605.1
2642.58,8854.88
2644.03,9136.55
2645.48,9371.28
2646.93,9652.38
2648.39,9790.4
2649.84,10053.1
2651.29,10233.6
2652.74,10373.3
2654.19,10496.8
2655.64,10682.9
2657.1,10743.8
2658.55,10817
2660,10885.2
2661.45,10866.2
2662.9,10791.9
2664.36,10733.2
2665.81,10670.1
2667.26,10525.3
2668.71,10452.7
2670.16,10340.3
2671.61,10191.1
2673.07,9945.22
2674.52,9730.63
2675.97,9417.1
2677.42,9209.75
2678.87,8946.52
2680.32,8719.09
2681.78,8420.11
2683.23,8120.53
2684.68,7831.06
2686.13,7564.5
2687.58,7257.12
2689.04,7028.53
2690.49,6726.77
2691.94,6472.46
2693.39,6193.06
2694.84,5921.98
2696.29,5675.01
2697.75,5424.62
2699.2,5227.34
2700.65,4998.75
2702.1,4760.14
2703.55,4553.92
2705.01,4340.44
2706.46,4192.34
2707.91,3996.18
2709.36,3840.26
2710.81,3667.57
2712.26,3493.77
2713.72,3383.67
2715.17,3261.28
2716.62,3125.48
2718.07,2979.06
2719.52,2887.97
2720.98,2792.4
2722.43,2670.57
2723.88,2583.39
2725.33,2505.15
2726.78,2406.79
2728.23,2315.7
2729.69,2278.82
2731.14,2185.49
2732.59,2113.39
2734.04,2065.89
2735.49,2006.65
2736.94,1940.15
2738.4,1889.85
2739.85,1837.88
2741.3,1768.58
2742.75,1747.9
2744.2,1735.05
2745.66,1652.34
2747.11,1614.33
2748.56,1584.72
2750.01,1562.92
2751.46,1537.77
2752.91,1516.53
2754.37,1470.71
2755.82,1446.12
2757.27,1414.82
2758.72,1394.14
2760.17,1338.81
2761.63,1337.14
2763.08,1322.05
2764.53,1282.37
2765.98,1285.17
2767.43,1263.93
2768.88,1220.34
2770.34,1222.58
2771.79,1194.63
2773.24,1172.83
2774.69,1156.63
2776.14,1145.45
2777.59,1159.42
2779.05,1119.19
2780.5,1108.57
2781.95,1102.42
2783.4,1108.01
2784.85,1095.15
2786.31,1070.56
2787.76,1052.68
2789.21,1052.12
2790.66,1035.92
2792.11,1023.06
2793.56,1003.5
2795.02,1001.82
2796.47,997.912
2797.92,996.795
2799.37,982.823
2800.82,982.823
2802.28,980.592
2803.73,956.559
2805.18,949.853
2806.63,950.971
2808.08,938.116
2809.53,917.437
2810.99,923.585
2812.44,921.35
2813.89,895.641
2815.34,898.994
2816.79,886.144
2818.24,895.087
2819.7,894.528
2821.15,886.144
2822.6,873.849
2824.05,868.26
2825.5,865.466
2826.96,874.408
2828.41,862.112
2829.86,870.496
2831.31,841.434
2832.76,831.373
2834.21,841.992
2835.67,847.581
2837.12,845.905
2838.57,845.346
2840.02,821.314
2841.47,835.845
2842.93,805.11
2844.38,816.842
2845.83,809.577
2847.28,800.081
2848.73,795.051
2850.18,807.905
2851.64,804.552
2853.09,809.018
2854.54,804.552
2855.99,797.286
2857.44,784.991
2858.9,803.993
2860.35,792.256
2861.8,785.549
2863.25,798.963
2864.7,786.667
2866.15,789.462
2867.61,797.286
2869.06,804.552
2870.51,798.963
2871.96,833.609
2873.41,807.905
2874.86,807.905
2876.32,787.226
2877.77,796.168
2879.22,790.021
2880.67,800.639
2882.12,814.048
2883.58,812.371
2885.03,809.577
2886.48,804.552
2887.93,782.196
2889.38,795.609
2890.83,788.344
2892.29,816.284
2893.74,803.993
2895.19,791.697
2896.64,788.344
2898.09,788.903
2899.54,791.697
2901,782.196
2902.45,783.314
2903.9,816.842
2905.35,783.873
2906.8,800.081
2908.26,800.639
2909.71,797.286
2911.16,783.873
2912.61,776.607
2914.06,766.547
2915.51,773.254
2916.97,763.753
2918.42,773.254
2919.87,767.106
2921.32,770.46
2922.77,758.164
2924.23,752.016
2925.68,742.515
2927.13,743.633
2928.58,758.164
2930.03,739.162
2931.48,738.044
2932.94,716.252
2934.39,725.749
2935.84,719.605
2937.29,714.576
2938.74,701.162
2940.2,705.633
2941.65,689.426
2943.1,669.306
2944.55,673.218
2946,676.571
2947.45,653.657
2948.91,644.156
2950.36,650.862
2951.81,658.128
2953.26,634.096
2954.71,639.685
2956.16,648.068
2957.62,634.096
2959.07,622.364
2960.52,626.835
2961.97,612.863
2963.42,611.745
2964.88,591.066
2966.33,593.302
2967.78,606.715
2969.23,596.655
2970.68,589.39
2972.13,592.743
2973.59,578.212
2975.04,574.859
2976.49,581.565
2977.94,577.653
2979.39,572.064
2980.84,568.711
2982.3,570.388
2983.75,559.21
2985.2,556.415
2986.65,545.242
2988.1,558.651
2989.56,559.21
2991.01,556.974
2992.46,560.886
2993.91,553.062
2995.36,546.36
2996.81,537.977
2998.27,541.889
2999.72,544.124
3001.17,531.829
3002.62,530.152
3004.07,525.681
3005.53,543.565
3006.98,537.977
3008.43,530.711
3009.88,531.27
3011.33,529.034
3012.78,530.711
3014.24,530.711
3015.69,511.15
3017.14,524.004
3018.59,519.533
3020.04,514.503
3021.5,524.004
3022.95,519.533
3024.4,517.857
3025.85,525.122
3027.3,523.446
3028.75,512.268
3030.21,536.859
3031.66,509.473
3033.11,520.651
3034.56,526.24
3036.01,513.945
3037.46,515.062
3038.92,518.416
3040.37,509.473
3041.82,517.298
3043.27,525.122
3044.72,506.12
3046.18,512.827
3047.63,516.18
3049.08,518.975
3050.53,520.651
3051.98,519.533
3053.43,516.739
3054.89,516.739
3056.34,517.857
3057.79,518.416
3059.24,528.476
3060.69,525.681
3062.15,524.004
3063.6,522.887
3065.05,526.799
3066.5,534.064
3067.95,527.917
3069.4,520.092
3070.86,526.24
3072.31,529.593
3073.76,530.152
3075.21,546.914
3076.66,529.593
3078.11,550.268
3079.57,548.591
3081.02,549.15
3082.47,549.15
3083.92,556.974
3085.37,559.21
3086.83,570.946
3088.28,562.004
3089.73,563.681
3091.18,564.24
3092.63,578.771
3094.08,594.42
3095.54,592.184
3096.99,596.096
3098.44,617.893
3099.89,611.186
3101.34,611.186
3102.8,637.449
3104.25,652.539
3105.7,660.922
3107.15,672.659
3108.6,668.747
3110.05,673.218
3111.51,682.719
3112.96,692.779
3114.41,725.19
3115.86,720.164
3117.31,725.749
3118.76,715.134
3120.22,742.515
3121.67,755.928
3123.12,754.811
3124.57,769.901
3126.02,790.021
3127.48,786.108
3128.93,831.373
3130.38,821.314
3131.83,814.607
3133.28,820.755
3134.73,838.08
3136.19,829.138
3137.64,834.168
3139.09,823.549
3140.54,851.493
3141.99,855.965
3143.45,861.553
3144.9,851.493
3146.35,860.994
3147.8,869.378
3149.25,885.027
3150.7,872.731
3152.16,898.435
3153.61,890.615
3155.06,872.731
3156.51,879.997
3157.96,884.468
3159.42,896.759
3160.87,868.819
3162.32,890.615
3163.77,895.087
3165.22,892.851
3166.67,906.819
3168.13,908.495
3169.58,892.292
3171.03,883.909
3172.48,903.465
3173.93,901.789
3175.38,919.673
3176.84,939.234
3178.29,938.116
3179.74,958.236
3181.19,959.913
3182.64,971.091
3184.1,998.471
3185.55,982.268
3187,1001.82
3188.45,1008.53
3189.9,1005.18
3191.35,1031.45
3192.81,1024.18
3194.26,1025.3
3195.71,1042.06
3197.16,1043.18
3198.61,1032.56
3200.06,1063.86
3201.52,1058.83
3202.97,1061.63
3204.42,1038.71
3205.87,1049.33
3207.32,1054.36
3208.78,1035.92
3210.23,1051.57
3211.68,1005.18
3213.13,976.12
3214.58,969.414
3216.03,948.735
3217.49,942.587
3218.94,920.791
3220.39,902.347
3221.84,878.879
3223.29,863.23
3224.75,824.667
3226.2,806.787
3227.65,798.404
3229.1,774.372
3230.55,749.781
3232,735.25
3233.46,711.222
3234.91,691.102
3236.36,677.13
3237.81,678.807
3239.26,637.449
3240.72,610.627
3242.17,605.038
3243.62,604.48
3245.07,587.713
3246.52,569.829
3247.97,547.473
3249.43,563.681
3250.88,530.152
3252.33,515.621
3253.78,511.15
3255.23,504.443
3256.68,493.825
3258.14,513.386
3259.59,494.942
3261.04,486
3262.49,474.823
3263.94,474.264
3265.4,464.763
3266.85,450.234
3268.3,466.998
3269.75,465.88
3271.2,451.352
3272.65,455.823
3274.11,447.999
3275.56,445.763
3277.01,442.969
3278.46,440.734
3279.91,432.91
3281.37,433.469
3282.82,441.293
3284.27,445.205
3285.72,419.497
3287.17,430.115
3288.62,427.321
3290.08,423.409
3291.53,418.938
3292.98,409.438
3294.43,426.204
3295.88,415.585
3297.33,421.174
3298.79,420.615
3300.24,430.674
3301.69,420.615
3303.14,421.174
3304.59,413.35
3306.05,443.528
3307.5,421.174
3308.95,416.703
3310.4,418.38
3311.85,412.232
3313.3,412.232
3314.76,408.879
3316.21,417.262
3317.66,413.909
3319.11,404.967
3320.56,412.791
3322.02,406.643
3323.47,409.438
3324.92,412.791
3326.37,416.144
3327.82,416.144
3329.27,412.232
3330.73,408.879
3332.18,412.791
3333.63,417.821
3335.08,398.819
3336.53,396.025
3337.98,416.703
3339.44,402.172
3340.89,402.731
3342.34,406.643
3343.79,412.232
3345.24,406.643
3346.7,403.849
3348.15,399.937
3349.6,403.849
3351.05,405.526
3352.5,392.672
3353.95,407.761
3355.41,399.378
3356.86,384.848
3358.31,395.466
3359.76,410.556
3361.21,402.731
3362.67,406.643
3364.12,397.143
3365.57,401.055
3367.02,404.408
3368.47,394.907
3369.92,401.614
3371.38,407.761
3372.83,401.614
3374.28,383.73
3375.73,389.319
3377.18,400.496
3378.63,403.849
3380.09,408.32
3381.54,389.319
3382.99,388.76
3384.44,388.76
3385.89,385.407
3387.35,396.584
3388.8,387.083
3390.25,392.672
3391.7,386.524
3393.15,384.289
3394.6,390.437
3396.06,395.466
3397.51,397.702
3398.96,402.731
3400.41,390.437
3401.86,388.201
3403.32,393.79
3404.77,396.584
3406.22,406.643
3407.67,385.966
3409.12,391.554
3410.57,387.083
3412.03,383.172
3413.48,374.789
3414.93,397.143
3416.38,395.466
3417.83,388.201
3419.28,387.083
3420.74,405.526
3422.19,385.407
3423.64,398.819
3425.09,391.554
3426.54,383.73
3428,371.994
3429.45,390.996
3430.9,393.79
3432.35,397.143
3433.8,397.702
3435.25,379.818
3436.71,382.054
3438.16,382.054
3439.61,396.025
3441.06,393.231
3442.51,382.054
3443.97,377.583
3445.42,373.112
3446.87,391.554
3448.32,379.818
3449.77,376.465
3451.22,379.818
3452.68,397.702
3454.13,372.553
3455.58,374.23
3457.03,393.79
3458.48,383.73
3459.94,384.289
3461.39,375.906
3462.84,383.172
3464.29,386.524
3465.74,384.848
3467.19,384.848
3468.65,370.318
3470.1,389.319
3471.55,383.172
3473,372.553
3474.45,363.053
3475.9,385.407
3477.36,394.348
3478.81,397.143
3480.26,390.996
3481.71,373.671
3483.16,383.73
3484.62,365.847
3486.07,388.76
3487.52,377.583
3488.97,369.2
3490.42,380.936
3491.87,383.73
3493.33,389.319
3494.78,380.377
3496.23,380.377
3497.68,382.054
3499.13,380.936
3500.58,386.524
3502.04,394.907
3503.49,380.377
3504.94,370.877
3506.39,366.406
3507.84,384.848
3509.3,398.261
3510.75,399.937
3512.2,378.7
3513.65,379.818
3515.1,387.642
3516.55,382.054
3518.01,388.201
3519.46,384.289
3520.91,381.495
3522.36,380.377
3523.81,382.613
3525.27,383.172
3526.72,374.789
3528.17,385.966
3529.62,378.142
3531.07,384.848
3532.52,389.878
3533.98,386.524
3535.43,392.113
3536.88,385.407
3538.33,370.318
3539.78,382.613
3541.24,385.966
3542.69,375.906
3544.14,386.524
3545.59,389.319
3547.04,380.936
3548.49,376.465
3549.95,384.848
3551.4,377.024
3552.85,371.435
3554.3,373.112
3555.75,387.642
3557.2,392.113
3558.66,378.142
3560.11,374.789
3561.56,379.259
3563.01,379.818
3564.46,382.054
3565.92,382.054
3567.37,378.7
3568.82,380.377
3570.27,380.936
3571.72,371.994
3573.17,375.906
3574.63,383.73
3576.08,382.054
3577.53,390.996
3578.98,364.729
3580.43,375.348
3581.89,372.553
3583.34,373.671
3584.79,368.082
3586.24,385.407
3587.69,373.671
3589.14,384.289
3590.6,384.848
3592.05,374.789
3593.5,375.906
3594.95,372.553
3596.4,368.082
3597.85,368.641
3599.31,382.054
3600.76,383.73
3602.21,370.877
3603.66,383.172
3605.11,360.258
3606.57,382.054
3608.02,380.936
3609.47,377.583
3610.92,380.377
3612.37,391.554
3613.82,375.906
3615.28,378.142
3616.73,369.759
3618.18,391.554
3619.63,368.641
3621.08,384.848
3622.54,380.377
3623.99,384.289
3625.44,387.642
3626.89,382.613
3628.34,371.435
3629.79,374.23
3631.25,375.348
3632.7,379.818
3634.15,375.348
3635.6,373.112
3637.05,369.2
3638.5,379.259
3639.96,375.348
3641.41,380.936
3642.86,377.583
3644.31,370.877
3645.76,380.377
3647.22,375.348
3648.67,375.906
3650.12,369.2
3651.57,371.994
3653.02,365.288
3654.47,379.259
3655.93,394.907
3657.38,379.818
3658.83,384.289
3660.28,379.259
3661.73,379.259
3663.19,372.553
3664.64,384.289
3666.09,364.729
3667.54,377.583
3668.99,379.818
3670.44,389.319
3671.9,379.259
3673.35,374.789
3674.8,390.996
3676.25,385.407
3677.7,368.082
3679.16,379.259
3680.61,379.259
3682.06,388.76
3683.51,379.818
3684.96,383.172
3686.41,383.172
3687.87,378.7
3689.32,384.848
3690.77,370.318
3692.22,386.524
3693.67,375.906
3695.12,378.7
3696.58,382.054
3698.03,385.966
3699.48,386.524
3700.93,385.966
3702.38,378.7
3703.84,390.437
3705.29,382.613
3706.74,372.553
3708.19,383.172
3709.64,401.055
3711.09,390.996
3712.55,387.083
3714,377.583
3715.45,380.377
3716.9,383.73
3718.35,388.201
3719.8,392.113
3721.26,383.73
3722.71,375.348
3724.16,383.73
3725.61,389.878
3727.06,389.878
3728.52,383.172
3729.97,380.936
3731.42,389.878
3732.87,387.083
3734.32,383.73
3735.77,397.702
3737.23,395.466
3738.68,388.201
3740.13,374.23
3741.58,393.231
3743.03,378.142
3744.49,380.936
3745.94,399.378
3747.39,388.76
3748.84,392.672
3750.29,397.702
3751.74,385.407
3753.2,385.966
3754.65,385.966
3756.1,376.465
3757.55,388.201
3759,383.172
3760.46,391.554
3761.91,394.907
3763.36,397.143
3764.81,398.261
3766.26,400.496
3767.71,380.936
3769.17,387.642
3770.62,396.584
3772.07,377.583
3773.52,382.613
3774.97,390.437
3776.42,380.377
3777.88,388.76
3779.33,389.878
3780.78,399.378
3782.23,400.496
3783.68,401.614
3785.14,409.997
3786.59,390.996
3788.04,387.083
3789.49,381.495
3790.94,398.261
3792.39,398.261
3793.85,394.348
3795.3,401.055
3796.75,403.29
3798.2,399.378
3799.65,395.466
3801.1,397.143
3802.56,373.671
3804.01,402.731
3805.46,396.025
3806.91,394.348
3808.36,407.761
3809.82,403.29
3811.27,395.466
3812.72,393.231
3814.17,394.907
3815.62,409.997
3817.07,405.526
3818.53,404.967
3819.98,422.85
3821.43,391.554
3822.88,392.113
3824.33,392.672
3825.79,404.408
3827.24,427.321
3828.69,425.645
3830.14,396.025
3831.59,411.673
3833.04,397.143
3834.5,401.614
3835.95,403.849
3837.4,409.438
3838.85,404.408
3840.3,403.29
3841.76,429.556
3843.21,386.524
3844.66,401.055
3846.11,401.614
3847.56,392.113
3849.01,426.204
3850.47,391.554
3851.92,407.761
3853.37,389.319
3854.82,396.584
3856.27,412.232
3857.72,412.791
3859.18,418.938
3860.63,417.262
3862.08,397.143
3863.53,412.232
3864.98,418.38
3866.44,432.91
3867.89,409.997
3869.34,404.967
3870.79,415.585
3872.24,417.821
3873.69,411.673
3875.15,417.821
3876.6,402.731
3878.05,408.879
3879.5,422.85
3880.95,407.202
3882.41,414.467
3883.86,422.85
3885.31,413.909
3886.76,411.114
3888.21,418.938
3889.66,420.615
3891.12,416.703
3892.57,433.469
3894.02,431.792
3895.47,435.704
3896.92,428.439
3898.37,427.88
3899.83,424.527
3901.28,418.38
3902.73,430.674
3904.18,425.086
3905.63,436.822
3907.09,431.233
3908.54,432.91
3909.99,444.646
3911.44,437.939
3912.89,439.616
3914.34,438.498
3915.8,422.85
3917.25,434.027
3918.7,454.705
3920.15,447.999
3921.6,462.527
3923.06,448.558
3924.51,431.792
3925.96,456.382
3927.41,452.47
3928.86,446.322
3930.31,472.028
3931.77,459.176
3933.22,461.412
3934.67,463.086
3936.12,460.853
3937.57,463.645
3939.02,465.88
3940.48,460.853
3941.93,455.264
3943.38,459.176
3944.83,466.439
3946.28,464.204
3947.74,466.439
3949.19,464.204
3950.64,469.234
3952.09,459.176
3953.54,454.146
3954.99,473.705
3956.45,470.351
3957.9,464.763
3959.35,493.266
3960.8,472.587
3962.25,479.852
3963.71,472.028
3965.16,474.823
3966.61,482.088
3968.06,480.97
3969.51,484.883
3970.96,475.94
3972.42,483.765
3973.87,485.441
3975.32,491.03
3976.77,486
3978.22,491.03
3979.68,489.353
3981.13,487.118
3982.58,502.208
3984.03,493.825
3985.48,510.032
3986.93,488.795
3988.39,503.885
3989.84,520.651
3991.29,503.885
3992.74,501.649
3994.19,496.619
3995.64,510.591
3997.1,510.591
3998.55,515.062
4000,513.386
