1.77681,22423.9
3.2286,15330.7
4.68039,5558.72
6.13218,1560.76
7.58397,188.766
9.03575,40.8297
10.4875,35.0926
11.9393,35.9122
13.3911,37.9613
14.8429,37.5515
16.2947,35.5024
17.7465,33.4535
19.1983,28.1261
20.6501,24.0282
22.1018,21.5694
23.5536,19.1106
25.0054,17.0616
26.4572,15.4224
27.909,14.193
29.3608,13.3734
30.8126,12.1441
32.2644,11.7343
33.7161,10.9147
35.1679,10.5049
36.6197,10.9147
38.0715,12.1441
39.5233,12.1441
40.9751,12.9637
42.4269,14.193
43.8787,15.4224
45.3304,18.291
46.7822,21.1596
48.234,29.7653
49.6858,48.6159
51.1376,80.58
52.5894,131.805
54.0412,209.666
55.493,315.803
56.9447,444.07
58.3965,580.122
59.8483,714.536
61.3001,807.148
62.7519,878.043
64.2037,942.381
65.6555,973.937
67.1073,1005.08
68.559,1022.7
70.0108,1036.64
71.4626,1068.19
72.9144,1089.09
74.3662,1102.61
75.818,1115.72
77.2698,1137.85
78.7216,1182.52
80.1733,1215.72
81.6251,1246.45
83.0769,1262.02
84.5287,1269.81
85.9805,1278
87.4323,1255.06
88.8841,1218.58
90.3359,1183.75
91.7877,1139.9
93.2394,1094.83
94.6912,1037.05
96.143,996.064
97.5948,960.413
99.0466,906.32
100.498,887.469
101.95,849.356
103.402,820.672
104.854,802.23
106.306,793.214
107.757,784.201
109.209,778.874
110.661,767.809
112.113,751.416
113.564,744.039
115.016,737.892
116.468,723.958
117.92,711.667
119.372,703.061
120.823,690.766
122.275,668.227
123.727,649.378
125.179,632.166
126.631,625.609
128.082,625.609
129.534,601.43
130.986,590.368
132.438,585.04
133.889,571.516
135.341,561.681
136.793,557.173
138.245,546.517
139.697,537.501
141.148,525.21
142.6,522.751
144.052,510.457
145.504,498.982
146.956,492.835
148.407,489.966
149.859,490.376
151.311,477.262
152.763,466.606
154.215,466.196
155.666,466.196
157.118,456.364
158.57,471.524
160.022,475.622
161.473,472.754
162.925,475.622
164.377,494.884
165.829,501.441
167.281,505.949
168.732,512.506
170.184,503.9
171.636,481.36
173.088,464.151
174.54,448.168
175.991,428.087
177.443,422.349
178.895,417.841
180.347,419.071
181.798,412.924
183.25,405.547
184.702,402.268
186.154,401.449
187.606,397.764
189.057,393.256
190.509,389.158
191.961,384.65
193.413,396.534
194.865,393.666
196.316,388.748
197.768,383.01
199.22,389.158
200.672,383.01
202.124,383.83
203.575,385.469
205.027,376.453
206.479,378.912
207.931,380.961
209.382,385.469
210.834,383.42
212.286,374.814
213.738,373.175
215.19,381.781
216.641,381.371
218.093,381.781
219.545,380.142
220.997,371.945
222.449,369.896
223.9,367.437
225.352,371.945
226.804,374.404
228.256,368.257
229.707,366.208
231.159,370.306
232.611,373.994
234.063,375.224
235.515,382.191
236.966,369.486
238.418,370.716
239.87,375.634
241.322,372.765
242.774,365.798
244.225,363.339
245.677,365.388
247.129,365.388
248.581,363.749
250.033,353.503
251.484,361.29
252.936,358.421
254.388,353.503
255.84,352.684
257.291,364.568
258.743,363.339
260.195,351.864
261.647,353.913
263.099,354.733
264.55,340.799
266.002,337.522
267.454,344.078
268.906,346.536
270.358,344.078
271.809,344.897
273.261,346.536
274.713,339.16
276.165,341.619
277.616,339.16
279.068,328.097
280.52,326.048
281.972,335.063
283.424,330.146
284.875,326.048
286.327,323.999
287.779,328.097
289.231,328.916
290.683,323.179
292.134,316.622
293.586,313.344
295.038,319.491
296.49,314.164
297.941,307.197
299.393,313.754
300.845,313.344
302.297,296.952
303.749,297.362
305.2,298.182
306.652,299.001
308.104,298.182
309.556,295.723
311.008,292.854
312.459,294.494
313.911,288.756
315.363,291.625
316.815,298.182
318.267,282.199
319.718,279.741
321.17,281.38
322.622,281.38
324.074,283.429
325.525,281.38
326.977,282.199
328.429,278.921
329.881,282.609
331.333,284.658
332.784,278.102
334.236,280.97
335.688,271.955
337.14,275.643
338.592,274.414
340.043,265.398
341.495,269.496
342.947,283.429
344.399,274.004
345.85,268.267
347.302,272.774
348.754,278.512
350.206,277.282
351.658,276.872
353.109,271.545
354.561,268.267
356.013,268.677
357.465,262.12
358.917,266.218
360.368,270.725
361.82,269.496
363.272,264.169
364.724,261.3
366.176,263.759
367.627,266.627
369.079,265.808
370.531,264.988
371.983,271.955
373.434,265.398
374.886,265.398
376.338,262.939
377.79,261.3
379.242,264.169
380.693,267.037
382.145,259.661
383.597,254.743
385.049,251.055
386.501,253.104
387.952,257.202
389.404,259.251
390.856,258.431
392.308,258.431
393.759,260.071
395.211,260.071
396.663,261.71
398.115,254.743
399.567,260.481
401.018,262.53
402.47,259.661
403.922,257.202
405.374,264.578
406.826,258.022
408.277,262.12
409.729,263.759
411.181,257.202
412.633,260.481
414.085,261.3
415.536,255.153
416.988,251.465
418.44,254.334
419.892,261.3
421.343,260.89
422.795,260.071
424.247,255.563
425.699,250.645
427.151,249.826
428.602,260.89
430.054,260.89
431.506,260.89
432.958,256.383
434.41,254.334
435.861,261.71
437.313,253.514
438.765,258.022
440.217,259.251
441.668,255.563
443.12,252.285
444.572,261.3
446.024,259.661
447.476,256.792
448.927,255.563
450.379,253.104
451.831,252.285
453.283,245.318
454.735,247.367
456.186,247.777
457.638,250.235
459.09,253.104
460.542,250.645
461.993,233.024
463.445,246.138
464.897,249.826
466.349,249.826
467.801,249.826
469.252,244.908
470.704,253.514
472.156,251.875
473.608,251.875
475.06,251.465
476.511,250.235
477.963,247.777
479.415,249.006
480.867,253.514
482.319,248.596
483.77,244.088
485.222,249.006
486.674,256.383
488.126,246.547
489.577,249.006
491.029,253.514
492.481,252.694
493.933,246.547
495.385,242.04
496.836,249.006
498.288,249.826
499.74,249.006
501.192,248.596
502.644,242.04
504.095,243.269
505.547,242.45
506.999,245.318
508.451,247.777
509.902,249.006
511.354,246.138
512.806,240.81
514.258,242.04
515.71,250.645
517.161,254.334
518.613,248.596
520.065,237.532
521.517,239.581
522.969,241.22
524.42,241.22
525.872,240.81
527.324,241.22
528.776,245.728
530.228,246.138
531.679,250.645
533.131,250.235
534.583,245.728
536.035,245.728
537.486,238.351
538.938,230.156
540.39,237.122
541.842,242.45
543.294,241.63
544.745,243.679
546.197,245.318
547.649,244.498
549.101,242.859
550.553,242.859
552.004,243.269
553.456,245.318
554.908,244.498
556.36,244.498
557.811,244.498
559.263,248.596
560.715,246.547
562.167,239.171
563.619,244.908
565.07,242.859
566.522,241.63
567.974,237.532
569.426,236.303
570.878,244.088
572.329,234.663
573.781,246.138
575.233,249.416
576.685,246.138
578.137,242.45
579.588,242.45
581.04,239.991
582.492,238.761
583.944,242.859
585.395,243.679
586.847,239.991
588.299,237.122
589.751,239.581
591.203,248.596
592.654,240.81
594.106,235.893
595.558,240.4
597.01,238.761
598.462,239.171
599.913,238.351
601.365,246.138
602.817,247.367
604.269,243.679
605.72,246.957
607.172,246.547
608.624,236.303
610.076,240.81
611.528,242.45
612.979,241.63
614.431,240.81
615.883,244.498
617.335,244.498
618.787,246.957
620.238,247.367
621.69,242.04
623.142,240.81
624.594,248.187
626.046,240.81
627.497,241.22
628.949,244.908
630.401,244.088
631.853,237.942
633.304,242.45
634.756,248.596
636.208,242.859
637.66,249.416
639.112,253.514
640.563,249.416
642.015,250.645
643.467,254.334
644.919,247.367
646.371,245.728
647.822,246.957
649.274,249.826
650.726,251.465
652.178,262.939
653.629,255.563
655.081,257.612
656.533,255.563
657.985,252.285
659.437,251.875
660.888,259.251
662.34,254.334
663.792,254.334
665.244,252.694
666.696,251.055
668.147,253.924
669.599,254.743
671.051,252.694
672.503,252.694
673.954,255.973
675.406,255.973
676.858,255.563
678.31,256.792
679.762,255.153
681.213,260.071
682.665,259.661
684.117,259.251
685.569,256.383
687.021,252.285
688.472,257.612
689.924,252.285
691.376,254.334
692.828,250.235
694.28,250.235
695.731,255.563
697.183,252.694
698.635,249.826
700.087,255.153
701.538,258.431
702.99,257.202
704.442,259.251
705.894,262.53
707.346,257.612
708.797,264.578
710.249,258.022
711.701,264.169
713.153,268.267
714.605,266.218
716.056,263.759
717.508,257.612
718.96,261.3
720.412,256.383
721.863,259.661
723.315,264.578
724.767,265.808
726.219,263.349
727.671,258.022
729.122,260.481
730.574,262.53
732.026,260.071
733.478,256.792
734.93,258.431
736.381,260.071
737.833,262.53
739.285,264.988
740.737,263.349
742.189,264.988
743.64,268.677
745.092,264.988
746.544,253.924
747.996,258.841
749.447,269.086
750.899,266.218
752.351,259.251
753.803,257.202
755.255,258.022
756.706,259.661
758.158,255.153
759.61,258.841
761.062,262.939
762.514,262.12
763.965,262.53
765.417,269.086
766.869,264.578
768.321,255.563
769.772,262.53
771.224,262.12
772.676,260.481
774.128,272.365
775.58,260.89
777.031,264.988
778.483,260.071
779.935,266.627
781.387,270.725
782.839,268.267
784.29,274.414
785.742,274.823
787.194,263.759
788.646,266.218
790.098,269.496
791.549,265.398
793.001,267.447
794.453,267.037
795.905,270.315
797.356,267.447
798.808,267.037
800.26,266.627
801.712,268.267
803.164,273.184
804.615,278.921
806.067,266.627
807.519,271.135
808.971,273.184
810.423,272.365
811.874,272.365
813.326,275.643
814.778,265.398
816.23,274.823
817.681,271.545
819.133,277.692
820.585,285.478
822.037,281.38
823.489,276.462
824.94,275.643
826.392,276.053
827.844,280.561
829.296,283.019
830.748,276.462
832.199,271.135
833.651,271.545
835.103,287.527
836.555,282.609
838.007,284.658
839.458,291.215
840.91,290.396
842.362,283.019
843.814,280.561
845.265,278.921
846.717,280.151
848.169,284.658
849.621,298.182
851.073,293.674
852.524,289.166
853.976,295.723
855.428,294.084
856.88,297.362
858.332,297.362
859.783,296.952
861.235,291.625
862.687,297.772
864.139,300.231
865.59,299.001
867.042,301.46
868.494,287.527
869.946,285.478
871.398,286.298
872.849,292.854
874.301,293.674
875.753,292.035
877.205,291.625
878.657,293.674
880.108,287.527
881.56,289.166
883.012,288.756
884.464,289.576
885.915,287.937
887.367,285.478
888.819,289.576
890.271,287.117
891.723,289.576
893.174,297.362
894.626,301.05
896.078,303.509
897.53,301.46
898.982,296.542
900.433,294.084
901.885,290.805
903.337,298.182
904.789,302.689
906.241,303.099
907.692,304.329
909.144,301.46
910.596,303.509
912.048,300.231
913.499,307.197
914.951,304.738
916.403,301.87
917.855,296.542
919.307,289.986
920.758,298.182
922.21,309.246
923.662,305.558
925.114,307.197
926.566,306.378
928.017,306.378
929.469,313.754
930.921,310.476
932.373,307.607
933.824,293.674
935.276,307.607
936.728,314.164
938.18,310.476
939.632,312.934
941.083,312.525
942.535,306.788
943.987,309.246
945.439,316.213
946.891,310.885
948.342,306.788
949.794,308.426
951.246,309.246
952.698,312.115
954.15,319.491
955.601,309.246
957.053,304.738
958.505,308.426
959.957,310.476
961.408,306.788
962.86,305.148
964.312,318.672
965.764,319.491
967.216,315.393
968.667,308.836
970.119,315.803
971.571,313.344
973.023,313.344
974.475,317.032
975.926,311.295
977.378,314.573
978.83,313.754
980.282,316.213
981.733,316.213
983.185,320.311
984.637,319.081
986.089,316.213
987.541,315.803
988.992,323.589
990.444,319.901
991.896,327.687
993.348,319.491
994.8,322.769
996.251,327.277
997.703,321.13
999.155,331.785
1000.61,323.179
1002.06,326.458
1003.51,328.916
1004.96,327.277
1006.41,323.999
1007.87,327.687
1009.32,333.015
1010.77,334.244
1012.22,337.522
1013.67,337.112
1015.12,333.015
1016.58,336.703
1018.03,332.605
1019.48,333.424
1020.93,342.848
1022.38,348.176
1023.84,352.274
1025.29,355.143
1026.74,351.044
1028.19,352.274
1029.64,358.011
1031.09,359.241
1032.55,353.503
1034,358.421
1035.45,363.339
1036.9,366.208
1038.35,373.175
1039.8,373.175
1041.26,375.224
1042.71,384.24
1044.16,387.518
1045.61,373.994
1047.06,376.043
1048.52,383.01
1049.97,387.928
1051.42,391.207
1052.87,396.534
1054.32,394.075
1055.77,396.124
1057.23,405.547
1058.68,410.055
1060.13,417.022
1061.58,412.104
1063.03,415.792
1064.49,423.989
1065.94,427.677
1067.39,419.071
1068.84,417.022
1070.29,434.644
1071.74,437.922
1073.2,439.152
1074.65,444.889
1076.1,449.807
1077.55,453.905
1079,448.988
1080.46,446.529
1081.91,450.217
1083.36,447.348
1084.81,467.016
1086.26,469.065
1087.71,473.163
1089.17,467.016
1090.62,449.397
1092.07,459.233
1093.52,469.885
1094.97,459.643
1096.42,455.135
1097.88,462.921
1099.33,451.037
1100.78,449.807
1102.23,452.676
1103.68,452.676
1105.14,445.299
1106.59,444.48
1108.04,446.938
1109.49,442.84
1110.94,444.07
1112.39,432.595
1113.85,436.693
1115.3,435.054
1116.75,434.234
1118.2,433.824
1119.65,428.497
1121.11,426.857
1122.56,422.759
1124.01,426.857
1125.46,427.267
1126.91,420.3
1128.36,421.53
1129.82,420.3
1131.27,414.563
1132.72,415.792
1134.17,407.596
1135.62,414.153
1137.07,407.186
1138.53,404.727
1139.98,413.333
1141.43,413.333
1142.88,403.088
1144.33,405.137
1145.79,411.694
1147.24,418.251
1148.69,408.416
1150.14,403.498
1151.59,410.055
1153.04,398.993
1154.5,399.813
1155.95,404.317
1157.4,408.825
1158.85,408.416
1160.3,406.776
1161.76,406.776
1163.21,403.498
1164.66,403.088
1166.11,398.174
1167.56,405.137
1169.01,407.186
1170.47,410.875
1171.92,413.333
1173.37,409.235
1174.82,419.481
1176.27,411.694
1177.72,411.694
1179.18,426.448
1180.63,413.743
1182.08,412.924
1183.53,419.89
1184.98,418.251
1186.44,417.022
1187.89,414.563
1189.34,415.792
1190.79,417.022
1192.24,410.465
1193.69,421.94
1195.15,427.267
1196.6,423.989
1198.05,418.251
1199.5,420.71
1200.95,429.726
1202.41,430.136
1203.86,427.267
1205.31,426.038
1206.76,439.562
1208.21,436.693
1209.66,430.546
1211.12,424.808
1212.57,430.956
1214.02,430.546
1215.47,422.349
1216.92,430.136
1218.37,434.644
1219.83,435.464
1221.28,437.513
1222.73,437.513
1224.18,435.464
1225.63,441.611
1227.09,443.66
1228.54,436.693
1229.99,430.956
1231.44,438.742
1232.89,431.365
1234.34,445.299
1235.8,443.66
1237.25,440.791
1238.7,433.005
1240.15,443.25
1241.6,455.545
1243.06,451.446
1244.51,450.627
1245.96,454.315
1247.41,471.114
1248.86,463.331
1250.31,454.725
1251.77,466.196
1253.22,472.344
1254.67,472.754
1256.12,469.885
1257.57,471.524
1259.02,480.13
1260.48,485.458
1261.93,500.211
1263.38,492.015
1264.83,501.031
1266.28,502.26
1267.74,512.506
1269.19,517.014
1270.64,519.473
1272.09,532.584
1273.54,548.976
1274.99,550.616
1276.45,548.567
1277.9,542.829
1279.35,558.812
1280.8,577.664
1282.25,580.532
1283.71,586.27
1285.16,587.499
1286.61,592.417
1288.06,610.446
1289.51,623.15
1290.96,624.379
1292.42,643.641
1293.87,669.456
1295.32,675.603
1296.77,701.012
1298.22,723.139
1299.67,737.892
1301.13,748.957
1302.58,772.727
1304.03,802.64
1305.48,819.033
1306.93,843.622
1308.39,879.273
1309.84,912.055
1311.29,944.84
1312.74,986.638
1314.19,1041.96
1315.64,1088.27
1317.1,1129.66
1318.55,1171.46
1320,1212.44
1321.45,1263.66
1322.9,1332.1
1324.36,1364.88
1325.81,1418.57
1327.26,1463.64
1328.71,1510.36
1330.16,1546.83
1331.61,1574.29
1333.07,1597.24
1334.52,1629.2
1335.97,1646.82
1337.42,1620.59
1338.87,1622.23
1340.33,1594.37
1341.78,1565.27
1343.23,1539.86
1344.68,1495.19
1346.13,1462.82
1347.58,1419.39
1349.04,1354.64
1350.49,1294.8
1351.94,1240.71
1353.39,1175.14
1354.84,1124.33
1356.29,1098.51
1357.75,1048.93
1359.2,1005.08
1360.65,975.573
1362.1,924.349
1363.55,881.731
1365.01,853.044
1366.46,826.409
1367.91,801.41
1369.36,783.382
1370.81,765.76
1372.26,748.138
1373.72,732.565
1375.17,719.044
1376.62,687.898
1378.07,681.341
1379.52,666.997
1380.98,660.03
1382.43,656.752
1383.88,644.46
1385.33,627.658
1386.78,627.658
1388.23,629.297
1389.69,613.314
1391.14,609.216
1392.59,626.429
1394.04,628.887
1395.49,605.528
1396.94,604.708
1398.4,594.873
1399.85,595.692
1401.3,598.971
1402.75,592.007
1404.2,589.548
1405.66,587.909
1407.11,596.512
1408.56,604.708
1410.01,598.151
1411.46,601.02
1412.91,585.86
1414.37,596.102
1415.82,597.331
1417.27,592.823
1418.72,588.729
1420.17,589.958
1421.63,596.512
1423.08,592.417
1424.53,600.61
1425.98,590.368
1427.43,594.873
1428.88,593.643
1430.34,610.446
1431.79,614.134
1433.24,612.085
1434.69,616.593
1436.14,621.921
1437.59,630.937
1439.05,627.658
1440.5,628.068
1441.95,639.952
1443.4,647.329
1444.85,646.919
1446.31,632.166
1447.76,644.051
1449.21,651.427
1450.66,660.03
1452.11,657.571
1453.56,656.345
1455.02,663.309
1456.47,674.784
1457.92,682.98
1459.37,692.816
1460.82,689.537
1462.28,693.225
1463.73,723.958
1465.18,730.925
1466.63,735.023
1468.08,732.155
1469.53,736.663
1470.99,741.581
1472.44,748.547
1473.89,767.809
1475.34,784.201
1476.79,787.887
1478.24,801.001
1479.7,801.41
1481.15,832.557
1482.6,830.917
1484.05,849.356
1485.5,860.831
1486.96,864.519
1488.41,879.682
1489.86,900.583
1491.31,909.599
1492.76,929.677
1494.21,949.758
1495.67,970.659
1497.12,983.359
1498.57,1008.36
1500.02,1023.52
1501.47,1059.17
1502.93,1066.55
1504.38,1100.56
1505.83,1135.4
1507.28,1180.47
1508.73,1214.49
1510.18,1253.01
1511.64,1291.53
1513.09,1337.02
1514.54,1394.8
1515.99,1447.66
1517.44,1501.34
1518.89,1541.5
1520.35,1607.07
1521.8,1671.82
1523.25,1769.35
1524.7,1856.23
1526.15,1988.59
1527.61,2082.84
1529.06,2231.19
1530.51,2386.5
1531.96,2561.9
1533.41,2764.75
1534.86,2958.58
1536.32,3192.98
1537.77,3486.8
1539.22,3808.9
1540.67,4175.26
1542.12,4552.67
1543.58,4973.97
1545.03,5426.36
1546.48,5920.58
1547.93,6463.57
1549.38,7035.62
1550.83,7639.27
1552.29,8290.04
1553.74,8939.55
1555.19,9557.93
1556.64,10188.6
1558.09,10846.8
1559.54,11426.2
1561,12019.2
1562.45,12503.5
1563.9,12857.2
1565.35,13063.3
1566.8,13177.7
1568.26,13071.1
1569.71,12852.7
1571.16,12562.6
1572.61,12108.5
1574.06,11520
1575.51,10817.6
1576.97,10107.5
1578.42,9386.22
1579.87,8677.3
1581.32,7974.88
1582.77,7291.78
1584.23,6672.54
1585.68,6030.42
1587.13,5481.3
1588.58,5031.34
1590.03,4587.11
1591.48,4189.18
1592.94,3884.73
1594.39,3626.96
1595.84,3359.77
1597.29,3148.72
1598.74,2943.01
1600.2,2763.93
1601.65,2637.71
1603.1,2510.26
1604.55,2374.62
1606,2271.35
1607.45,2163.16
1608.91,2052.93
1610.36,1950.07
1611.81,1837.38
1613.26,1789.43
1614.71,1698.45
1616.16,1625.51
1617.62,1537.82
1619.07,1468.56
1620.52,1416.52
1621.97,1350.13
1623.42,1286.2
1624.88,1249.73
1626.33,1207.93
1627.78,1159.16
1629.23,1102.2
1630.68,1066.14
1632.13,1046.88
1633.59,1023.93
1635.04,989.097
1636.49,963.692
1637.94,941.971
1639.39,921.89
1640.85,904.681
1642.3,901.403
1643.75,875.994
1645.2,849.356
1646.65,838.704
1648.1,823.131
1649.56,797.312
1651.01,784.608
1652.46,776.415
1653.91,758.793
1655.36,745.269
1656.81,739.531
1658.27,734.614
1659.72,730.106
1661.17,717.405
1662.62,696.094
1664.07,691.586
1665.53,678.472
1666.98,678.882
1668.43,678.472
1669.88,657.571
1671.33,648.149
1672.78,642.002
1674.24,633.805
1675.69,630.117
1677.14,618.232
1678.59,617.003
1680.04,615.363
1681.5,612.085
1682.95,601.02
1684.4,595.692
1685.85,585.45
1687.3,590.368
1688.75,577.254
1690.21,576.434
1691.66,567.008
1693.11,567.008
1694.56,559.632
1696.01,554.714
1697.46,556.353
1698.92,553.894
1700.37,555.124
1701.82,555.124
1703.27,548.976
1704.72,545.288
1706.18,545.288
1707.63,547.337
1709.08,542.419
1710.53,535.042
1711.98,538.321
1713.43,541.19
1714.89,537.501
1716.34,526.85
1717.79,520.702
1719.24,515.784
1720.69,523.571
1722.15,522.751
1723.6,529.305
1725.05,520.292
1726.5,517.424
1727.95,517.014
1729.4,516.194
1730.86,526.44
1732.31,523.571
1733.76,518.653
1735.21,516.194
1736.66,515.784
1738.11,512.506
1739.57,514.555
1741.02,506.359
1742.47,507.998
1743.92,510.867
1745.37,505.949
1746.83,507.178
1748.28,503.49
1749.73,497.753
1751.18,509.227
1752.63,495.294
1754.08,480.54
1755.54,490.376
1756.99,498.982
1758.44,492.835
1759.89,477.671
1761.34,484.229
1762.8,490.376
1764.25,486.278
1765.7,482.179
1767.15,483.819
1768.6,476.032
1770.05,466.606
1771.51,470.295
1772.96,472.754
1774.41,467.426
1775.86,472.344
1777.31,467.836
1778.76,460.462
1780.22,465.787
1781.67,459.233
1783.12,454.725
1784.57,451.037
1786.02,442.43
1787.48,461.282
1788.93,439.152
1790.38,451.856
1791.83,447.758
1793.28,453.496
1794.73,444.48
1796.19,443.25
1797.64,446.529
1799.09,442.43
1800.54,439.152
1801.99,446.529
1803.45,445.299
1804.9,432.595
1806.35,431.775
1807.8,434.644
1809.25,432.185
1810.7,440.791
1812.16,439.562
1813.61,430.546
1815.06,430.136
1816.51,428.497
1817.96,424.808
1819.41,429.726
1820.87,437.513
1822.32,438.742
1823.77,440.791
1825.22,446.529
1826.67,444.889
1828.13,443.66
1829.58,456.774
1831.03,434.234
1832.48,431.775
1833.93,432.185
1835.38,436.693
1836.84,433.005
1838.29,445.299
1839.74,447.348
1841.19,449.397
1842.64,453.086
1844.1,446.529
1845.55,448.578
1847,453.905
1848.45,460.462
1849.9,472.754
1851.35,474.803
1852.81,468.246
1854.26,463.331
1855.71,464.967
1857.16,467.016
1858.61,465.787
1860.07,464.561
1861.52,470.705
1862.97,471.934
1864.42,469.065
1865.87,470.295
1867.32,471.524
1868.78,472.344
1870.23,469.475
1871.68,476.852
1873.13,464.561
1874.58,467.836
1876.03,462.512
1877.49,455.954
1878.94,453.905
1880.39,446.938
1881.84,447.348
1883.29,454.315
1884.75,462.102
1886.2,439.152
1887.65,447.758
1889.1,453.086
1890.55,444.48
1892,441.201
1893.46,441.201
1894.91,437.103
1896.36,430.956
1897.81,422.349
1899.26,414.973
1900.72,425.218
1902.17,428.906
1903.62,423.579
1905.07,423.169
1906.52,418.661
1907.97,419.89
1909.43,414.973
1910.88,418.661
1912.33,413.743
1913.78,412.514
1915.23,411.694
1916.68,407.186
1918.14,398.993
1919.59,403.088
1921.04,408.416
1922.49,409.235
1923.94,417.432
1925.4,412.104
1926.85,403.498
1928.3,390.797
1929.75,407.596
1931.2,406.776
1932.65,401.449
1934.11,410.055
1935.56,411.284
1937.01,405.957
1938.46,398.583
1939.91,392.026
1941.37,397.354
1942.82,407.186
1944.27,412.924
1945.72,413.743
1947.17,409.235
1948.62,411.694
1950.08,411.284
1951.53,403.498
1952.98,415.383
1954.43,412.924
1955.88,410.055
1957.33,411.284
1958.79,410.055
1960.24,410.055
1961.69,410.465
1963.14,414.973
1964.59,414.973
1966.05,408.416
1967.5,410.875
1968.95,420.3
1970.4,416.202
1971.85,410.055
1973.3,408.416
1974.76,406.776
1976.21,408.006
1977.66,419.071
1979.11,427.267
1980.56,425.218
1982.02,420.3
1983.47,420.3
1984.92,423.579
1986.37,420.71
1987.82,430.546
1989.27,428.087
1990.73,425.628
1992.18,429.726
1993.63,428.906
1995.08,423.579
1996.53,435.464
1997.98,430.546
1999.44,433.005
2000.89,431.365
2002.34,421.12
2003.79,439.152
2005.24,433.824
2006.7,424.399
2008.15,422.759
2009.6,419.89
2011.05,413.333
2012.5,419.89
2013.95,419.481
2015.41,399.813
2016.86,439.562
2018.31,414.563
2019.76,406.367
2021.21,419.89
2022.67,414.973
2024.12,411.284
2025.57,410.465
2027.02,418.251
2028.47,414.153
2029.92,439.152
2031.38,415.383
2032.83,408.416
2034.28,398.993
2035.73,399.813
2037.18,406.776
2038.63,392.436
2040.09,397.354
2041.54,400.632
2042.99,394.895
2044.44,392.436
2045.89,395.305
2047.35,389.977
2048.8,394.895
2050.25,385.879
2051.7,383.01
2053.15,382.6
2054.6,381.371
2056.06,381.781
2057.51,385.059
2058.96,384.24
2060.41,373.175
2061.86,374.404
2063.32,375.224
2064.77,387.518
2066.22,380.551
2067.67,376.863
2069.12,379.732
2070.57,377.683
2072.03,373.994
2073.48,371.535
2074.93,366.208
2076.38,366.208
2077.83,367.027
2079.28,368.667
2080.74,366.208
2082.19,369.076
2083.64,367.437
2085.09,364.568
2086.54,367.847
2088,371.126
2089.45,368.667
2090.9,367.437
2092.35,367.027
2093.8,364.978
2095.25,361.29
2096.71,362.929
2098.16,362.929
2099.61,363.339
2101.06,358.831
2102.51,360.06
2103.97,370.306
2105.42,376.863
2106.87,369.486
2108.32,367.847
2109.77,364.978
2111.22,361.29
2112.68,369.486
2114.13,376.863
2115.58,367.027
2117.03,366.618
2118.48,380.142
2119.94,380.551
2121.39,374.814
2122.84,370.716
2124.29,372.765
2125.74,378.092
2127.19,379.732
2128.65,366.208
2130.1,371.535
2131.55,383.42
2133,375.634
2134.45,371.945
2135.9,378.092
2137.36,372.355
2138.81,369.076
2140.26,375.634
2141.71,384.24
2143.16,375.224
2144.62,380.142
2146.07,380.142
2147.52,378.502
2148.97,383.42
2150.42,381.781
2151.87,385.879
2153.33,391.207
2154.78,385.059
2156.23,383.42
2157.68,385.059
2159.13,388.338
2160.58,389.567
2162.04,390.387
2163.49,384.65
2164.94,382.191
2166.39,386.289
2167.84,392.846
2169.3,389.567
2170.75,385.059
2172.2,383.83
2173.65,394.895
2175.1,392.846
2176.55,388.748
2178.01,394.485
2179.46,395.715
2180.91,388.748
2182.36,389.158
2183.81,392.026
2185.27,391.207
2186.72,405.957
2188.17,409.645
2189.62,409.235
2191.07,405.547
2192.52,394.075
2193.98,400.632
2195.43,389.977
2196.88,395.305
2198.33,410.055
2199.78,407.596
2201.24,419.481
2202.69,405.137
2204.14,403.088
2205.59,405.957
2207.04,411.694
2208.49,397.764
2209.95,401.449
2211.4,410.875
2212.85,398.174
2214.3,405.547
2215.75,387.928
2217.2,397.764
2218.66,404.727
2220.11,399.813
2221.56,408.825
2223.01,409.235
2224.46,406.367
2225.92,393.666
2227.37,393.666
2228.82,395.715
2230.27,410.875
2231.72,412.104
2233.17,403.498
2234.63,414.563
2236.08,411.284
2237.53,402.268
2238.98,411.284
2240.43,412.924
2241.89,417.432
2243.34,415.383
2244.79,414.973
2246.24,421.53
2247.69,423.169
2249.14,419.89
2250.6,417.841
2252.05,415.792
2253.5,418.661
2254.95,417.022
2256.4,412.924
2257.85,423.579
2259.31,430.956
2260.76,421.12
2262.21,423.169
2263.66,421.53
2265.11,423.169
2266.57,429.316
2268.02,427.267
2269.47,424.399
2270.92,423.579
2272.37,419.481
2273.82,432.595
2275.28,426.857
2276.73,423.579
2278.18,425.628
2279.63,426.038
2281.08,433.005
2282.54,437.513
2283.99,433.824
2285.44,447.758
2286.89,444.48
2288.34,442.84
2289.79,446.119
2291.25,448.578
2292.7,444.48
2294.15,439.562
2295.6,446.938
2297.05,442.84
2298.5,450.217
2299.96,455.135
2301.41,460.872
2302.86,449.397
2304.31,441.201
2305.76,468.246
2307.22,470.295
2308.67,458.413
2310.12,455.545
2311.57,453.905
2313.02,470.705
2314.47,479.311
2315.93,465.377
2317.38,465.787
2318.83,472.754
2320.28,456.774
2321.73,460.462
2323.19,471.114
2324.64,479.311
2326.09,481.36
2327.54,483.409
2328.99,478.491
2330.44,480.54
2331.9,484.229
2333.35,483.819
2334.8,489.556
2336.25,491.195
2337.7,492.835
2339.16,491.195
2340.61,491.195
2342.06,501.031
2343.51,505.129
2344.96,504.31
2346.41,510.867
2347.87,502.67
2349.32,506.768
2350.77,522.341
2352.22,525.21
2353.67,526.85
2355.12,528.079
2356.58,529.305
2358.03,524.8
2359.48,536.682
2360.93,523.981
2362.38,532.993
2363.84,540.37
2365.29,542.009
2366.74,541.19
2368.19,549.796
2369.64,562.5
2371.09,572.746
2372.55,583.401
2374,584.221
2375.45,597.331
2376.9,597.331
2378.35,602.659
2379.8,618.642
2381.26,617.413
2382.71,622.74
2384.16,623.97
2385.61,633.805
2387.06,643.641
2388.52,640.772
2389.97,665.768
2391.42,678.062
2392.87,691.176
2394.32,701.422
2395.77,723.549
2397.23,713.307
2398.68,718.634
2400.13,742.81
2401.58,761.662
2403.03,779.694
2404.49,783.382
2405.94,797.312
2407.39,818.623
2408.84,828.049
2410.29,840.343
2411.74,849.766
2413.2,861.241
2414.65,869.027
2416.1,897.305
2417.55,914.923
2419,914.104
2420.46,915.743
2421.91,920.251
2423.36,907.14
2424.81,915.743
2426.26,944.02
2427.71,939.103
2429.17,941.971
2430.62,964.511
2432.07,952.217
2433.52,954.676
2434.97,928.037
2436.42,936.644
2437.88,947.709
2439.33,936.644
2440.78,933.365
2442.23,921.07
2443.68,911.235
2445.14,919.841
2446.59,907.14
2448.04,912.055
2449.49,911.235
2450.94,900.583
2452.39,885.01
2453.85,882.141
2455.3,874.355
2456.75,869.847
2458.2,863.29
2459.65,858.782
2461.1,851.815
2462.56,842.802
2464.01,848.126
2465.46,839.114
2466.91,820.672
2468.36,827.639
2469.82,810.017
2471.27,835.835
2472.72,831.737
2474.17,814.525
2475.62,807.148
2477.07,798.132
2478.53,794.853
2479.98,787.477
2481.43,790.755
2482.88,807.968
2484.33,808.787
2485.79,810.017
2487.24,793.624
2488.69,793.624
2490.14,791.165
2491.59,801.41
2493.04,799.771
2494.5,798.952
2495.95,790.755
2497.4,802.23
2498.85,793.624
2500.3,807.968
2501.76,814.115
2503.21,810.426
2504.66,823.131
2506.11,814.525
2507.56,807.148
2509.01,801.82
2510.47,831.327
2511.92,823.541
2513.37,823.951
2514.82,841.163
2516.27,845.261
2517.72,851.815
2519.18,848.536
2520.63,840.753
2522.08,852.634
2523.53,864.519
2524.98,871.486
2526.44,861.241
2527.89,873.125
2529.34,888.698
2530.79,904.681
2532.24,910.009
2533.69,912.874
2535.15,925.988
2536.6,922.3
2538.05,961.643
2539.5,950.578
2540.95,960.823
2542.41,972.708
2543.86,987.458
2545.31,999.342
2546.76,1009.59
2548.21,1003.03
2549.66,1022.29
2551.12,1040.32
2552.57,1071.88
2554.02,1089.5
2555.47,1091.55
2556.92,1102.2
2558.37,1117.77
2559.83,1141.54
2561.28,1153.02
2562.73,1165.72
2564.18,1210.39
2565.63,1238.25
2567.09,1247.27
2568.54,1267.35
2569.99,1289.48
2571.44,1318.16
2572.89,1335.38
2574.34,1364.88
2575.8,1370.21
2577.25,1439.87
2578.7,1485.77
2580.15,1509.54
2581.6,1535.36
2583.06,1566.09
2584.51,1600.92
2585.96,1652.15
2587.41,1714.85
2588.86,1756.64
2590.31,1796.81
2591.77,1834.92
2593.22,1905.81
2594.67,1957.04
2596.12,2017.69
2597.57,2098.01
2599.02,2161.11
2600.48,2226.27
2601.93,2300.04
2603.38,2374.21
2604.83,2477.07
2606.28,2556.57
2607.74,2667.62
2609.19,2740.98
2610.64,2853.67
2612.09,2935.63
2613.54,3065.13
2614.99,3192.98
2616.45,3322.89
2617.9,3462.22
2619.35,3603.99
2620.8,3737.61
2622.25,3898.25
2623.71,4053.98
2625.16,4234.67
2626.61,4397.38
2628.06,4558.02
2629.51,4783.39
2630.96,4945.28
2632.42,5172.31
2633.87,5352.19
2635.32,5552.59
2636.77,5747.24
2638.22,5967.73
2639.68,6154.58
2641.13,6309.91
2642.58,6493.07
2644.03,6699.61
2645.48,6871.73
2646.93,7077.86
2648.39,7179.06
2649.84,7371.67
2651.29,7504.03
2652.74,7606.49
2654.19,7697.06
2655.64,7833.51
2657.1,7878.19
2658.55,7931.87
2660,7981.86
2661.45,7967.94
2662.9,7913.41
2664.36,7870.4
2665.81,7824.1
2667.26,7717.95
2668.71,7664.68
2670.16,7582.31
2671.61,7472.88
2673.07,7292.59
2674.52,7135.23
2675.97,6905.33
2677.42,6753.29
2678.87,6560.27
2680.32,6393.5
2681.78,6174.26
2683.23,5954.58
2684.68,5742.33
2686.13,5546.87
2687.58,5321.47
2689.04,5153.85
2690.49,4932.58
2691.94,4746.1
2693.39,4541.22
2694.84,4342.44
2696.29,4161.34
2697.75,3977.74
2699.2,3833.08
2700.65,3665.46
2702.1,3490.5
2703.55,3339.28
2705.01,3182.74
2706.46,3074.14
2707.91,2930.3
2709.36,2815.97
2710.81,2689.34
2712.26,2561.9
2713.72,2481.17
2715.17,2391.42
2716.62,2291.84
2718.07,2184.47
2719.52,2117.68
2720.98,2047.6
2722.43,1958.27
2723.88,1894.34
2725.33,1836.97
2726.78,1764.84
2728.23,1698.04
2729.69,1671
2731.14,1602.56
2732.59,1549.7
2734.04,1514.87
2735.49,1471.43
2736.94,1422.66
2738.4,1385.78
2739.85,1347.67
2741.3,1296.85
2742.75,1281.69
2744.2,1272.27
2745.66,1211.62
2747.11,1183.75
2748.56,1162.03
2750.01,1146.05
2751.46,1127.61
2752.91,1112.04
2754.37,1078.43
2755.82,1060.4
2757.27,1037.46
2758.72,1022.29
2760.17,981.72
2761.63,980.491
2763.08,969.429
2764.53,940.332
2765.98,942.381
2767.43,926.808
2768.88,894.846
2770.34,896.485
2771.79,875.994
2773.24,860.011
2774.69,848.126
2776.14,839.933
2777.59,850.175
2779.05,820.672
2780.5,812.885
2781.95,808.377
2783.4,812.476
2784.85,803.05
2786.31,785.018
2787.76,771.907
2789.21,771.497
2790.66,759.613
2792.11,750.187
2793.56,735.843
2795.02,734.614
2796.47,731.745
2797.92,730.925
2799.37,720.68
2800.82,720.68
2802.28,719.044
2803.73,701.422
2805.18,696.504
2806.63,697.324
2808.08,687.898
2809.53,672.734
2810.99,677.242
2812.44,675.603
2813.89,656.752
2815.34,659.211
2816.79,649.788
2818.24,656.345
2819.7,655.935
2821.15,649.788
2822.6,640.772
2824.05,636.674
2825.5,634.625
2826.96,641.182
2828.41,632.166
2829.86,638.313
2831.31,617.003
2832.76,609.626
2834.21,617.413
2835.67,621.511
2837.12,620.281
2838.57,619.871
2840.02,602.249
2841.47,612.904
2842.93,590.368
2844.38,598.971
2845.83,593.643
2847.28,586.68
2848.73,582.991
2850.18,592.417
2851.64,589.958
2853.09,593.233
2854.54,589.958
2855.99,584.63
2857.44,575.615
2858.9,589.548
2860.35,580.942
2861.8,576.024
2863.25,585.86
2864.7,576.844
2866.15,578.893
2867.61,584.63
2869.06,589.958
2870.51,585.86
2871.96,611.265
2873.41,592.417
2874.86,592.417
2876.32,577.254
2877.77,583.811
2879.22,579.303
2880.67,587.089
2882.12,596.922
2883.58,595.692
2885.03,593.643
2886.48,589.958
2887.93,573.565
2889.38,583.401
2890.83,578.073
2892.29,598.561
2893.74,589.548
2895.19,580.532
2896.64,578.073
2898.09,578.483
2899.54,580.532
2901,573.565
2902.45,574.385
2903.9,598.971
2905.35,574.795
2906.8,586.68
2908.26,587.089
2909.71,584.63
2911.16,574.795
2912.61,569.467
2914.06,562.091
2915.51,567.008
2916.97,560.041
2918.42,567.008
2919.87,562.5
2921.32,564.959
2922.77,555.943
2924.23,551.435
2925.68,544.468
2927.13,545.288
2928.58,555.943
2930.03,542.009
2931.48,541.19
2932.94,525.21
2934.39,532.174
2935.84,527.669
2937.29,523.981
2938.74,514.145
2940.2,517.424
2941.65,505.539
2943.1,490.786
2944.55,493.654
2946,496.113
2947.45,479.311
2948.91,472.344
2950.36,477.262
2951.81,482.589
2953.26,464.967
2954.71,469.065
2956.16,475.212
2957.62,464.967
2959.07,456.364
2960.52,459.643
2961.97,449.397
2963.42,448.578
2964.88,433.414
2966.33,435.054
2967.78,444.889
2969.23,437.513
2970.68,432.185
2972.13,434.644
2973.59,423.989
2975.04,421.53
2976.49,426.448
2977.94,423.579
2979.39,419.481
2980.84,417.022
2982.3,418.251
2983.75,410.055
2985.2,408.006
2986.65,399.813
2988.1,409.645
2989.56,410.055
2991.01,408.416
2992.46,411.284
2993.91,405.547
2995.36,400.632
2996.81,394.485
2998.27,397.354
2999.72,398.993
3001.17,389.977
3002.62,388.748
3004.07,385.469
3005.53,398.583
3006.98,394.485
3008.43,389.158
3009.88,389.567
3011.33,387.928
3012.78,389.158
3014.24,389.158
3015.69,374.814
3017.14,384.24
3018.59,380.961
3020.04,377.273
3021.5,384.24
3022.95,380.961
3024.4,379.732
3025.85,385.059
3027.3,383.83
3028.75,375.634
3030.21,393.666
3031.66,373.584
3033.11,381.781
3034.56,385.879
3036.01,376.863
3037.46,377.683
3038.92,380.142
3040.37,373.584
3041.82,379.322
3043.27,385.059
3044.72,371.126
3046.18,376.043
3047.63,378.502
3049.08,380.551
3050.53,381.781
3051.98,380.961
3053.43,378.912
3054.89,378.912
3056.34,379.732
3057.79,380.142
3059.24,387.518
3060.69,385.469
3062.15,384.24
3063.6,383.42
3065.05,386.289
3066.5,391.616
3067.95,387.108
3069.4,381.371
3070.86,385.879
3072.31,388.338
3073.76,388.748
3075.21,401.039
3076.66,388.338
3078.11,403.498
3079.57,402.268
3081.02,402.678
3082.47,402.678
3083.92,408.416
3085.37,410.055
3086.83,418.661
3088.28,412.104
3089.73,413.333
3091.18,413.743
3092.63,424.399
3094.08,435.873
3095.54,434.234
3096.99,437.103
3098.44,453.086
3099.89,448.168
3101.34,448.168
3102.8,467.426
3104.25,478.491
3105.7,484.638
3107.15,493.244
3108.6,490.376
3110.05,493.654
3111.51,500.621
3112.96,507.998
3114.41,531.764
3115.86,528.079
3117.31,532.174
3118.76,524.391
3120.22,544.468
3121.67,554.304
3123.12,553.484
3124.57,564.549
3126.02,579.303
3127.48,576.434
3128.93,609.626
3130.38,602.249
3131.83,597.331
3133.28,601.839
3134.73,614.544
3136.19,607.987
3137.64,611.675
3139.09,603.888
3140.54,624.379
3141.99,627.658
3143.45,631.756
3144.9,624.379
3146.35,631.346
3147.8,637.494
3149.25,648.968
3150.7,639.952
3152.16,658.801
3153.61,653.067
3155.06,639.952
3156.51,645.28
3157.96,648.559
3159.42,657.571
3160.87,637.084
3162.32,653.067
3163.77,656.345
3165.22,654.706
3166.67,664.948
3168.13,666.177
3169.58,654.296
3171.03,648.149
3172.48,662.489
3173.93,661.26
3175.38,674.374
3176.84,688.717
3178.29,687.898
3179.74,702.651
3181.19,703.881
3182.64,712.077
3184.1,732.155
3185.55,720.273
3187,734.614
3188.45,739.531
3189.9,737.073
3191.35,756.334
3192.81,751.006
3194.26,751.826
3195.71,764.121
3197.16,764.94
3198.61,757.154
3200.06,780.103
3201.52,776.415
3202.97,778.464
3204.42,761.662
3205.87,769.448
3207.32,773.137
3208.78,759.613
3210.23,771.087
3211.68,737.073
3213.13,715.765
3214.58,710.848
3216.03,695.684
3217.49,691.176
3218.94,675.193
3220.39,661.669
3221.84,644.46
3223.29,632.986
3224.75,604.708
3226.2,591.597
3227.65,585.45
3229.1,567.828
3230.55,549.796
3232,539.141
3233.46,521.522
3234.91,506.768
3236.36,496.523
3237.81,497.753
3239.26,467.426
3240.72,447.758
3242.17,443.66
3243.62,443.25
3245.07,430.956
3246.52,417.841
3247.97,401.449
3249.43,413.333
3250.88,388.748
3252.33,378.092
3253.78,374.814
3255.23,369.896
3256.68,362.11
3258.14,376.453
3259.59,362.929
3261.04,356.372
3262.49,348.176
3263.94,347.766
3265.4,340.799
3266.85,330.146
3268.3,342.438
3269.75,341.619
3271.2,330.965
3272.65,334.244
3274.11,328.507
3275.56,326.867
3277.01,324.819
3278.46,323.179
3279.91,317.442
3281.37,317.852
3282.82,323.589
3284.27,326.458
3285.72,307.607
3287.17,315.393
3288.62,313.344
3290.08,310.476
3291.53,307.197
3292.98,300.231
3294.43,312.525
3295.88,304.738
3297.33,308.836
3298.79,308.426
3300.24,315.803
3301.69,308.426
3303.14,308.836
3304.59,303.099
3306.05,325.228
3307.5,308.836
3308.95,305.558
3310.4,306.788
3311.85,302.28
3313.3,302.28
3314.76,299.821
3316.21,305.968
3317.66,303.509
3319.11,296.952
3320.56,302.689
3322.02,298.182
3323.47,300.231
3324.92,302.689
3326.37,305.148
3327.82,305.148
3329.27,302.28
3330.73,299.821
3332.18,302.689
3333.63,306.378
3335.08,292.445
3336.53,290.396
3337.98,305.558
3339.44,294.903
3340.89,295.313
3342.34,298.182
3343.79,302.28
3345.24,298.182
3346.7,296.133
3348.15,293.264
3349.6,296.133
3351.05,297.362
3352.5,287.937
3353.95,299.001
3355.41,292.854
3356.86,282.199
3358.31,289.986
3359.76,301.05
3361.21,295.313
3362.67,298.182
3364.12,291.215
3365.57,294.084
3367.02,296.542
3368.47,289.576
3369.92,294.494
3371.38,299.001
3372.83,294.494
3374.28,281.38
3375.73,285.478
3377.18,293.674
3378.63,296.133
3380.09,299.411
3381.54,285.478
3382.99,285.068
3384.44,285.068
3385.89,282.609
3387.35,290.805
3388.8,283.839
3390.25,287.937
3391.7,283.429
3393.15,281.79
3394.6,286.298
3396.06,289.986
3397.51,291.625
3398.96,295.313
3400.41,286.298
3401.86,284.658
3403.32,288.756
3404.77,290.805
3406.22,298.182
3407.67,283.019
3409.12,287.117
3410.57,283.839
3412.03,280.97
3413.48,274.823
3414.93,291.215
3416.38,289.986
3417.83,284.658
3419.28,283.839
3420.74,297.362
3422.19,282.609
3423.64,292.445
3425.09,287.117
3426.54,281.38
3428,272.774
3429.45,286.707
3430.9,288.756
3432.35,291.215
3433.8,291.625
3435.25,278.512
3436.71,280.151
3438.16,280.151
3439.61,290.396
3441.06,288.347
3442.51,280.151
3443.97,276.872
3445.42,273.594
3446.87,287.117
3448.32,278.512
3449.77,276.053
3451.22,278.512
3452.68,291.625
3454.13,273.184
3455.58,274.414
3457.03,288.756
3458.48,281.38
3459.94,281.79
3461.39,275.643
3462.84,280.97
3464.29,283.429
3465.74,282.199
3467.19,282.199
3468.65,271.545
3470.1,285.478
3471.55,280.97
3473,273.184
3474.45,266.218
3475.9,282.609
3477.36,289.166
3478.81,291.215
3480.26,286.707
3481.71,274.004
3483.16,281.38
3484.62,268.267
3486.07,285.068
3487.52,276.872
3488.97,270.725
3490.42,279.331
3491.87,281.38
3493.33,285.478
3494.78,278.921
3496.23,278.921
3497.68,280.151
3499.13,279.331
3500.58,283.429
3502.04,289.576
3503.49,278.921
3504.94,271.955
3506.39,268.677
3507.84,282.199
3509.3,292.035
3510.75,293.264
3512.2,277.692
3513.65,278.512
3515.1,284.249
3516.55,280.151
3518.01,284.658
3519.46,281.79
3520.91,279.741
3522.36,278.921
3523.81,280.561
3525.27,280.97
3526.72,274.823
3528.17,283.019
3529.62,277.282
3531.07,282.199
3532.52,285.888
3533.98,283.429
3535.43,287.527
3536.88,282.609
3538.33,271.545
3539.78,280.561
3541.24,283.019
3542.69,275.643
3544.14,283.429
3545.59,285.478
3547.04,279.331
3548.49,276.053
3549.95,282.199
3551.4,276.462
3552.85,272.365
3554.3,273.594
3555.75,284.249
3557.2,287.527
3558.66,277.282
3560.11,274.823
3561.56,278.102
3563.01,278.512
3564.46,280.151
3565.92,280.151
3567.37,277.692
3568.82,278.921
3570.27,279.331
3571.72,272.774
3573.17,275.643
3574.63,281.38
3576.08,280.151
3577.53,286.707
3578.98,267.447
3580.43,275.233
3581.89,273.184
3583.34,274.004
3584.79,269.906
3586.24,282.609
3587.69,274.004
3589.14,281.79
3590.6,282.199
3592.05,274.823
3593.5,275.643
3594.95,273.184
3596.4,269.906
3597.85,270.315
3599.31,280.151
3600.76,281.38
3602.21,271.955
3603.66,280.97
3605.11,264.169
3606.57,280.151
3608.02,279.331
3609.47,276.872
3610.92,278.921
3612.37,287.117
3613.82,275.643
3615.28,277.282
3616.73,271.135
3618.18,287.117
3619.63,270.315
3621.08,282.199
3622.54,278.921
3623.99,281.79
3625.44,284.249
3626.89,280.561
3628.34,272.365
3629.79,274.414
3631.25,275.233
3632.7,278.512
3634.15,275.233
3635.6,273.594
3637.05,270.725
3638.5,278.102
3639.96,275.233
3641.41,279.331
3642.86,276.872
3644.31,271.955
3645.76,278.921
3647.22,275.233
3648.67,275.643
3650.12,270.725
3651.57,272.774
3653.02,267.857
3654.47,278.102
3655.93,289.576
3657.38,278.512
3658.83,281.79
3660.28,278.102
3661.73,278.102
3663.19,273.184
3664.64,281.79
3666.09,267.447
3667.54,276.872
3668.99,278.512
3670.44,285.478
3671.9,278.102
3673.35,274.823
3674.8,286.707
3676.25,282.609
3677.7,269.906
3679.16,278.102
3680.61,278.102
3682.06,285.068
3683.51,278.512
3684.96,280.97
3686.41,280.97
3687.87,277.692
3689.32,282.199
3690.77,271.545
3692.22,283.429
3693.67,275.643
3695.12,277.692
3696.58,280.151
3698.03,283.019
3699.48,283.429
3700.93,283.019
3702.38,277.692
3703.84,286.298
3705.29,280.561
3706.74,273.184
3708.19,280.97
3709.64,294.084
3711.09,286.707
3712.55,283.839
3714,276.872
3715.45,278.921
3716.9,281.38
3718.35,284.658
3719.8,287.527
3721.26,281.38
3722.71,275.233
3724.16,281.38
3725.61,285.888
3727.06,285.888
3728.52,280.97
3729.97,279.331
3731.42,285.888
3732.87,283.839
3734.32,281.38
3735.77,291.625
3737.23,289.986
3738.68,284.658
3740.13,274.414
3741.58,288.347
3743.03,277.282
3744.49,279.331
3745.94,292.854
3747.39,285.068
3748.84,287.937
3750.29,291.625
3751.74,282.609
3753.2,283.019
3754.65,283.019
3756.1,276.053
3757.55,284.658
3759,280.97
3760.46,287.117
3761.91,289.576
3763.36,291.215
3764.81,292.035
3766.26,293.674
3767.71,279.331
3769.17,284.249
3770.62,290.805
3772.07,276.872
3773.52,280.561
3774.97,286.298
3776.42,278.921
3777.88,285.068
3779.33,285.888
3780.78,292.854
3782.23,293.674
3783.68,294.494
3785.14,300.641
3786.59,286.707
3788.04,283.839
3789.49,279.741
3790.94,292.035
3792.39,292.035
3793.85,289.166
3795.3,294.084
3796.75,295.723
3798.2,292.854
3799.65,289.986
3801.1,291.215
3802.56,274.004
3804.01,295.313
3805.46,290.396
3806.91,289.166
3808.36,299.001
3809.82,295.723
3811.27,289.986
3812.72,288.347
3814.17,289.576
3815.62,300.641
3817.07,297.362
3818.53,296.952
3819.98,310.066
3821.43,287.117
3822.88,287.527
3824.33,287.937
3825.79,296.542
3827.24,313.344
3828.69,312.115
3830.14,290.396
3831.59,301.87
3833.04,291.215
3834.5,294.494
3835.95,296.133
3837.4,300.231
3838.85,296.542
3840.3,295.723
3841.76,314.983
3843.21,283.429
3844.66,294.084
3846.11,294.494
3847.56,287.527
3849.01,312.525
3850.47,287.117
3851.92,299.001
3853.37,285.478
3854.82,290.805
3856.27,302.28
3857.72,302.689
3859.18,307.197
3860.63,305.968
3862.08,291.215
3863.53,302.28
3864.98,306.788
3866.44,317.442
3867.89,300.641
3869.34,296.952
3870.79,304.738
3872.24,306.378
3873.69,301.87
3875.15,306.378
3876.6,295.313
3878.05,299.821
3879.5,310.066
3880.95,298.592
3882.41,303.919
3883.86,310.066
3885.31,303.509
3886.76,301.46
3888.21,307.197
3889.66,308.426
3891.12,305.558
3892.57,317.852
3894.02,316.622
3895.47,319.491
3896.92,314.164
3898.37,313.754
3899.83,311.295
3901.28,306.788
3902.73,315.803
3904.18,311.705
3905.63,320.311
3907.09,316.213
3908.54,317.442
3909.99,326.048
3911.44,321.13
3912.89,322.36
3914.34,321.54
3915.8,310.066
3917.25,318.262
3918.7,333.424
3920.15,328.507
3921.6,339.16
3923.06,328.916
3924.51,316.622
3925.96,334.653
3927.41,331.785
3928.86,327.277
3930.31,346.127
3931.77,336.703
3933.22,338.342
3934.67,339.57
3936.12,337.932
3937.57,339.979
3939.02,341.619
3940.48,337.932
3941.93,333.834
3943.38,336.703
3944.83,342.029
3946.28,340.389
3947.74,342.029
3949.19,340.389
3950.64,344.078
3952.09,336.703
3953.54,333.015
3954.99,347.356
3956.45,344.897
3957.9,340.799
3959.35,361.7
3960.8,346.536
3962.25,351.864
3963.71,346.127
3965.16,348.176
3966.61,353.503
3968.06,352.684
3969.51,355.553
3970.96,348.995
3972.42,354.733
3973.87,355.962
3975.32,360.06
3976.77,356.372
3978.22,360.06
3979.68,358.831
3981.13,357.192
3982.58,368.257
3984.03,362.11
3985.48,373.994
3986.93,358.421
3988.39,369.486
3989.84,381.781
3991.29,369.486
3992.74,367.847
3994.19,364.159
3995.64,374.404
3997.1,374.404
3998.55,377.683
4000,376.453
