1.77681,66207.3
3.2286,45264.5
4.68039,16412.3
6.13218,4608.2
7.58397,557.338
9.03575,120.551
10.4875,103.612
11.9393,106.032
13.3911,112.082
14.8429,110.872
16.2947,104.822
17.7465,98.7724
19.1983,83.0432
20.6501,70.9439
22.1018,63.6842
23.5536,56.4246
25.0054,50.375
26.4572,45.5352
27.909,41.9054
29.3608,39.4855
30.8126,35.8557
32.2644,34.6458
33.7161,32.2259
35.1679,31.016
36.6197,32.2259
38.0715,35.8557
39.5233,35.8557
40.9751,38.2756
42.4269,41.9054
43.8787,45.5352
45.3304,54.0048
46.7822,62.4743
48.234,87.883
49.6858,143.54
51.1376,237.915
52.5894,389.157
54.0412,619.045
55.493,932.418
56.9447,1311.13
58.3965,1712.83
59.8483,2109.69
61.3001,2383.13
62.7519,2592.45
64.2037,2782.41
65.6555,2875.58
67.1073,2967.53
68.559,3019.56
70.0108,3060.7
71.4626,3153.86
72.9144,3215.57
74.3662,3255.5
75.818,3294.21
77.2698,3359.55
78.7216,3491.43
80.1733,3589.44
81.6251,3680.18
83.0769,3726.16
84.5287,3749.15
85.9805,3773.35
87.4323,3705.59
88.8841,3597.91
90.3359,3495.06
91.7877,3365.6
93.2394,3232.51
94.6912,3061.91
96.143,2940.91
97.5948,2835.65
99.0466,2675.94
100.498,2620.28
101.95,2507.75
103.402,2423.06
104.854,2368.61
106.306,2341.99
107.757,2315.38
109.209,2299.65
110.661,2266.98
112.113,2218.58
113.564,2196.8
115.016,2178.65
116.468,2137.51
117.92,2101.22
119.372,2075.81
120.823,2039.51
122.275,1972.96
123.727,1917.31
125.179,1866.49
126.631,1847.13
128.082,1847.13
129.534,1775.74
130.986,1743.08
132.438,1727.35
133.889,1687.42
135.341,1658.38
136.793,1645.07
138.245,1613.61
139.697,1586.99
141.148,1550.7
142.6,1543.44
144.052,1507.14
145.504,1473.26
146.956,1455.11
148.407,1446.64
149.859,1447.85
151.311,1409.13
152.763,1377.67
154.215,1376.46
155.666,1376.46
157.118,1347.43
158.57,1392.19
160.022,1404.29
161.473,1395.82
162.925,1404.29
164.377,1461.16
165.829,1480.52
167.281,1493.83
168.732,1513.19
170.184,1487.78
171.636,1421.23
173.088,1370.42
174.54,1323.23
175.991,1263.94
177.443,1247
178.895,1233.69
180.347,1237.32
181.798,1219.17
183.25,1197.39
184.702,1187.71
186.154,1185.29
187.606,1174.41
189.057,1161.1
190.509,1149
191.961,1135.69
193.413,1170.78
194.865,1162.31
196.316,1147.79
197.768,1130.85
199.22,1149
200.672,1130.85
202.124,1133.27
203.575,1138.11
205.027,1111.49
206.479,1118.75
207.931,1124.8
209.382,1138.11
210.834,1132.06
212.286,1106.65
213.738,1101.81
215.19,1127.22
216.641,1126.01
218.093,1127.22
219.545,1122.38
220.997,1098.18
222.449,1092.13
223.9,1084.87
225.352,1098.18
226.804,1105.44
228.256,1087.29
229.707,1081.24
231.159,1093.34
232.611,1104.23
234.063,1107.86
235.515,1128.43
236.966,1090.92
238.418,1094.55
239.87,1109.07
241.322,1100.6
242.774,1080.03
244.225,1072.77
245.677,1078.82
247.129,1078.82
248.581,1073.98
250.033,1043.73
251.484,1066.72
252.936,1058.25
254.388,1043.73
255.84,1041.31
257.291,1076.4
258.743,1072.77
260.195,1038.89
261.647,1044.94
263.099,1047.36
264.55,1006.22
266.002,996.545
267.454,1015.9
268.906,1023.16
270.358,1015.9
271.809,1018.32
273.261,1023.16
274.713,1001.38
276.165,1008.64
277.616,1001.38
279.068,968.716
280.52,962.667
281.972,989.285
283.424,974.766
284.875,962.667
286.327,956.617
287.779,968.716
289.231,971.136
290.683,954.197
292.134,934.838
293.586,925.159
295.038,943.308
296.49,927.578
297.941,907.01
299.393,926.369
300.845,925.159
302.297,876.761
303.749,877.971
305.2,880.391
306.652,882.811
308.104,880.391
309.556,873.131
311.008,864.662
312.459,869.502
313.911,852.562
315.363,861.032
316.815,880.391
318.267,833.203
319.718,825.944
321.17,830.784
322.622,830.784
324.074,836.833
325.525,830.784
326.977,833.203
328.429,823.524
329.881,834.413
331.333,840.463
332.784,821.104
334.236,829.574
335.688,802.955
337.14,813.844
338.592,810.215
340.043,783.596
341.495,795.695
342.947,836.833
344.399,809.005
345.85,792.066
347.302,805.375
348.754,822.314
350.206,818.684
351.658,817.474
353.109,801.745
354.561,792.066
356.013,793.276
357.465,773.917
358.917,786.016
360.368,799.325
361.82,795.695
363.272,779.966
364.724,771.497
366.176,778.756
367.627,787.226
369.079,784.806
370.531,782.386
371.983,802.955
373.434,783.596
374.886,783.596
376.338,776.336
377.79,771.497
379.242,779.966
380.693,788.436
382.145,766.657
383.597,752.138
385.049,741.248
386.501,747.298
387.952,759.397
389.404,765.447
390.856,763.027
392.308,763.027
393.759,767.867
395.211,767.867
396.663,772.707
398.115,752.138
399.567,769.077
401.018,775.127
402.47,766.657
403.922,759.397
405.374,781.176
406.826,761.817
408.277,773.917
409.729,778.756
411.181,759.397
412.633,769.077
414.085,771.497
415.536,753.348
416.988,742.458
418.44,750.928
419.892,771.497
421.343,770.287
422.795,767.867
424.247,754.558
425.699,740.038
427.151,737.619
428.602,770.287
430.054,770.287
431.506,770.287
432.958,756.978
434.41,750.928
435.861,772.707
437.313,748.508
438.765,761.817
440.217,765.447
441.668,754.558
443.12,744.878
444.572,771.497
446.024,766.657
447.476,758.187
448.927,754.558
450.379,747.298
451.831,744.878
453.283,724.309
454.735,730.359
456.186,731.569
457.638,738.828
459.09,747.298
460.542,740.038
461.993,688.011
463.445,726.729
464.897,737.619
466.349,737.619
467.801,737.619
469.252,723.099
470.704,748.508
472.156,743.668
473.608,743.668
475.06,742.458
476.511,738.828
477.963,731.569
479.415,735.199
480.867,748.508
482.319,733.989
483.77,720.679
485.222,735.199
486.674,756.978
488.126,727.939
489.577,735.199
491.029,748.508
492.481,746.088
493.933,727.939
495.385,714.63
496.836,735.199
498.288,737.619
499.74,735.199
501.192,733.989
502.644,714.63
504.095,718.26
505.547,715.84
506.999,724.309
508.451,731.569
509.902,735.199
511.354,726.729
512.806,711
514.258,714.63
515.71,740.038
517.161,750.928
518.613,733.989
520.065,701.32
521.517,707.37
522.969,712.21
524.42,712.21
525.872,711
527.324,712.21
528.776,725.519
530.228,726.729
531.679,740.038
533.131,738.828
534.583,725.519
536.035,725.519
537.486,703.74
538.938,679.542
540.39,700.111
541.842,715.84
543.294,713.42
544.745,719.469
546.197,724.309
547.649,721.889
549.101,717.05
550.553,717.05
552.004,718.26
553.456,724.309
554.908,721.889
556.36,721.889
557.811,721.889
559.263,733.989
560.715,727.939
562.167,706.16
563.619,723.099
565.07,717.05
566.522,713.42
567.974,701.32
569.426,697.691
570.878,720.679
572.329,692.851
573.781,726.729
575.233,736.409
576.685,726.729
578.137,715.84
579.588,715.84
581.04,708.58
582.492,704.95
583.944,717.05
585.395,719.469
586.847,708.58
588.299,700.111
589.751,707.37
591.203,733.989
592.654,711
594.106,696.481
595.558,709.79
597.01,704.95
598.462,706.16
599.913,703.74
601.365,726.729
602.817,730.359
604.269,719.469
605.72,729.149
607.172,727.939
608.624,697.691
610.076,711
611.528,715.84
612.979,713.42
614.431,711
615.883,721.889
617.335,721.889
618.787,729.149
620.238,730.359
621.69,714.63
623.142,711
624.594,732.779
626.046,711
627.497,712.21
628.949,723.099
630.401,720.679
631.853,702.53
633.304,715.84
634.756,733.989
636.208,717.05
637.66,736.409
639.112,748.508
640.563,736.409
642.015,740.038
643.467,750.928
644.919,730.359
646.371,725.519
647.822,729.149
649.274,737.619
650.726,742.458
652.178,776.336
653.629,754.558
655.081,760.607
656.533,754.558
657.985,744.878
659.437,743.668
660.888,765.447
662.34,750.928
663.792,750.928
665.244,746.088
666.696,741.248
668.147,749.718
669.599,752.138
671.051,746.088
672.503,746.088
673.954,755.768
675.406,755.768
676.858,754.558
678.31,758.187
679.762,753.348
681.213,767.867
682.665,766.657
684.117,765.447
685.569,756.978
687.021,744.878
688.472,760.607
689.924,744.878
691.376,750.928
692.828,738.828
694.28,738.828
695.731,754.558
697.183,746.088
698.635,737.619
700.087,753.348
701.538,763.027
702.99,759.397
704.442,765.447
705.894,775.127
707.346,760.607
708.797,781.176
710.249,761.817
711.701,779.966
713.153,792.066
714.605,786.016
716.056,778.756
717.508,760.607
718.96,771.497
720.412,756.978
721.863,766.657
723.315,781.176
724.767,784.806
726.219,777.546
727.671,761.817
729.122,769.077
730.574,775.127
732.026,767.867
733.478,758.187
734.93,763.027
736.381,767.867
737.833,775.127
739.285,782.386
740.737,777.546
742.189,782.386
743.64,793.276
745.092,782.386
746.544,749.718
747.996,764.237
749.447,794.486
750.899,786.016
752.351,765.447
753.803,759.397
755.255,761.817
756.706,766.657
758.158,753.348
759.61,764.237
761.062,776.336
762.514,773.917
763.965,775.127
765.417,794.486
766.869,781.176
768.321,754.558
769.772,775.127
771.224,773.917
772.676,769.077
774.128,804.165
775.58,770.287
777.031,782.386
778.483,767.867
779.935,787.226
781.387,799.325
782.839,792.066
784.29,810.215
785.742,811.425
787.194,778.756
788.646,786.016
790.098,795.695
791.549,783.596
793.001,789.646
794.453,788.436
795.905,798.115
797.356,789.646
798.808,788.436
800.26,787.226
801.712,792.066
803.164,806.585
804.615,823.524
806.067,787.226
807.519,800.535
808.971,806.585
810.423,804.165
811.874,804.165
813.326,813.844
814.778,783.596
816.23,811.425
817.681,801.745
819.133,819.894
820.585,842.883
822.037,830.784
823.489,816.264
824.94,813.844
826.392,815.054
827.844,828.364
829.296,835.623
830.748,816.264
832.199,800.535
833.651,801.745
835.103,848.933
836.555,834.413
838.007,840.463
839.458,859.822
840.91,857.402
842.362,835.623
843.814,828.364
845.265,823.524
846.717,827.154
848.169,840.463
849.621,880.391
851.073,867.082
852.524,853.772
853.976,873.131
855.428,868.292
856.88,877.971
858.332,877.971
859.783,876.761
861.235,861.032
862.687,879.181
864.139,886.441
865.59,882.811
867.042,890.07
868.494,848.933
869.946,842.883
871.398,845.303
872.849,864.662
874.301,867.082
875.753,862.242
877.205,861.032
878.657,867.082
880.108,848.933
881.56,853.772
883.012,852.562
884.464,854.982
885.915,850.143
887.367,842.883
888.819,854.982
890.271,847.723
891.723,854.982
893.174,877.971
894.626,888.861
896.078,896.12
897.53,890.07
898.982,875.551
900.433,868.292
901.885,858.612
903.337,880.391
904.789,893.7
906.241,894.91
907.692,898.54
909.144,890.07
910.596,896.12
912.048,886.441
913.499,907.01
914.951,899.75
916.403,891.28
917.855,875.551
919.307,856.192
920.758,880.391
922.21,913.059
923.662,902.17
925.114,907.01
926.566,904.59
928.017,904.59
929.469,926.369
930.921,916.689
932.373,908.219
933.824,867.082
935.276,908.219
936.728,927.578
938.18,916.689
939.632,923.949
941.083,922.739
942.535,905.8
943.987,913.059
945.439,933.628
946.891,917.899
948.342,905.8
949.794,910.639
951.246,913.059
952.698,921.529
954.15,943.308
955.601,913.059
957.053,899.75
958.505,910.639
959.957,916.689
961.408,905.8
962.86,900.96
964.312,940.888
965.764,943.308
967.216,931.208
968.667,911.849
970.119,932.418
971.571,925.159
973.023,925.159
974.475,936.048
975.926,919.109
977.378,928.788
978.83,926.369
980.282,933.628
981.733,933.628
983.185,945.728
984.637,942.098
986.089,933.628
987.541,932.418
988.992,955.407
990.444,944.518
991.896,967.506
993.348,943.308
994.8,952.987
996.251,966.296
997.703,948.147
999.155,979.606
1000.61,954.197
1002.06,963.877
1003.51,971.136
1004.96,966.296
1006.41,956.617
1007.87,967.506
1009.32,983.236
1010.77,986.865
1012.22,996.545
1013.67,995.335
1015.12,983.236
1016.58,994.125
1018.03,982.026
1019.48,984.445
1020.93,1012.27
1022.38,1028
1023.84,1040.1
1025.29,1048.57
1026.74,1036.47
1028.19,1040.1
1029.64,1057.04
1031.09,1060.67
1032.55,1043.73
1034,1058.25
1035.45,1072.77
1036.9,1081.24
1038.35,1101.81
1039.8,1101.81
1041.26,1107.86
1042.71,1134.48
1044.16,1144.16
1045.61,1104.23
1047.06,1110.28
1048.52,1130.85
1049.97,1145.37
1051.42,1155.05
1052.87,1170.78
1054.32,1163.52
1055.77,1169.57
1057.23,1197.39
1058.68,1210.7
1060.13,1231.27
1061.58,1216.75
1063.03,1227.64
1064.49,1251.84
1065.94,1262.73
1067.39,1237.32
1068.84,1231.27
1070.29,1283.3
1071.74,1292.98
1073.2,1296.61
1074.65,1313.55
1076.1,1328.07
1077.55,1340.17
1079,1325.65
1080.46,1318.39
1081.91,1329.28
1083.36,1320.81
1084.81,1378.88
1086.26,1384.93
1087.71,1397.03
1089.17,1378.88
1090.62,1326.86
1092.07,1355.9
1093.52,1387.35
1094.97,1357.11
1096.42,1343.8
1097.88,1366.79
1099.33,1331.7
1100.78,1328.07
1102.23,1336.54
1103.68,1336.54
1105.14,1314.76
1106.59,1312.34
1108.04,1319.6
1109.49,1307.5
1110.94,1311.13
1112.39,1277.25
1113.85,1289.35
1115.3,1284.51
1116.75,1282.09
1118.2,1280.88
1119.65,1265.15
1121.11,1260.31
1122.56,1248.21
1124.01,1260.31
1125.46,1261.52
1126.91,1240.95
1128.36,1244.58
1129.82,1240.95
1131.27,1224.01
1132.72,1227.64
1134.17,1203.44
1135.62,1222.8
1137.07,1202.23
1138.53,1194.97
1139.98,1220.38
1141.43,1220.38
1142.88,1190.13
1144.33,1196.18
1145.79,1215.54
1147.24,1234.9
1148.69,1205.86
1150.14,1191.34
1151.59,1210.7
1153.04,1178.04
1154.5,1180.46
1155.95,1193.76
1157.4,1207.07
1158.85,1205.86
1160.3,1201.02
1161.76,1201.02
1163.21,1191.34
1164.66,1190.13
1166.11,1175.62
1167.56,1196.18
1169.01,1202.23
1170.47,1213.12
1171.92,1220.38
1173.37,1208.28
1174.82,1238.53
1176.27,1215.54
1177.72,1215.54
1179.18,1259.1
1180.63,1221.59
1182.08,1219.17
1183.53,1239.74
1184.98,1234.9
1186.44,1231.27
1187.89,1224.01
1189.34,1227.64
1190.79,1231.27
1192.24,1211.91
1193.69,1245.79
1195.15,1261.52
1196.6,1251.84
1198.05,1234.9
1199.5,1242.16
1200.95,1268.78
1202.41,1269.99
1203.86,1261.52
1205.31,1257.89
1206.76,1297.82
1208.21,1289.35
1209.66,1271.2
1211.12,1254.26
1212.57,1272.41
1214.02,1271.2
1215.47,1247
1216.92,1269.99
1218.37,1283.3
1219.83,1285.72
1221.28,1291.77
1222.73,1291.77
1224.18,1285.72
1225.63,1303.87
1227.09,1309.92
1228.54,1289.35
1229.99,1272.41
1231.44,1295.4
1232.89,1273.62
1234.34,1314.76
1235.8,1309.92
1237.25,1301.45
1238.7,1278.46
1240.15,1308.71
1241.6,1345.01
1243.06,1332.91
1244.51,1330.49
1245.96,1341.38
1247.41,1390.98
1248.86,1368
1250.31,1342.59
1251.77,1376.46
1253.22,1394.61
1254.67,1395.82
1256.12,1387.35
1257.57,1392.19
1259.02,1417.6
1260.48,1433.33
1261.93,1476.89
1263.38,1452.69
1264.83,1479.31
1266.28,1482.94
1267.74,1513.19
1269.19,1526.5
1270.64,1533.76
1272.09,1572.47
1273.54,1620.87
1274.99,1625.71
1276.45,1619.66
1277.9,1602.72
1279.35,1649.91
1280.8,1705.57
1282.25,1714.04
1283.71,1730.98
1285.16,1734.61
1286.61,1749.13
1288.06,1802.36
1289.51,1839.87
1290.96,1843.5
1292.42,1900.37
1293.87,1976.59
1295.32,1994.74
1296.77,2069.76
1298.22,2135.09
1299.67,2178.65
1301.13,2211.32
1302.58,2281.5
1304.03,2369.82
1305.48,2418.22
1306.93,2490.82
1308.39,2596.08
1309.84,2692.87
1311.29,2789.67
1312.74,2913.08
1314.19,3076.42
1315.64,3213.15
1317.1,3335.35
1318.55,3458.76
1320,3579.76
1321.45,3731
1322.9,3933.06
1324.36,4029.85
1325.81,4188.36
1327.26,4321.45
1328.71,4459.38
1330.16,4567.07
1331.61,4648.13
1333.07,4715.89
1334.52,4810.26
1335.97,4862.29
1337.42,4784.85
1338.87,4789.69
1340.33,4707.42
1341.78,4621.51
1343.23,4546.5
1344.68,4414.61
1346.13,4319.03
1347.58,4190.78
1349.04,3999.61
1350.49,3822.95
1351.94,3663.24
1353.39,3469.65
1354.84,3319.62
1356.29,3243.4
1357.75,3096.99
1359.2,2967.53
1360.65,2880.41
1362.1,2729.17
1363.55,2603.34
1365.01,2518.64
1366.46,2440
1367.91,2366.19
1369.36,2312.96
1370.81,2260.93
1372.26,2208.9
1373.72,2162.92
1375.17,2123
1376.62,2031.04
1378.07,2011.68
1379.52,1969.33
1380.98,1948.76
1382.43,1939.08
1383.88,1902.79
1385.33,1853.18
1386.78,1853.18
1388.23,1858.02
1389.69,1810.83
1391.14,1798.73
1392.59,1849.55
1394.04,1856.81
1395.49,1787.84
1396.94,1785.42
1398.4,1756.38
1399.85,1758.8
1401.3,1768.48
1402.75,1747.92
1404.2,1740.66
1405.66,1735.82
1407.11,1761.22
1408.56,1785.42
1410.01,1766.06
1411.46,1774.53
1412.91,1729.77
1414.37,1760.01
1415.82,1763.64
1417.27,1750.33
1418.72,1738.24
1420.17,1741.87
1421.63,1761.22
1423.08,1749.13
1424.53,1773.32
1425.98,1743.08
1427.43,1756.38
1428.88,1752.75
1430.34,1802.36
1431.79,1813.25
1433.24,1807.2
1434.69,1820.51
1436.14,1836.24
1437.59,1862.86
1439.05,1853.18
1440.5,1854.39
1441.95,1889.48
1443.4,1911.26
1444.85,1910.05
1446.31,1866.49
1447.76,1901.58
1449.21,1923.36
1450.66,1948.76
1452.11,1941.5
1453.56,1937.88
1455.02,1958.44
1456.47,1992.32
1457.92,2016.52
1459.37,2045.56
1460.82,2035.88
1462.28,2046.77
1463.73,2137.51
1465.18,2158.08
1466.63,2170.18
1468.08,2161.71
1469.53,2175.02
1470.99,2189.54
1472.44,2210.11
1473.89,2266.98
1475.34,2315.38
1476.79,2326.26
1478.24,2364.98
1479.7,2366.19
1481.15,2458.15
1482.6,2453.31
1484.05,2507.75
1485.5,2541.63
1486.96,2552.52
1488.41,2597.29
1489.86,2659
1491.31,2685.62
1492.76,2744.9
1494.21,2804.19
1495.67,2865.9
1497.12,2903.4
1498.57,2977.21
1500.02,3021.98
1501.47,3127.24
1502.93,3149.02
1504.38,3249.45
1505.83,3352.29
1507.28,3485.38
1508.73,3585.81
1510.18,3699.54
1511.64,3813.28
1513.09,3947.58
1514.54,4118.18
1515.99,4274.26
1517.44,4432.76
1518.89,4551.34
1520.35,4744.93
1521.8,4936.1
1523.25,5224.06
1524.7,5480.57
1526.15,5871.38
1527.61,6149.66
1529.06,6587.66
1530.51,7046.22
1531.96,7564.08
1533.41,8163
1534.86,8735.29
1536.32,9427.38
1537.77,10294.9
1539.22,11245.9
1540.67,12327.6
1542.12,13441.9
1543.58,14685.8
1545.03,16021.5
1546.48,17480.7
1547.93,19083.9
1549.38,20772.9
1550.83,22555.2
1552.29,24476.6
1553.74,26394.3
1555.19,28220.1
1556.64,30082.2
1558.09,32025.4
1559.54,33736.2
1561,35487
1562.45,36917.1
1563.9,37961.3
1565.35,38569.9
1566.8,38907.5
1568.26,38592.9
1569.71,37948
1571.16,37091.4
1572.61,35750.7
1574.06,34013.3
1575.51,31939.4
1576.97,29842.6
1578.42,27713.1
1579.87,25620
1581.32,23546.1
1582.77,21529.2
1584.23,19700.9
1585.68,17805
1587.13,16183.7
1588.58,14855.2
1590.03,13543.6
1591.48,12368.7
1592.94,11469.8
1594.39,10708.7
1595.84,9919.82
1597.29,9296.71
1598.74,8689.32
1600.2,8160.58
1601.65,7787.92
1603.1,7411.63
1604.55,7011.14
1606,6706.23
1607.45,6386.81
1608.91,6061.34
1610.36,5757.64
1611.81,5424.91
1613.26,5283.35
1614.71,5014.74
1616.16,4799.37
1617.62,4540.45
1619.07,4335.97
1620.52,4182.31
1621.97,3986.3
1623.42,3797.55
1624.88,3689.86
1626.33,3566.45
1627.78,3422.47
1629.23,3254.29
1630.68,3147.81
1632.13,3090.94
1633.59,3023.19
1635.04,2920.34
1636.49,2845.33
1637.94,2781.2
1639.39,2721.91
1640.85,2671.1
1642.3,2661.42
1643.75,2586.4
1645.2,2507.75
1646.65,2476.3
1648.1,2430.32
1649.56,2354.09
1651.01,2316.58
1652.46,2292.39
1653.91,2240.36
1655.36,2200.43
1656.81,2183.49
1658.27,2168.97
1659.72,2155.66
1661.17,2118.16
1662.62,2055.24
1664.07,2041.93
1665.53,2003.21
1666.98,2004.42
1668.43,2003.21
1669.88,1941.5
1671.33,1913.68
1672.78,1895.53
1674.24,1871.33
1675.69,1860.44
1677.14,1825.35
1678.59,1821.72
1680.04,1816.88
1681.5,1807.2
1682.95,1774.53
1684.4,1758.8
1685.85,1728.56
1687.3,1743.08
1688.75,1704.36
1690.21,1701.94
1691.66,1674.11
1693.11,1674.11
1694.56,1652.33
1696.01,1637.81
1697.46,1642.65
1698.92,1635.39
1700.37,1639.02
1701.82,1639.02
1703.27,1620.87
1704.72,1609.98
1706.18,1609.98
1707.63,1616.03
1709.08,1601.51
1710.53,1579.73
1711.98,1589.41
1713.43,1597.88
1714.89,1586.99
1716.34,1555.54
1717.79,1537.39
1719.24,1522.87
1720.69,1545.86
1722.15,1543.44
1723.6,1562.79
1725.05,1536.18
1726.5,1527.71
1727.95,1526.5
1729.4,1524.08
1730.86,1554.33
1732.31,1545.86
1733.76,1531.34
1735.21,1524.08
1736.66,1522.87
1738.11,1513.19
1739.57,1519.24
1741.02,1495.04
1742.47,1499.88
1743.92,1508.35
1745.37,1493.83
1746.83,1497.46
1748.28,1486.57
1749.73,1469.63
1751.18,1503.51
1752.63,1462.37
1754.08,1418.81
1755.54,1447.85
1756.99,1473.26
1758.44,1455.11
1759.89,1410.34
1761.34,1429.7
1762.8,1447.85
1764.25,1435.75
1765.7,1423.65
1767.15,1428.49
1768.6,1405.5
1770.05,1377.67
1771.51,1388.56
1772.96,1395.82
1774.41,1380.09
1775.86,1394.61
1777.31,1381.3
1778.76,1359.53
1780.22,1375.25
1781.67,1355.9
1783.12,1342.59
1784.57,1331.7
1786.02,1306.29
1787.48,1361.95
1788.93,1296.61
1790.38,1334.12
1791.83,1322.02
1793.28,1338.96
1794.73,1312.34
1796.19,1308.71
1797.64,1318.39
1799.09,1306.29
1800.54,1296.61
1801.99,1318.39
1803.45,1314.76
1804.9,1277.25
1806.35,1274.83
1807.8,1283.3
1809.25,1276.04
1810.7,1301.45
1812.16,1297.82
1813.61,1271.2
1815.06,1269.99
1816.51,1265.15
1817.96,1254.26
1819.41,1268.78
1820.87,1291.77
1822.32,1295.4
1823.77,1301.45
1825.22,1318.39
1826.67,1313.55
1828.13,1309.92
1829.58,1348.64
1831.03,1282.09
1832.48,1274.83
1833.93,1276.04
1835.38,1289.35
1836.84,1278.46
1838.29,1314.76
1839.74,1320.81
1841.19,1326.86
1842.64,1337.75
1844.1,1318.39
1845.55,1324.44
1847,1340.17
1848.45,1359.53
1849.9,1395.82
1851.35,1401.87
1852.81,1382.51
1854.26,1368
1855.71,1372.83
1857.16,1378.88
1858.61,1375.25
1860.07,1371.63
1861.52,1389.77
1862.97,1393.4
1864.42,1384.93
1865.87,1388.56
1867.32,1392.19
1868.78,1394.61
1870.23,1386.14
1871.68,1407.92
1873.13,1371.63
1874.58,1381.3
1876.03,1365.58
1877.49,1346.22
1878.94,1340.17
1880.39,1319.6
1881.84,1320.81
1883.29,1341.38
1884.75,1364.37
1886.2,1296.61
1887.65,1322.02
1889.1,1337.75
1890.55,1312.34
1892,1302.66
1893.46,1302.66
1894.91,1290.56
1896.36,1272.41
1897.81,1247
1899.26,1225.22
1900.72,1255.47
1902.17,1266.36
1903.62,1250.63
1905.07,1249.42
1906.52,1236.11
1907.97,1239.74
1909.43,1225.22
1910.88,1236.11
1912.33,1221.59
1913.78,1217.96
1915.23,1215.54
1916.68,1202.23
1918.14,1178.04
1919.59,1190.13
1921.04,1205.86
1922.49,1208.28
1923.94,1232.48
1925.4,1216.75
1926.85,1191.34
1928.3,1153.84
1929.75,1203.44
1931.2,1201.02
1932.65,1185.29
1934.11,1210.7
1935.56,1214.33
1937.01,1198.6
1938.46,1176.83
1939.91,1157.47
1941.37,1173.2
1942.82,1202.23
1944.27,1219.17
1945.72,1221.59
1947.17,1208.28
1948.62,1215.54
1950.08,1214.33
1951.53,1191.34
1952.98,1226.43
1954.43,1219.17
1955.88,1210.7
1957.33,1214.33
1958.79,1210.7
1960.24,1210.7
1961.69,1211.91
1963.14,1225.22
1964.59,1225.22
1966.05,1205.86
1967.5,1213.12
1968.95,1240.95
1970.4,1228.85
1971.85,1210.7
1973.3,1205.86
1974.76,1201.02
1976.21,1204.65
1977.66,1237.32
1979.11,1261.52
1980.56,1255.47
1982.02,1240.95
1983.47,1240.95
1984.92,1250.63
1986.37,1242.16
1987.82,1271.2
1989.27,1263.94
1990.73,1256.68
1992.18,1268.78
1993.63,1266.36
1995.08,1250.63
1996.53,1285.72
1997.98,1271.2
1999.44,1278.46
2000.89,1273.62
2002.34,1243.37
2003.79,1296.61
2005.24,1280.88
2006.7,1253.05
2008.15,1248.21
2009.6,1239.74
2011.05,1220.38
2012.5,1239.74
2013.95,1238.53
2015.41,1180.46
2016.86,1297.82
2018.31,1224.01
2019.76,1199.81
2021.21,1239.74
2022.67,1225.22
2024.12,1214.33
2025.57,1211.91
2027.02,1234.9
2028.47,1222.8
2029.92,1296.61
2031.38,1226.43
2032.83,1205.86
2034.28,1178.04
2035.73,1180.46
2037.18,1201.02
2038.63,1158.68
2040.09,1173.2
2041.54,1182.88
2042.99,1165.94
2044.44,1158.68
2045.89,1167.15
2047.35,1151.42
2048.8,1165.94
2050.25,1139.32
2051.7,1130.85
2053.15,1129.64
2054.6,1126.01
2056.06,1127.22
2057.51,1136.9
2058.96,1134.48
2060.41,1101.81
2061.86,1105.44
2063.32,1107.86
2064.77,1144.16
2066.22,1123.59
2067.67,1112.7
2069.12,1121.17
2070.57,1115.12
2072.03,1104.23
2073.48,1096.97
2074.93,1081.24
2076.38,1081.24
2077.83,1083.66
2079.28,1088.5
2080.74,1081.24
2082.19,1089.71
2083.64,1084.87
2085.09,1076.4
2086.54,1086.08
2088,1095.76
2089.45,1088.5
2090.9,1084.87
2092.35,1083.66
2093.8,1077.61
2095.25,1066.72
2096.71,1071.56
2098.16,1071.56
2099.61,1072.77
2101.06,1059.46
2102.51,1063.09
2103.97,1093.34
2105.42,1112.7
2106.87,1090.92
2108.32,1086.08
2109.77,1077.61
2111.22,1066.72
2112.68,1090.92
2114.13,1112.7
2115.58,1083.66
2117.03,1082.45
2118.48,1122.38
2119.94,1123.59
2121.39,1106.65
2122.84,1094.55
2124.29,1100.6
2125.74,1116.33
2127.19,1121.17
2128.65,1081.24
2130.1,1096.97
2131.55,1132.06
2133,1109.07
2134.45,1098.18
2135.9,1116.33
2137.36,1099.39
2138.81,1089.71
2140.26,1109.07
2141.71,1134.48
2143.16,1107.86
2144.62,1122.38
2146.07,1122.38
2147.52,1117.54
2148.97,1132.06
2150.42,1127.22
2151.87,1139.32
2153.33,1155.05
2154.78,1136.9
2156.23,1132.06
2157.68,1136.9
2159.13,1146.58
2160.58,1150.21
2162.04,1152.63
2163.49,1135.69
2164.94,1128.43
2166.39,1140.53
2167.84,1159.89
2169.3,1150.21
2170.75,1136.9
2172.2,1133.27
2173.65,1165.94
2175.1,1159.89
2176.55,1147.79
2178.01,1164.73
2179.46,1168.36
2180.91,1147.79
2182.36,1149
2183.81,1157.47
2185.27,1155.05
2186.72,1198.6
2188.17,1209.49
2189.62,1208.28
2191.07,1197.39
2192.52,1163.52
2193.98,1182.88
2195.43,1151.42
2196.88,1167.15
2198.33,1210.7
2199.78,1203.44
2201.24,1238.53
2202.69,1196.18
2204.14,1190.13
2205.59,1198.6
2207.04,1215.54
2208.49,1174.41
2209.95,1185.29
2211.4,1213.12
2212.85,1175.62
2214.3,1197.39
2215.75,1145.37
2217.2,1174.41
2218.66,1194.97
2220.11,1180.46
2221.56,1207.07
2223.01,1208.28
2224.46,1199.81
2225.92,1162.31
2227.37,1162.31
2228.82,1168.36
2230.27,1213.12
2231.72,1216.75
2233.17,1191.34
2234.63,1224.01
2236.08,1214.33
2237.53,1187.71
2238.98,1214.33
2240.43,1219.17
2241.89,1232.48
2243.34,1226.43
2244.79,1225.22
2246.24,1244.58
2247.69,1249.42
2249.14,1239.74
2250.6,1233.69
2252.05,1227.64
2253.5,1236.11
2254.95,1231.27
2256.4,1219.17
2257.85,1250.63
2259.31,1272.41
2260.76,1243.37
2262.21,1249.42
2263.66,1244.58
2265.11,1249.42
2266.57,1267.57
2268.02,1261.52
2269.47,1253.05
2270.92,1250.63
2272.37,1238.53
2273.82,1277.25
2275.28,1260.31
2276.73,1250.63
2278.18,1256.68
2279.63,1257.89
2281.08,1278.46
2282.54,1291.77
2283.99,1280.88
2285.44,1322.02
2286.89,1312.34
2288.34,1307.5
2289.79,1317.18
2291.25,1324.44
2292.7,1312.34
2294.15,1297.82
2295.6,1319.6
2297.05,1307.5
2298.5,1329.28
2299.96,1343.8
2301.41,1360.74
2302.86,1326.86
2304.31,1302.66
2305.76,1382.51
2307.22,1388.56
2308.67,1353.48
2310.12,1345.01
2311.57,1340.17
2313.02,1389.77
2314.47,1415.18
2315.93,1374.04
2317.38,1375.25
2318.83,1395.82
2320.28,1348.64
2321.73,1359.53
2323.19,1390.98
2324.64,1415.18
2326.09,1421.23
2327.54,1427.28
2328.99,1412.76
2330.44,1418.81
2331.9,1429.7
2333.35,1428.49
2334.8,1445.43
2336.25,1450.27
2337.7,1455.11
2339.16,1450.27
2340.61,1450.27
2342.06,1479.31
2343.51,1491.41
2344.96,1488.99
2346.41,1508.35
2347.87,1484.15
2349.32,1496.25
2350.77,1542.23
2352.22,1550.7
2353.67,1555.54
2355.12,1559.17
2356.58,1562.79
2358.03,1549.49
2359.48,1584.57
2360.93,1547.07
2362.38,1573.68
2363.84,1595.46
2365.29,1600.3
2366.74,1597.88
2368.19,1623.29
2369.64,1660.8
2371.09,1691.05
2372.55,1722.51
2374,1724.93
2375.45,1763.64
2376.9,1763.64
2378.35,1779.37
2379.8,1826.56
2381.26,1822.93
2382.71,1838.66
2384.16,1842.29
2385.61,1871.33
2387.06,1900.37
2388.52,1891.9
2389.97,1965.7
2391.42,2002
2392.87,2040.72
2394.32,2070.97
2395.77,2136.3
2397.23,2106.06
2398.68,2121.79
2400.13,2193.17
2401.58,2248.83
2403.03,2302.07
2404.49,2312.96
2405.94,2354.09
2407.39,2417.01
2408.84,2444.84
2410.29,2481.14
2411.74,2508.96
2413.2,2542.84
2414.65,2565.83
2416.1,2649.32
2417.55,2701.34
2419,2698.92
2420.46,2703.76
2421.91,2717.07
2423.36,2678.36
2424.81,2703.76
2426.26,2787.25
2427.71,2772.73
2429.17,2781.2
2430.62,2847.75
2432.07,2811.45
2433.52,2818.71
2434.97,2740.06
2436.42,2765.47
2437.88,2798.14
2439.33,2765.47
2440.78,2755.79
2442.23,2719.49
2443.68,2690.45
2445.14,2715.86
2446.59,2678.36
2448.04,2692.87
2449.49,2690.45
2450.94,2659
2452.39,2613.02
2453.85,2604.55
2455.3,2581.56
2456.75,2568.25
2458.2,2548.89
2459.65,2535.58
2461.1,2515.01
2462.56,2488.4
2464.01,2504.12
2465.46,2477.51
2466.91,2423.06
2468.36,2443.63
2469.82,2391.6
2471.27,2467.83
2472.72,2455.73
2474.17,2404.91
2475.62,2383.13
2477.07,2356.51
2478.53,2346.83
2479.98,2325.05
2481.43,2334.73
2482.88,2385.55
2484.33,2387.97
2485.79,2391.6
2487.24,2343.2
2488.69,2343.2
2490.14,2335.94
2491.59,2366.19
2493.04,2361.35
2494.5,2358.93
2495.95,2334.73
2497.4,2368.61
2498.85,2343.2
2500.3,2385.55
2501.76,2403.7
2503.21,2392.81
2504.66,2430.32
2506.11,2404.91
2507.56,2383.13
2509.01,2367.4
2510.47,2454.52
2511.92,2431.53
2513.37,2432.74
2514.82,2483.56
2516.27,2495.66
2517.72,2515.01
2519.18,2505.33
2520.63,2482.35
2522.08,2517.43
2523.53,2552.52
2524.98,2573.09
2526.44,2542.84
2527.89,2577.93
2529.34,2623.91
2530.79,2671.1
2532.24,2686.83
2533.69,2695.29
2535.15,2734.01
2536.6,2723.12
2538.05,2839.28
2539.5,2806.61
2540.95,2836.86
2542.41,2871.95
2543.86,2915.5
2545.31,2950.59
2546.76,2980.84
2548.21,2961.48
2549.66,3018.35
2551.12,3071.58
2552.57,3164.75
2554.02,3216.78
2555.47,3222.83
2556.92,3254.29
2558.37,3300.26
2559.83,3370.44
2561.28,3404.32
2562.73,3441.83
2564.18,3573.71
2565.63,3655.98
2567.09,3682.6
2568.54,3741.89
2569.99,3807.23
2571.44,3891.92
2572.89,3942.74
2574.34,4029.85
2575.8,4045.58
2577.25,4251.27
2578.7,4386.79
2580.15,4456.96
2581.6,4533.19
2583.06,4623.93
2584.51,4726.78
2585.96,4878.02
2587.41,5063.14
2588.86,5186.55
2590.31,5305.13
2591.77,5417.65
2593.22,5626.97
2594.67,5778.21
2596.12,5957.28
2597.57,6194.43
2599.02,6380.76
2600.48,6573.14
2601.93,6790.93
2603.38,7009.93
2604.83,7313.62
2606.28,7548.35
2607.74,7876.24
2609.19,8092.82
2610.64,8425.55
2612.09,8667.54
2613.54,9049.88
2614.99,9427.38
2616.45,9810.93
2617.9,10222.3
2619.35,10640.9
2620.8,11035.4
2622.25,11509.7
2623.71,11969.5
2625.16,12503
2626.61,12983.4
2628.06,13457.7
2629.51,14123.1
2630.96,14601.1
2632.42,15271.4
2633.87,15802.5
2635.32,16394.2
2636.77,16968.9
2638.22,17619.9
2639.68,18171.6
2641.13,18630.2
2642.58,19171
2644.03,19780.8
2645.48,20289
2646.93,20897.6
2648.39,21196.4
2649.84,21765.1
2651.29,22155.9
2652.74,22458.4
2654.19,22725.8
2655.64,23128.7
2657.1,23260.6
2658.55,23419.1
2660,23566.7
2661.45,23525.6
2662.9,23364.6
2664.36,23237.6
2665.81,23100.9
2667.26,22787.5
2668.71,22630.2
2670.16,22387
2671.61,22063.9
2673.07,21531.6
2674.52,21067
2675.97,20388.2
2677.42,19939.3
2678.87,19369.4
2680.32,18877
2681.78,18229.7
2683.23,17581.1
2684.68,16954.4
2686.13,16377.3
2687.58,15711.8
2689.04,15216.9
2690.49,14563.6
2691.94,14013
2693.39,13408.1
2694.84,12821.2
2696.29,12286.5
2697.75,11744.4
2699.2,11317.3
2700.65,10822.4
2702.1,10305.8
2703.55,9859.33
2705.01,9397.13
2706.46,9076.5
2707.91,8651.81
2709.36,8314.24
2710.81,7940.37
2712.26,7564.08
2713.72,7325.72
2715.17,7060.74
2716.62,6766.73
2718.07,6449.73
2719.52,6252.51
2720.98,6045.61
2722.43,5781.84
2723.88,5593.09
2725.33,5423.7
2726.78,5210.75
2728.23,5013.53
2729.69,4933.68
2731.14,4731.62
2732.59,4575.54
2734.04,4472.69
2735.49,4344.44
2736.94,4200.46
2738.4,4091.56
2739.85,3979.04
2741.3,3829
2742.75,3784.24
2744.2,3756.41
2745.66,3577.34
2747.11,3495.06
2748.56,3430.94
2750.01,3383.75
2751.46,3329.3
2752.91,3283.32
2754.37,3184.11
2755.82,3130.87
2757.27,3063.12
2758.72,3018.35
2760.17,2898.56
2761.63,2894.93
2763.08,2862.27
2764.53,2776.36
2765.98,2782.41
2767.43,2736.43
2768.88,2642.06
2770.34,2646.9
2771.79,2586.4
2773.24,2539.21
2774.69,2504.12
2776.14,2479.93
2777.59,2510.17
2779.05,2423.06
2780.5,2400.07
2781.95,2386.76
2783.4,2398.86
2784.85,2371.03
2786.31,2317.79
2787.76,2279.08
2789.21,2277.87
2790.66,2242.78
2792.11,2214.95
2793.56,2172.6
2795.02,2168.97
2796.47,2160.5
2797.92,2158.08
2799.37,2127.83
2800.82,2127.83
2802.28,2123
2803.73,2070.97
2805.18,2056.45
2806.63,2058.87
2808.08,2031.04
2809.53,1986.27
2810.99,1999.58
2812.44,1994.74
2813.89,1939.08
2815.34,1946.34
2816.79,1918.52
2818.24,1937.88
2819.7,1936.67
2821.15,1918.52
2822.6,1891.9
2824.05,1879.8
2825.5,1873.75
2826.96,1893.11
2828.41,1866.49
2829.86,1884.64
2831.31,1821.72
2832.76,1799.94
2834.21,1822.93
2835.67,1835.03
2837.12,1831.4
2838.57,1830.19
2840.02,1778.16
2841.47,1809.62
2842.93,1743.08
2844.38,1768.48
2845.83,1752.75
2847.28,1732.19
2848.73,1721.3
2850.18,1749.13
2851.64,1741.87
2853.09,1751.54
2854.54,1741.87
2855.99,1726.14
2857.44,1699.52
2858.9,1740.66
2860.35,1715.25
2861.8,1700.73
2863.25,1729.77
2864.7,1703.15
2866.15,1709.2
2867.61,1726.14
2869.06,1741.87
2870.51,1729.77
2871.96,1804.78
2873.41,1749.13
2874.86,1749.13
2876.32,1704.36
2877.77,1723.72
2879.22,1710.41
2880.67,1733.4
2882.12,1762.43
2883.58,1758.8
2885.03,1752.75
2886.48,1741.87
2887.93,1693.47
2889.38,1722.51
2890.83,1706.78
2892.29,1767.27
2893.74,1740.66
2895.19,1714.04
2896.64,1706.78
2898.09,1707.99
2899.54,1714.04
2901,1693.47
2902.45,1695.89
2903.9,1768.48
2905.35,1697.1
2906.8,1732.19
2908.26,1733.4
2909.71,1726.14
2911.16,1697.1
2912.61,1681.37
2914.06,1659.59
2915.51,1674.11
2916.97,1653.54
2918.42,1674.11
2919.87,1660.8
2921.32,1668.06
2922.77,1641.44
2924.23,1628.13
2925.68,1607.56
2927.13,1609.98
2928.58,1641.44
2930.03,1600.3
2931.48,1597.88
2932.94,1550.7
2934.39,1571.26
2935.84,1557.96
2937.29,1547.07
2938.74,1518.03
2940.2,1527.71
2941.65,1492.62
2943.1,1449.06
2944.55,1457.53
2946,1464.79
2947.45,1415.18
2948.91,1394.61
2950.36,1409.13
2951.81,1424.86
2953.26,1372.83
2954.71,1384.93
2956.16,1403.08
2957.62,1372.83
2959.07,1347.43
2960.52,1357.11
2961.97,1326.86
2963.42,1324.44
2964.88,1279.67
2966.33,1284.51
2967.78,1313.55
2969.23,1291.77
2970.68,1276.04
2972.13,1283.3
2973.59,1251.84
2975.04,1244.58
2976.49,1259.1
2977.94,1250.63
2979.39,1238.53
2980.84,1231.27
2982.3,1234.9
2983.75,1210.7
2985.2,1204.65
2986.65,1180.46
2988.1,1209.49
2989.56,1210.7
2991.01,1205.86
2992.46,1214.33
2993.91,1197.39
2995.36,1182.88
2996.81,1164.73
2998.27,1173.2
2999.72,1178.04
3001.17,1151.42
3002.62,1147.79
3004.07,1138.11
3005.53,1176.83
3006.98,1164.73
3008.43,1149
3009.88,1150.21
3011.33,1145.37
3012.78,1149
3014.24,1149
3015.69,1106.65
3017.14,1134.48
3018.59,1124.8
3020.04,1113.91
3021.5,1134.48
3022.95,1124.8
3024.4,1121.17
3025.85,1136.9
3027.3,1133.27
3028.75,1109.07
3030.21,1162.31
3031.66,1103.02
3033.11,1127.22
3034.56,1139.32
3036.01,1112.7
3037.46,1115.12
3038.92,1122.38
3040.37,1103.02
3041.82,1119.96
3043.27,1136.9
3044.72,1095.76
3046.18,1110.28
3047.63,1117.54
3049.08,1123.59
3050.53,1127.22
3051.98,1124.8
3053.43,1118.75
3054.89,1118.75
3056.34,1121.17
3057.79,1122.38
3059.24,1144.16
3060.69,1138.11
3062.15,1134.48
3063.6,1132.06
3065.05,1140.53
3066.5,1156.26
3067.95,1142.95
3069.4,1126.01
3070.86,1139.32
3072.31,1146.58
3073.76,1147.79
3075.21,1184.08
3076.66,1146.58
3078.11,1191.34
3079.57,1187.71
3081.02,1188.92
3082.47,1188.92
3083.92,1205.86
3085.37,1210.7
3086.83,1236.11
3088.28,1216.75
3089.73,1220.38
3091.18,1221.59
3092.63,1253.05
3094.08,1286.93
3095.54,1282.09
3096.99,1290.56
3098.44,1337.75
3099.89,1323.23
3101.34,1323.23
3102.8,1380.09
3104.25,1412.76
3105.7,1430.91
3107.15,1456.32
3108.6,1447.85
3110.05,1457.53
3111.51,1478.1
3112.96,1499.88
3114.41,1570.05
3115.86,1559.17
3117.31,1571.26
3118.76,1548.28
3120.22,1607.56
3121.67,1636.6
3123.12,1634.18
3124.57,1666.85
3126.02,1710.41
3127.48,1701.94
3128.93,1799.94
3130.38,1778.16
3131.83,1763.64
3133.28,1776.95
3134.73,1814.46
3136.19,1795.1
3137.64,1805.99
3139.09,1783
3140.54,1843.5
3141.99,1853.18
3143.45,1865.28
3144.9,1843.5
3146.35,1864.07
3147.8,1882.22
3149.25,1916.1
3150.7,1889.48
3152.16,1945.13
3153.61,1928.2
3155.06,1889.48
3156.51,1905.21
3157.96,1914.89
3159.42,1941.5
3160.87,1881.01
3162.32,1928.2
3163.77,1937.88
3165.22,1933.04
3166.67,1963.28
3168.13,1966.91
3169.58,1931.83
3171.03,1913.68
3172.48,1956.02
3173.93,1952.39
3175.38,1991.11
3176.84,2033.46
3178.29,2031.04
3179.74,2074.6
3181.19,2078.23
3182.64,2102.43
3184.1,2161.71
3185.55,2126.63
3187,2168.97
3188.45,2183.49
3189.9,2176.23
3191.35,2233.1
3192.81,2217.37
3194.26,2219.79
3195.71,2256.09
3197.16,2258.51
3198.61,2235.52
3200.06,2303.28
3201.52,2292.39
3202.97,2298.44
3204.42,2248.83
3205.87,2271.82
3207.32,2282.71
3208.78,2242.78
3210.23,2276.66
3211.68,2176.23
3213.13,2113.32
3214.58,2098.8
3216.03,2054.03
3217.49,2040.72
3218.94,1993.53
3220.39,1953.6
3221.84,1902.79
3223.29,1868.91
3224.75,1785.42
3226.2,1746.71
3227.65,1728.56
3229.1,1676.53
3230.55,1623.29
3232,1591.83
3233.46,1539.81
3234.91,1496.25
3236.36,1466
3237.81,1469.63
3239.26,1380.09
3240.72,1322.02
3242.17,1309.92
3243.62,1308.71
3245.07,1272.41
3246.52,1233.69
3247.97,1185.29
3249.43,1220.38
3250.88,1147.79
3252.33,1116.33
3253.78,1106.65
3255.23,1092.13
3256.68,1069.14
3258.14,1111.49
3259.59,1071.56
3261.04,1052.2
3262.49,1028
3263.94,1026.79
3265.4,1006.22
3266.85,974.766
3268.3,1011.06
3269.75,1008.64
3271.2,977.186
3272.65,986.865
3274.11,969.926
3275.56,965.086
3277.01,959.037
3278.46,954.197
3279.91,937.258
3281.37,938.468
3282.82,955.407
3284.27,963.877
3285.72,908.219
3287.17,931.208
3288.62,925.159
3290.08,916.689
3291.53,907.01
3292.98,886.441
3294.43,922.739
3295.88,899.75
3297.33,911.849
3298.79,910.639
3300.24,932.418
3301.69,910.639
3303.14,911.849
3304.59,894.91
3306.05,960.247
3307.5,911.849
3308.95,902.17
3310.4,905.8
3311.85,892.49
3313.3,892.49
3314.76,885.231
3316.21,903.38
3317.66,896.12
3319.11,876.761
3320.56,893.7
3322.02,880.391
3323.47,886.441
3324.92,893.7
3326.37,900.96
3327.82,900.96
3329.27,892.49
3330.73,885.231
3332.18,893.7
3333.63,904.59
3335.08,863.452
3336.53,857.402
3337.98,902.17
3339.44,870.711
3340.89,871.921
3342.34,880.391
3343.79,892.49
3345.24,880.391
3346.7,874.341
3348.15,865.872
3349.6,874.341
3351.05,877.971
3352.5,850.143
3353.95,882.811
3355.41,864.662
3356.86,833.203
3358.31,856.192
3359.76,888.861
3361.21,871.921
3362.67,880.391
3364.12,859.822
3365.57,868.292
3367.02,875.551
3368.47,854.982
3369.92,869.502
3371.38,882.811
3372.83,869.502
3374.28,830.784
3375.73,842.883
3377.18,867.082
3378.63,874.341
3380.09,884.021
3381.54,842.883
3382.99,841.673
3384.44,841.673
3385.89,834.413
3387.35,858.612
3388.8,838.043
3390.25,850.143
3391.7,836.833
3393.15,831.994
3394.6,845.303
3396.06,856.192
3397.51,861.032
3398.96,871.921
3400.41,845.303
3401.86,840.463
3403.32,852.562
3404.77,858.612
3406.22,880.391
3407.67,835.623
3409.12,847.723
3410.57,838.043
3412.03,829.574
3413.48,811.425
3414.93,859.822
3416.38,856.192
3417.83,840.463
3419.28,838.043
3420.74,877.971
3422.19,834.413
3423.64,863.452
3425.09,847.723
3426.54,830.784
3428,805.375
3429.45,846.513
3430.9,852.562
3432.35,859.822
3433.8,861.032
3435.25,822.314
3436.71,827.154
3438.16,827.154
3439.61,857.402
3441.06,851.353
3442.51,827.154
3443.97,817.474
3445.42,807.795
3446.87,847.723
3448.32,822.314
3449.77,815.054
3451.22,822.314
3452.68,861.032
3454.13,806.585
3455.58,810.215
3457.03,852.562
3458.48,830.784
3459.94,831.994
3461.39,813.844
3462.84,829.574
3464.29,836.833
3465.74,833.203
3467.19,833.203
3468.65,801.745
3470.1,842.883
3471.55,829.574
3473,806.585
3474.45,786.016
3475.9,834.413
3477.36,853.772
3478.81,859.822
3480.26,846.513
3481.71,809.005
3483.16,830.784
3484.62,792.066
3486.07,841.673
3487.52,817.474
3488.97,799.325
3490.42,824.734
3491.87,830.784
3493.33,842.883
3494.78,823.524
3496.23,823.524
3497.68,827.154
3499.13,824.734
3500.58,836.833
3502.04,854.982
3503.49,823.524
3504.94,802.955
3506.39,793.276
3507.84,833.203
3509.3,862.242
3510.75,865.872
3512.2,819.894
3513.65,822.314
3515.1,839.253
3516.55,827.154
3518.01,840.463
3519.46,831.994
3520.91,825.944
3522.36,823.524
3523.81,828.364
3525.27,829.574
3526.72,811.425
3528.17,835.623
3529.62,818.684
3531.07,833.203
3532.52,844.093
3533.98,836.833
3535.43,848.933
3536.88,834.413
3538.33,801.745
3539.78,828.364
3541.24,835.623
3542.69,813.844
3544.14,836.833
3545.59,842.883
3547.04,824.734
3548.49,815.054
3549.95,833.203
3551.4,816.264
3552.85,804.165
3554.3,807.795
3555.75,839.253
3557.2,848.933
3558.66,818.684
3560.11,811.425
3561.56,821.104
3563.01,822.314
3564.46,827.154
3565.92,827.154
3567.37,819.894
3568.82,823.524
3570.27,824.734
3571.72,805.375
3573.17,813.844
3574.63,830.784
3576.08,827.154
3577.53,846.513
3578.98,789.646
3580.43,812.635
3581.89,806.585
3583.34,809.005
3584.79,796.905
3586.24,834.413
3587.69,809.005
3589.14,831.994
3590.6,833.203
3592.05,811.425
3593.5,813.844
3594.95,806.585
3596.4,796.905
3597.85,798.115
3599.31,827.154
3600.76,830.784
3602.21,802.955
3603.66,829.574
3605.11,779.966
3606.57,827.154
3608.02,824.734
3609.47,817.474
3610.92,823.524
3612.37,847.723
3613.82,813.844
3615.28,818.684
3616.73,800.535
3618.18,847.723
3619.63,798.115
3621.08,833.203
3622.54,823.524
3623.99,831.994
3625.44,839.253
3626.89,828.364
3628.34,804.165
3629.79,810.215
3631.25,812.635
3632.7,822.314
3634.15,812.635
3635.6,807.795
3637.05,799.325
3638.5,821.104
3639.96,812.635
3641.41,824.734
3642.86,817.474
3644.31,802.955
3645.76,823.524
3647.22,812.635
3648.67,813.844
3650.12,799.325
3651.57,805.375
3653.02,790.856
3654.47,821.104
3655.93,854.982
3657.38,822.314
3658.83,831.994
3660.28,821.104
3661.73,821.104
3663.19,806.585
3664.64,831.994
3666.09,789.646
3667.54,817.474
3668.99,822.314
3670.44,842.883
3671.9,821.104
3673.35,811.425
3674.8,846.513
3676.25,834.413
3677.7,796.905
3679.16,821.104
3680.61,821.104
3682.06,841.673
3683.51,822.314
3684.96,829.574
3686.41,829.574
3687.87,819.894
3689.32,833.203
3690.77,801.745
3692.22,836.833
3693.67,813.844
3695.12,819.894
3696.58,827.154
3698.03,835.623
3699.48,836.833
3700.93,835.623
3702.38,819.894
3703.84,845.303
3705.29,828.364
3706.74,806.585
3708.19,829.574
3709.64,868.292
3711.09,846.513
3712.55,838.043
3714,817.474
3715.45,823.524
3716.9,830.784
3718.35,840.463
3719.8,848.933
3721.26,830.784
3722.71,812.635
3724.16,830.784
3725.61,844.093
3727.06,844.093
3728.52,829.574
3729.97,824.734
3731.42,844.093
3732.87,838.043
3734.32,830.784
3735.77,861.032
3737.23,856.192
3738.68,840.463
3740.13,810.215
3741.58,851.353
3743.03,818.684
3744.49,824.734
3745.94,864.662
3747.39,841.673
3748.84,850.143
3750.29,861.032
3751.74,834.413
3753.2,835.623
3754.65,835.623
3756.1,815.054
3757.55,840.463
3759,829.574
3760.46,847.723
3761.91,854.982
3763.36,859.822
3764.81,862.242
3766.26,867.082
3767.71,824.734
3769.17,839.253
3770.62,858.612
3772.07,817.474
3773.52,828.364
3774.97,845.303
3776.42,823.524
3777.88,841.673
3779.33,844.093
3780.78,864.662
3782.23,867.082
3783.68,869.502
3785.14,887.651
3786.59,846.513
3788.04,838.043
3789.49,825.944
3790.94,862.242
3792.39,862.242
3793.85,853.772
3795.3,868.292
3796.75,873.131
3798.2,864.662
3799.65,856.192
3801.1,859.822
3802.56,809.005
3804.01,871.921
3805.46,857.402
3806.91,853.772
3808.36,882.811
3809.82,873.131
3811.27,856.192
3812.72,851.353
3814.17,854.982
3815.62,887.651
3817.07,877.971
3818.53,876.761
3819.98,915.479
3821.43,847.723
3822.88,848.933
3824.33,850.143
3825.79,875.551
3827.24,925.159
3828.69,921.529
3830.14,857.402
3831.59,891.28
3833.04,859.822
3834.5,869.502
3835.95,874.341
3837.4,886.441
3838.85,875.551
3840.3,873.131
3841.76,929.998
3843.21,836.833
3844.66,868.292
3846.11,869.502
3847.56,848.933
3849.01,922.739
3850.47,847.723
3851.92,882.811
3853.37,842.883
3854.82,858.612
3856.27,892.49
3857.72,893.7
3859.18,907.01
3860.63,903.38
3862.08,859.822
3863.53,892.49
3864.98,905.8
3866.44,937.258
3867.89,887.651
3869.34,876.761
3870.79,899.75
3872.24,904.59
3873.69,891.28
3875.15,904.59
3876.6,871.921
3878.05,885.231
3879.5,915.479
3880.95,881.601
3882.41,897.33
3883.86,915.479
3885.31,896.12
3886.76,890.07
3888.21,907.01
3889.66,910.639
3891.12,902.17
3892.57,938.468
3894.02,934.838
3895.47,943.308
3896.92,927.578
3898.37,926.369
3899.83,919.109
3901.28,905.8
3902.73,932.418
3904.18,920.319
3905.63,945.728
3907.09,933.628
3908.54,937.258
3909.99,962.667
3911.44,948.147
3912.89,951.777
3914.34,949.357
3915.8,915.479
3917.25,939.678
3918.7,984.445
3920.15,969.926
3921.6,1001.38
3923.06,971.136
3924.51,934.838
3925.96,988.075
3927.41,979.606
3928.86,966.296
3930.31,1021.95
3931.77,994.125
3933.22,998.965
3934.67,1002.59
3936.12,997.755
3937.57,1003.8
3939.02,1008.64
3940.48,997.755
3941.93,985.655
3943.38,994.125
3944.83,1009.85
3946.28,1005.01
3947.74,1009.85
3949.19,1005.01
3950.64,1015.9
3952.09,994.125
3953.54,983.236
3954.99,1025.58
3956.45,1018.32
3957.9,1006.22
3959.35,1067.93
3960.8,1023.16
3962.25,1038.89
3963.71,1021.95
3965.16,1028
3966.61,1043.73
3968.06,1041.31
3969.51,1049.78
3970.96,1030.42
3972.42,1047.36
3973.87,1050.99
3975.32,1063.09
3976.77,1052.2
3978.22,1063.09
3979.68,1059.46
3981.13,1054.62
3982.58,1087.29
3984.03,1069.14
3985.48,1104.23
3986.93,1058.25
3988.39,1090.92
3989.84,1127.22
3991.29,1090.92
3992.74,1086.08
3994.19,1075.19
3995.64,1105.44
3997.1,1105.44
3998.55,1115.12
4000,1111.49
