1.77681,28304.5
3.2286,19351.2
4.68039,7016.48
6.13218,1970.07
7.58397,238.27
9.03575,51.5372
10.4875,44.2955
11.9393,45.3301
13.3911,47.9166
14.8429,47.3993
16.2947,44.8128
17.7465,42.2265
19.1983,35.5021
20.6501,30.3295
22.1018,27.2259
23.5536,24.1223
25.0054,21.536
26.4572,19.4669
27.909,17.9151
29.3608,16.8806
30.8126,15.3288
32.2644,14.8115
33.7161,13.777
35.1679,13.2598
36.6197,13.777
38.0715,15.3288
39.5233,15.3288
40.9751,16.3633
42.4269,17.9151
43.8787,19.4669
45.3304,23.0878
46.7822,26.7086
48.234,37.5712
49.6858,61.3653
51.1376,101.712
52.5894,166.37
54.0412,264.65
55.493,398.621
56.9447,560.526
58.3965,732.258
59.8483,901.921
61.3001,1018.82
62.7519,1108.31
64.2037,1189.52
65.6555,1229.35
67.1073,1268.66
68.559,1290.9
70.0108,1308.49
71.4626,1348.32
72.9144,1374.7
74.3662,1391.77
75.818,1408.32
77.2698,1436.25
78.7216,1492.63
80.1733,1534.53
81.6251,1573.33
83.0769,1592.98
84.5287,1602.81
85.9805,1613.16
87.4323,1584.19
88.8841,1538.15
90.3359,1494.19
91.7877,1438.84
93.2394,1381.94
94.6912,1309.01
96.143,1257.28
97.5948,1212.28
99.0466,1144
100.498,1120.2
101.95,1072.1
103.402,1035.89
104.854,1012.61
106.306,1001.23
107.757,989.856
109.209,983.131
110.661,969.164
112.113,948.473
113.564,939.162
115.016,931.402
116.468,913.814
117.92,898.3
119.372,887.437
120.823,871.918
122.275,843.467
123.727,819.676
125.179,797.95
126.631,789.673
128.082,789.673
129.534,759.153
130.986,745.19
132.438,738.465
133.889,721.395
135.341,708.98
136.793,703.289
138.245,689.84
139.697,678.46
141.148,662.945
142.6,659.841
144.052,644.323
145.504,629.839
146.956,622.079
148.407,618.458
149.859,618.975
151.311,602.422
152.763,588.972
154.215,588.455
155.666,588.455
157.118,576.044
158.57,595.18
160.022,600.353
161.473,596.732
162.925,600.353
164.377,624.666
165.829,632.942
167.281,638.632
168.732,646.909
170.184,636.046
171.636,607.595
173.088,585.873
174.54,565.699
175.991,540.351
177.443,533.109
178.895,527.419
180.347,528.971
181.798,521.212
183.25,511.9
184.702,507.762
186.154,506.727
187.606,502.076
189.057,496.386
190.509,491.213
191.961,485.523
193.413,500.524
194.865,496.903
196.316,490.696
197.768,483.454
199.22,491.213
200.672,483.454
202.124,484.488
203.575,486.557
205.027,475.177
206.479,478.281
207.931,480.867
209.382,486.557
210.834,483.971
212.286,473.108
213.738,471.039
215.19,481.902
216.641,481.384
218.093,481.902
219.545,479.833
220.997,469.487
222.449,466.9
223.9,463.797
225.352,469.487
226.804,472.59
228.256,464.831
229.707,462.245
231.159,467.418
232.611,472.073
234.063,473.625
235.515,482.419
236.966,466.383
238.418,467.935
239.87,474.142
241.322,470.521
242.774,461.727
244.225,458.624
245.677,461.21
247.129,461.21
248.581,459.141
250.033,446.209
251.484,456.037
252.936,452.416
254.388,446.209
255.84,445.174
257.291,460.176
258.743,458.624
260.195,444.139
261.647,446.726
263.099,447.76
264.55,430.173
266.002,426.036
267.454,434.311
268.906,437.415
270.358,434.311
271.809,435.345
273.261,437.415
274.713,428.103
276.165,431.207
277.616,428.103
279.068,414.139
280.52,411.553
281.972,422.933
283.424,416.726
284.875,411.553
286.327,408.967
287.779,414.139
289.231,415.174
290.683,407.932
292.134,399.656
293.586,395.518
295.038,403.277
296.49,396.552
297.941,387.759
299.393,396.035
300.845,395.518
302.297,374.827
303.749,375.344
305.2,376.379
306.652,377.414
308.104,376.379
309.556,373.275
311.008,369.655
312.459,371.724
313.911,364.482
315.363,368.103
316.815,376.379
318.267,356.205
319.718,353.102
321.17,355.171
322.622,355.171
324.074,357.757
325.525,355.171
326.977,356.205
328.429,352.068
329.881,356.723
331.333,359.309
332.784,351.033
334.236,354.654
335.688,343.274
337.14,347.929
338.592,346.378
340.043,334.998
341.495,340.17
342.947,357.757
344.399,345.861
345.85,338.619
347.302,344.309
348.754,351.55
350.206,349.998
351.658,349.481
353.109,342.757
354.561,338.619
356.013,339.136
357.465,330.86
358.917,336.032
360.368,341.722
361.82,340.17
363.272,333.446
364.724,329.825
366.176,332.929
367.627,336.55
369.079,335.515
370.531,334.481
371.983,343.274
373.434,334.998
374.886,334.998
376.338,331.894
377.79,329.825
379.242,333.446
380.693,337.067
382.145,327.756
383.597,321.549
385.049,316.893
386.501,319.48
387.952,324.652
389.404,327.239
390.856,326.204
392.308,326.204
393.759,328.273
395.211,328.273
396.663,330.343
398.115,321.549
399.567,328.791
401.018,331.377
402.47,327.756
403.922,324.652
405.374,333.963
406.826,325.687
408.277,330.86
409.729,332.929
411.181,324.652
412.633,328.791
414.085,329.825
415.536,322.066
416.988,317.411
418.44,321.032
419.892,329.825
421.343,329.308
422.795,328.273
424.247,322.584
425.699,316.376
427.151,315.342
428.602,329.308
430.054,329.308
431.506,329.308
432.958,323.618
434.41,321.032
435.861,330.343
437.313,319.997
438.765,325.687
440.217,327.239
441.668,322.584
443.12,318.445
444.572,329.825
446.024,327.756
447.476,324.135
448.927,322.584
450.379,319.48
451.831,318.445
453.283,309.652
454.735,312.238
456.186,312.756
457.638,315.859
459.09,319.48
460.542,316.376
461.993,294.134
463.445,310.686
464.897,315.342
466.349,315.342
467.801,315.342
469.252,309.135
470.704,319.997
472.156,317.928
473.608,317.928
475.06,317.411
476.511,315.859
477.963,312.756
479.415,314.307
480.867,319.997
482.319,313.79
483.77,308.1
485.222,314.307
486.674,323.618
488.126,311.204
489.577,314.307
491.029,319.997
492.481,318.963
493.933,311.204
495.385,305.514
496.836,314.307
498.288,315.342
499.74,314.307
501.192,313.79
502.644,305.514
504.095,307.066
505.547,306.031
506.999,309.652
508.451,312.756
509.902,314.307
511.354,310.686
512.806,303.962
514.258,305.514
515.71,316.376
517.161,321.032
518.613,313.79
520.065,299.824
521.517,302.41
522.969,304.479
524.42,304.479
525.872,303.962
527.324,304.479
528.776,310.169
530.228,310.686
531.679,316.376
533.131,315.859
534.583,310.169
536.035,310.169
537.486,300.858
538.938,290.513
540.39,299.307
541.842,306.031
543.294,304.997
544.745,307.583
546.197,309.652
547.649,308.617
549.101,306.549
550.553,306.549
552.004,307.066
553.456,309.652
554.908,308.617
556.36,308.617
557.811,308.617
559.263,313.79
560.715,311.204
562.167,301.893
563.619,309.135
565.07,306.549
566.522,304.997
567.974,299.824
569.426,298.272
570.878,308.1
572.329,296.203
573.781,310.686
575.233,314.825
576.685,310.686
578.137,306.031
579.588,306.031
581.04,302.927
582.492,301.376
583.944,306.549
585.395,307.583
586.847,302.927
588.299,299.307
589.751,302.41
591.203,313.79
592.654,303.962
594.106,297.755
595.558,303.445
597.01,301.376
598.462,301.893
599.913,300.858
601.365,310.686
602.817,312.238
604.269,307.583
605.72,311.721
607.172,311.204
608.624,298.272
610.076,303.962
611.528,306.031
612.979,304.997
614.431,303.962
615.883,308.617
617.335,308.617
618.787,311.721
620.238,312.238
621.69,305.514
623.142,303.962
624.594,313.273
626.046,303.962
627.497,304.479
628.949,309.135
630.401,308.1
631.853,300.341
633.304,306.031
634.756,313.79
636.208,306.549
637.66,314.825
639.112,319.997
640.563,314.825
642.015,316.376
643.467,321.032
644.919,312.238
646.371,310.169
647.822,311.721
649.274,315.342
650.726,317.411
652.178,331.894
653.629,322.584
655.081,325.17
656.533,322.584
657.985,318.445
659.437,317.928
660.888,327.239
662.34,321.032
663.792,321.032
665.244,318.963
666.696,316.893
668.147,320.515
669.599,321.549
671.051,318.963
672.503,318.963
673.954,323.101
675.406,323.101
676.858,322.584
678.31,324.135
679.762,322.066
681.213,328.273
682.665,327.756
684.117,327.239
685.569,323.618
687.021,318.445
688.472,325.17
689.924,318.445
691.376,321.032
692.828,315.859
694.28,315.859
695.731,322.584
697.183,318.963
698.635,315.342
700.087,322.066
701.538,326.204
702.99,324.652
704.442,327.239
705.894,331.377
707.346,325.17
708.797,333.963
710.249,325.687
711.701,333.446
713.153,338.619
714.605,336.032
716.056,332.929
717.508,325.17
718.96,329.825
720.412,323.618
721.863,327.756
723.315,333.963
724.767,335.515
726.219,332.411
727.671,325.687
729.122,328.791
730.574,331.377
732.026,328.273
733.478,324.135
734.93,326.204
736.381,328.273
737.833,331.377
739.285,334.481
740.737,332.411
742.189,334.481
743.64,339.136
745.092,334.481
746.544,320.515
747.996,326.722
749.447,339.653
750.899,336.032
752.351,327.239
753.803,324.652
755.255,325.687
756.706,327.756
758.158,322.066
759.61,326.722
761.062,331.894
762.514,330.86
763.965,331.377
765.417,339.653
766.869,333.963
768.321,322.584
769.772,331.377
771.224,330.86
772.676,328.791
774.128,343.791
775.58,329.308
777.031,334.481
778.483,328.273
779.935,336.55
781.387,341.722
782.839,338.619
784.29,346.378
785.742,346.895
787.194,332.929
788.646,336.032
790.098,340.17
791.549,334.998
793.001,337.584
794.453,337.067
795.905,341.205
797.356,337.584
798.808,337.067
800.26,336.55
801.712,338.619
803.164,344.826
804.615,352.068
806.067,336.55
807.519,342.24
808.971,344.826
810.423,343.791
811.874,343.791
813.326,347.929
814.778,334.998
816.23,346.895
817.681,342.757
819.133,350.516
820.585,360.344
822.037,355.171
823.489,348.964
824.94,347.929
826.392,348.447
827.844,354.137
829.296,357.24
830.748,348.964
832.199,342.24
833.651,342.757
835.103,362.93
836.555,356.723
838.007,359.309
839.458,367.585
840.91,366.551
842.362,357.24
843.814,354.137
845.265,352.068
846.717,353.619
848.169,359.309
849.621,376.379
851.073,370.689
852.524,364.999
853.976,373.275
855.428,371.207
856.88,375.344
858.332,375.344
859.783,374.827
861.235,368.103
862.687,375.862
864.139,378.965
865.59,377.414
867.042,380.517
868.494,362.93
869.946,360.344
871.398,361.378
872.849,369.655
874.301,370.689
875.753,368.62
877.205,368.103
878.657,370.689
880.108,362.93
881.56,364.999
883.012,364.482
884.464,365.516
885.915,363.448
887.367,360.344
888.819,365.516
890.271,362.413
891.723,365.516
893.174,375.344
894.626,380
896.078,383.103
897.53,380.517
898.982,374.31
900.433,371.207
901.885,367.068
903.337,376.379
904.789,382.069
906.241,382.586
907.692,384.138
909.144,380.517
910.596,383.103
912.048,378.965
913.499,387.759
914.951,384.655
916.403,381.034
917.855,374.31
919.307,366.034
920.758,376.379
922.21,390.345
923.662,385.69
925.114,387.759
926.566,386.724
928.017,386.724
929.469,396.035
930.921,391.897
932.373,388.276
933.824,370.689
935.276,388.276
936.728,396.552
938.18,391.897
939.632,395.001
941.083,394.483
942.535,387.242
943.987,390.345
945.439,399.139
946.891,392.414
948.342,387.242
949.794,389.31
951.246,390.345
952.698,393.966
954.15,403.277
955.601,390.345
957.053,384.655
958.505,389.31
959.957,391.897
961.408,387.242
962.86,385.173
964.312,402.242
965.764,403.277
967.216,398.104
968.667,389.828
970.119,398.621
971.571,395.518
973.023,395.518
974.475,400.173
975.926,392.931
977.378,397.069
978.83,396.035
980.282,399.139
981.733,399.139
983.185,404.311
984.637,402.76
986.089,399.139
987.541,398.621
988.992,408.449
990.444,403.794
991.896,413.622
993.348,403.277
994.8,407.415
996.251,413.105
997.703,405.346
999.155,418.795
1000.61,407.932
1002.06,412.07
1003.51,415.174
1004.96,413.105
1006.41,408.967
1007.87,413.622
1009.32,420.347
1010.77,421.898
1012.22,426.036
1013.67,425.519
1015.12,420.347
1016.58,425.002
1018.03,419.829
1019.48,420.863
1020.93,432.759
1022.38,439.484
1023.84,444.657
1025.29,448.278
1026.74,443.105
1028.19,444.657
1029.64,451.899
1031.09,453.451
1032.55,446.209
1034,452.416
1035.45,458.624
1036.9,462.245
1038.35,471.039
1039.8,471.039
1041.26,473.625
1042.71,485.005
1044.16,489.144
1045.61,472.073
1047.06,474.66
1048.52,483.454
1049.97,489.661
1051.42,493.799
1052.87,500.524
1054.32,497.42
1055.77,500.007
1057.23,511.9
1058.68,517.591
1060.13,526.385
1061.58,520.177
1063.03,524.833
1064.49,535.178
1065.94,539.834
1067.39,528.971
1068.84,526.385
1070.29,548.628
1071.74,552.766
1073.2,554.318
1074.65,561.56
1076.1,567.768
1077.55,572.941
1079,566.733
1080.46,563.629
1081.91,568.285
1083.36,564.664
1084.81,589.49
1086.26,592.076
1087.71,597.249
1089.17,589.49
1090.62,567.25
1092.07,579.666
1093.52,593.111
1094.97,580.183
1096.42,574.493
1097.88,584.321
1099.33,569.32
1100.78,567.768
1102.23,571.389
1103.68,571.389
1105.14,562.078
1106.59,561.043
1108.04,564.147
1109.49,558.974
1110.94,560.526
1112.39,546.042
1113.85,551.214
1115.3,549.145
1116.75,548.111
1118.2,547.593
1119.65,540.869
1121.11,538.799
1122.56,533.627
1124.01,538.799
1125.46,539.317
1126.91,530.523
1128.36,532.075
1129.82,530.523
1131.27,523.281
1132.72,524.833
1134.17,514.487
1135.62,522.763
1137.07,513.969
1138.53,510.866
1139.98,521.729
1141.43,521.729
1142.88,508.797
1144.33,511.383
1145.79,519.66
1147.24,527.936
1148.69,515.521
1150.14,509.314
1151.59,517.591
1153.04,503.628
1154.5,504.663
1155.95,510.348
1157.4,516.039
1158.85,515.521
1160.3,513.452
1161.76,513.452
1163.21,509.314
1164.66,508.797
1166.11,502.593
1167.56,511.383
1169.01,513.969
1170.47,518.625
1171.92,521.729
1173.37,516.556
1174.82,529.488
1176.27,519.66
1177.72,519.66
1179.18,538.282
1180.63,522.246
1182.08,521.212
1183.53,530.005
1184.98,527.936
1186.44,526.385
1187.89,523.281
1189.34,524.833
1190.79,526.385
1192.24,518.108
1193.69,532.592
1195.15,539.317
1196.6,535.178
1198.05,527.936
1199.5,531.04
1200.95,542.421
1202.41,542.938
1203.86,539.317
1205.31,537.765
1206.76,554.835
1208.21,551.214
1209.66,543.455
1211.12,536.213
1212.57,543.972
1214.02,543.455
1215.47,533.109
1216.92,542.938
1218.37,548.628
1219.83,549.663
1221.28,552.249
1222.73,552.249
1224.18,549.663
1225.63,557.422
1227.09,560.008
1228.54,551.214
1229.99,543.972
1231.44,553.801
1232.89,544.49
1234.34,562.078
1235.8,560.008
1237.25,556.387
1238.7,546.559
1240.15,559.491
1241.6,575.01
1243.06,569.837
1244.51,568.802
1245.96,573.458
1247.41,594.663
1248.86,584.838
1250.31,573.975
1251.77,588.455
1253.22,596.215
1254.67,596.732
1256.12,593.111
1257.57,595.18
1259.02,606.043
1260.48,612.768
1261.93,631.39
1263.38,621.044
1264.83,632.425
1266.28,633.977
1267.74,646.909
1269.19,652.599
1270.64,655.703
1272.09,672.252
1273.54,692.944
1274.99,695.013
1276.45,692.426
1277.9,685.184
1279.35,705.359
1280.8,729.154
1282.25,732.775
1283.71,740.017
1285.16,741.569
1286.61,747.777
1288.06,770.533
1289.51,786.569
1290.96,788.121
1292.42,812.434
1293.87,845.019
1295.32,852.778
1296.77,884.85
1298.22,912.78
1299.67,931.402
1301.13,945.369
1302.58,975.372
1304.03,1013.13
1305.48,1033.82
1306.93,1064.86
1308.39,1109.86
1309.84,1151.24
1311.29,1192.62
1312.74,1245.38
1314.19,1315.21
1315.64,1373.66
1317.1,1425.91
1318.55,1478.67
1320,1530.4
1321.45,1595.05
1322.9,1681.44
1324.36,1722.82
1325.81,1790.58
1327.26,1847.48
1328.71,1906.44
1330.16,1952.48
1331.61,1987.14
1333.07,2016.11
1334.52,2056.45
1335.97,2078.69
1337.42,2045.59
1338.87,2047.66
1340.33,2012.49
1341.78,1975.76
1343.23,1943.69
1344.68,1887.31
1346.13,1846.44
1347.58,1791.61
1349.04,1709.89
1350.49,1634.36
1351.94,1566.08
1353.39,1483.32
1354.84,1419.18
1356.29,1386.6
1357.75,1324
1359.2,1268.66
1360.65,1231.41
1362.1,1166.76
1363.55,1112.96
1365.01,1076.75
1366.46,1043.13
1367.91,1011.58
1369.36,988.822
1370.81,966.578
1372.26,944.334
1373.72,924.677
1375.17,907.611
1376.62,868.297
1378.07,860.02
1379.52,841.915
1380.98,833.121
1382.43,828.983
1383.88,813.468
1385.33,792.259
1386.78,792.259
1388.23,794.329
1389.69,774.154
1391.14,768.981
1392.59,790.708
1394.04,793.811
1395.49,764.326
1396.94,763.291
1398.4,750.876
1399.85,751.911
1401.3,756.049
1402.75,747.259
1404.2,744.156
1405.66,742.086
1407.11,752.945
1408.56,763.291
1410.01,755.014
1411.46,758.635
1412.91,739.5
1414.37,752.428
1415.82,753.98
1417.27,748.29
1418.72,743.121
1420.17,744.673
1421.63,752.945
1423.08,747.777
1424.53,758.118
1425.98,745.19
1427.43,750.876
1428.88,749.324
1430.34,770.533
1431.79,775.189
1433.24,772.602
1434.69,778.293
1436.14,785.017
1437.59,796.398
1439.05,792.259
1440.5,792.777
1441.95,807.778
1443.4,817.089
1444.85,816.572
1446.31,797.95
1447.76,812.951
1449.21,822.262
1450.66,833.121
1452.11,830.017
1453.56,828.47
1455.02,837.259
1456.47,851.744
1457.92,862.089
1459.37,874.504
1460.82,870.366
1462.28,875.022
1463.73,913.814
1465.18,922.608
1466.63,927.781
1468.08,924.16
1469.53,929.85
1470.99,936.058
1472.44,944.852
1473.89,969.164
1475.34,989.856
1476.79,994.507
1478.24,1011.06
1479.7,1011.58
1481.15,1050.89
1482.6,1048.82
1484.05,1072.1
1485.5,1086.58
1486.96,1091.24
1488.41,1110.38
1489.86,1136.76
1491.31,1148.14
1492.76,1173.48
1494.21,1198.83
1495.67,1225.21
1497.12,1241.24
1498.57,1272.8
1500.02,1291.94
1501.47,1336.94
1502.93,1346.25
1504.38,1389.18
1505.83,1433.15
1507.28,1490.05
1508.73,1532.98
1510.18,1581.6
1511.64,1630.23
1513.09,1687.64
1514.54,1760.58
1515.99,1827.3
1517.44,1895.06
1518.89,1945.76
1520.35,2028.52
1521.8,2110.25
1523.25,2233.36
1524.7,2343.02
1526.15,2510.09
1527.61,2629.06
1529.06,2816.31
1530.51,3012.35
1531.96,3233.75
1533.41,3489.79
1534.86,3734.45
1536.32,4030.33
1537.77,4401.21
1539.22,4807.77
1540.67,5270.21
1542.12,5746.59
1543.58,6278.38
1545.03,6849.41
1546.48,7473.23
1547.93,8158.62
1549.38,8880.69
1550.83,9642.65
1552.29,10464.1
1553.74,11283.9
1555.19,12064.5
1556.64,12860.5
1558.09,13691.3
1559.54,14422.7
1561,15171.2
1562.45,15782.6
1563.9,16229
1565.35,16489.2
1566.8,16633.5
1568.26,16499
1569.71,16223.3
1571.16,15857.1
1572.61,15283.9
1574.06,14541.1
1575.51,13654.5
1576.97,12758.1
1578.42,11847.7
1579.87,10952.9
1581.32,10066.3
1582.77,9204.02
1584.23,8422.4
1585.68,7611.88
1587.13,6918.75
1588.58,6350.8
1590.03,5790.07
1591.48,5287.79
1592.94,4903.49
1594.39,4578.11
1595.84,4240.86
1597.29,3974.47
1598.74,3714.8
1600.2,3488.76
1601.65,3329.44
1603.1,3168.57
1604.55,2997.36
1606,2867
1607.45,2730.45
1608.91,2591.3
1610.36,2461.47
1611.81,2319.22
1613.26,2258.7
1614.71,2143.87
1616.16,2051.8
1617.62,1941.1
1619.07,1853.69
1620.52,1787.99
1621.97,1704.2
1623.42,1623.5
1624.88,1577.46
1626.33,1524.71
1627.78,1463.15
1629.23,1391.25
1630.68,1345.73
1632.13,1321.42
1633.59,1292.45
1635.04,1248.48
1636.49,1216.42
1637.94,1189
1639.39,1163.65
1640.85,1141.93
1642.3,1137.79
1643.75,1105.72
1645.2,1072.1
1646.65,1058.65
1648.1,1038.99
1649.56,1006.41
1651.01,990.369
1652.46,980.028
1653.91,957.784
1655.36,940.713
1656.81,933.471
1658.27,927.264
1659.72,921.574
1661.17,905.542
1662.62,878.643
1664.07,872.953
1665.53,856.399
1666.98,856.917
1668.43,856.399
1669.88,830.017
1671.33,818.124
1672.78,810.365
1674.24,800.019
1675.69,795.363
1677.14,780.362
1678.59,778.81
1680.04,776.741
1681.5,772.602
1682.95,758.635
1684.4,751.911
1685.85,738.983
1687.3,745.19
1688.75,728.637
1690.21,727.602
1691.66,715.705
1693.11,715.705
1694.56,706.393
1696.01,700.186
1697.46,702.255
1698.92,699.151
1700.37,700.703
1701.82,700.703
1703.27,692.944
1704.72,688.288
1706.18,688.288
1707.63,690.875
1709.08,684.667
1710.53,675.356
1711.98,679.494
1713.43,683.115
1714.89,678.46
1716.34,665.014
1717.79,657.255
1719.24,651.047
1720.69,660.876
1722.15,659.841
1723.6,668.114
1725.05,656.738
1726.5,653.117
1727.95,652.599
1729.4,651.565
1730.86,664.497
1732.31,660.876
1733.76,654.668
1735.21,651.565
1736.66,651.047
1738.11,646.909
1739.57,649.496
1741.02,639.15
1742.47,641.219
1743.92,644.84
1745.37,638.632
1746.83,640.184
1748.28,635.529
1749.73,628.287
1751.18,642.771
1752.63,625.183
1754.08,606.56
1755.54,618.975
1756.99,629.839
1758.44,622.079
1759.89,602.939
1761.34,611.216
1762.8,618.975
1764.25,613.802
1765.7,608.63
1767.15,610.699
1768.6,600.87
1770.05,588.972
1771.51,593.628
1772.96,596.732
1774.41,590.007
1775.86,596.215
1777.31,590.524
1778.76,581.217
1780.22,587.938
1781.67,579.666
1783.12,573.975
1784.57,569.32
1786.02,558.457
1787.48,582.252
1788.93,554.318
1790.38,570.354
1791.83,565.181
1793.28,572.423
1794.73,561.043
1796.19,559.491
1797.64,563.629
1799.09,558.457
1800.54,554.318
1801.99,563.629
1803.45,562.078
1804.9,546.042
1806.35,545.007
1807.8,548.628
1809.25,545.524
1810.7,556.387
1812.16,554.835
1813.61,543.455
1815.06,542.938
1816.51,540.869
1817.96,536.213
1819.41,542.421
1820.87,552.249
1822.32,553.801
1823.77,556.387
1825.22,563.629
1826.67,561.56
1828.13,560.008
1829.58,576.562
1831.03,548.111
1832.48,545.007
1833.93,545.524
1835.38,551.214
1836.84,546.559
1838.29,562.078
1839.74,564.664
1841.19,567.25
1842.64,571.906
1844.1,563.629
1845.55,566.216
1847,572.941
1848.45,581.217
1849.9,596.732
1851.35,599.318
1852.81,591.042
1854.26,584.838
1855.71,586.903
1857.16,589.49
1858.61,587.938
1860.07,586.39
1861.52,594.145
1862.97,595.697
1864.42,592.076
1865.87,593.628
1867.32,595.18
1868.78,596.215
1870.23,592.594
1871.68,601.905
1873.13,586.39
1874.58,590.524
1876.03,583.804
1877.49,575.527
1878.94,572.941
1880.39,564.147
1881.84,564.664
1883.29,573.458
1884.75,583.287
1886.2,554.318
1887.65,565.181
1889.1,571.906
1890.55,561.043
1892,556.905
1893.46,556.905
1894.91,551.732
1896.36,543.972
1897.81,533.109
1899.26,523.798
1900.72,536.73
1902.17,541.386
1903.62,534.661
1905.07,534.144
1906.52,528.454
1907.97,530.005
1909.43,523.798
1910.88,528.454
1912.33,522.246
1913.78,520.694
1915.23,519.66
1916.68,513.969
1918.14,503.628
1919.59,508.797
1921.04,515.521
1922.49,516.556
1923.94,526.902
1925.4,520.177
1926.85,509.314
1928.3,493.282
1929.75,514.487
1931.2,513.452
1932.65,506.727
1934.11,517.591
1935.56,519.142
1937.01,512.418
1938.46,503.111
1939.91,494.834
1941.37,501.559
1942.82,513.969
1944.27,521.212
1945.72,522.246
1947.17,516.556
1948.62,519.66
1950.08,519.142
1951.53,509.314
1952.98,524.315
1954.43,521.212
1955.88,517.591
1957.33,519.142
1958.79,517.591
1960.24,517.591
1961.69,518.108
1963.14,523.798
1964.59,523.798
1966.05,515.521
1967.5,518.625
1968.95,530.523
1970.4,525.35
1971.85,517.591
1973.3,515.521
1974.76,513.452
1976.21,515.004
1977.66,528.971
1979.11,539.317
1980.56,536.73
1982.02,530.523
1983.47,530.523
1984.92,534.661
1986.37,531.04
1987.82,543.455
1989.27,540.351
1990.73,537.248
1992.18,542.421
1993.63,541.386
1995.08,534.661
1996.53,549.663
1997.98,543.455
1999.44,546.559
2000.89,544.49
2002.34,531.557
2003.79,554.318
2005.24,547.593
2006.7,535.696
2008.15,533.627
2009.6,530.005
2011.05,521.729
2012.5,530.005
2013.95,529.488
2015.41,504.663
2016.86,554.835
2018.31,523.281
2019.76,512.935
2021.21,530.005
2022.67,523.798
2024.12,519.142
2025.57,518.108
2027.02,527.936
2028.47,522.763
2029.92,554.318
2031.38,524.315
2032.83,515.521
2034.28,503.628
2035.73,504.663
2037.18,513.452
2038.63,495.351
2040.09,501.559
2041.54,505.697
2042.99,498.455
2044.44,495.351
2045.89,498.972
2047.35,492.248
2048.8,498.455
2050.25,487.075
2051.7,483.454
2053.15,482.936
2054.6,481.384
2056.06,481.902
2057.51,486.04
2058.96,485.005
2060.41,471.039
2061.86,472.59
2063.32,473.625
2064.77,489.144
2066.22,480.35
2067.67,475.694
2069.12,479.315
2070.57,476.729
2072.03,472.073
2073.48,468.969
2074.93,462.245
2076.38,462.245
2077.83,463.279
2079.28,465.348
2080.74,462.245
2082.19,465.866
2083.64,463.797
2085.09,460.176
2086.54,464.314
2088,468.452
2089.45,465.348
2090.9,463.797
2092.35,463.279
2093.8,460.693
2095.25,456.037
2096.71,458.106
2098.16,458.106
2099.61,458.624
2101.06,452.933
2102.51,454.485
2103.97,467.418
2105.42,475.694
2106.87,466.383
2108.32,464.314
2109.77,460.693
2111.22,456.037
2112.68,466.383
2114.13,475.694
2115.58,463.279
2117.03,462.762
2118.48,479.833
2119.94,480.35
2121.39,473.108
2122.84,467.935
2124.29,470.521
2125.74,477.246
2127.19,479.315
2128.65,462.245
2130.1,468.969
2131.55,483.971
2133,474.142
2134.45,469.487
2135.9,477.246
2137.36,470.004
2138.81,465.866
2140.26,474.142
2141.71,485.005
2143.16,473.625
2144.62,479.833
2146.07,479.833
2147.52,477.763
2148.97,483.971
2150.42,481.902
2151.87,487.075
2153.33,493.799
2154.78,486.04
2156.23,483.971
2157.68,486.04
2159.13,490.178
2160.58,491.73
2162.04,492.765
2163.49,485.523
2164.94,482.419
2166.39,487.592
2167.84,495.869
2169.3,491.73
2170.75,486.04
2172.2,484.488
2173.65,498.455
2175.1,495.869
2176.55,490.696
2178.01,497.938
2179.46,499.49
2180.91,490.696
2182.36,491.213
2183.81,494.834
2185.27,493.799
2186.72,512.418
2188.17,517.073
2189.62,516.556
2191.07,511.9
2192.52,497.42
2193.98,505.697
2195.43,492.248
2196.88,498.972
2198.33,517.591
2199.78,514.487
2201.24,529.488
2202.69,511.383
2204.14,508.797
2205.59,512.418
2207.04,519.66
2208.49,502.076
2209.95,506.727
2211.4,518.625
2212.85,502.593
2214.3,511.9
2215.75,489.661
2217.2,502.076
2218.66,510.866
2220.11,504.663
2221.56,516.039
2223.01,516.556
2224.46,512.935
2225.92,496.903
2227.37,496.903
2228.82,499.49
2230.27,518.625
2231.72,520.177
2233.17,509.314
2234.63,523.281
2236.08,519.142
2237.53,507.762
2238.98,519.142
2240.43,521.212
2241.89,526.902
2243.34,524.315
2244.79,523.798
2246.24,532.075
2247.69,534.144
2249.14,530.005
2250.6,527.419
2252.05,524.833
2253.5,528.454
2254.95,526.385
2256.4,521.212
2257.85,534.661
2259.31,543.972
2260.76,531.557
2262.21,534.144
2263.66,532.075
2265.11,534.144
2266.57,541.903
2268.02,539.317
2269.47,535.696
2270.92,534.661
2272.37,529.488
2273.82,546.042
2275.28,538.799
2276.73,534.661
2278.18,537.248
2279.63,537.765
2281.08,546.559
2282.54,552.249
2283.99,547.593
2285.44,565.181
2286.89,561.043
2288.34,558.974
2289.79,563.112
2291.25,566.216
2292.7,561.043
2294.15,554.835
2295.6,564.147
2297.05,558.974
2298.5,568.285
2299.96,574.493
2301.41,581.735
2302.86,567.25
2304.31,556.905
2305.76,591.042
2307.22,593.628
2308.67,578.631
2310.12,575.01
2311.57,572.941
2313.02,594.145
2314.47,605.008
2315.93,587.421
2317.38,587.938
2318.83,596.732
2320.28,576.562
2321.73,581.217
2323.19,594.663
2324.64,605.008
2326.09,607.595
2327.54,610.181
2328.99,603.974
2330.44,606.56
2331.9,611.216
2333.35,610.699
2334.8,617.941
2336.25,620.01
2337.7,622.079
2339.16,620.01
2340.61,620.01
2342.06,632.425
2343.51,637.598
2344.96,636.563
2346.41,644.84
2347.87,634.494
2349.32,639.667
2350.77,659.324
2352.22,662.945
2353.67,665.014
2355.12,666.566
2356.58,668.114
2358.03,662.428
2359.48,677.425
2360.93,661.393
2362.38,672.769
2363.84,682.081
2365.29,684.15
2366.74,683.115
2368.19,693.978
2369.64,710.014
2371.09,722.947
2372.55,736.396
2374,737.431
2375.45,753.98
2376.9,753.98
2378.35,760.705
2379.8,780.879
2381.26,779.327
2382.71,786.052
2384.16,787.604
2385.61,800.019
2387.06,812.434
2388.52,808.813
2389.97,840.363
2391.42,855.882
2392.87,872.435
2394.32,885.368
2395.77,913.297
2397.23,900.369
2398.68,907.094
2400.13,937.61
2401.58,961.405
2403.03,984.166
2404.49,988.822
2405.94,1006.41
2407.39,1033.3
2408.84,1045.2
2410.29,1060.72
2411.74,1072.61
2413.2,1087.1
2414.65,1096.93
2416.1,1132.62
2417.55,1154.86
2419,1153.82
2420.46,1155.89
2421.91,1161.58
2423.36,1145.03
2424.81,1155.89
2426.26,1191.59
2427.71,1185.38
2429.17,1189
2430.62,1217.45
2432.07,1201.93
2433.52,1205.04
2434.97,1171.41
2436.42,1182.28
2437.88,1196.24
2439.33,1182.28
2440.78,1178.14
2442.23,1162.62
2443.68,1150.2
2445.14,1161.07
2446.59,1145.03
2448.04,1151.24
2449.49,1150.2
2450.94,1136.76
2452.39,1117.1
2453.85,1113.48
2455.3,1103.65
2456.75,1097.96
2458.2,1089.68
2459.65,1083.99
2461.1,1075.2
2462.56,1063.82
2464.01,1070.55
2465.46,1059.17
2466.91,1035.89
2468.36,1044.68
2469.82,1022.44
2471.27,1055.03
2472.72,1049.86
2474.17,1028.13
2475.62,1018.82
2477.07,1007.44
2478.53,1003.3
2479.98,993.99
2481.43,998.128
2482.88,1019.85
2484.33,1020.89
2485.79,1022.44
2487.24,1001.75
2488.69,1001.75
2490.14,998.646
2491.59,1011.58
2493.04,1009.51
2494.5,1008.47
2495.95,998.128
2497.4,1012.61
2498.85,1001.75
2500.3,1019.85
2501.76,1027.61
2503.21,1022.96
2504.66,1038.99
2506.11,1028.13
2507.56,1018.82
2509.01,1012.1
2510.47,1049.34
2511.92,1039.51
2513.37,1040.03
2514.82,1061.76
2516.27,1066.93
2517.72,1075.2
2519.18,1071.06
2520.63,1061.24
2522.08,1076.24
2523.53,1091.24
2524.98,1100.03
2526.44,1087.1
2527.89,1102.1
2529.34,1121.76
2530.79,1141.93
2532.24,1148.66
2533.69,1152.27
2535.15,1168.83
2536.6,1164.17
2538.05,1213.83
2539.5,1199.86
2540.95,1212.8
2542.41,1227.8
2543.86,1246.42
2545.31,1261.42
2546.76,1274.35
2548.21,1266.07
2549.66,1290.39
2551.12,1313.14
2552.57,1352.97
2554.02,1375.22
2555.47,1377.8
2556.92,1391.25
2558.37,1410.91
2559.83,1440.91
2561.28,1455.39
2562.73,1471.43
2564.18,1527.81
2565.63,1562.98
2567.09,1574.36
2568.54,1599.71
2569.99,1627.64
2571.44,1663.85
2572.89,1685.57
2574.34,1722.82
2575.8,1729.54
2577.25,1817.48
2578.7,1875.41
2580.15,1905.41
2581.6,1938
2583.06,1976.79
2584.51,2020.76
2585.96,2085.42
2587.41,2164.56
2588.86,2217.32
2590.31,2268.01
2591.77,2316.12
2593.22,2405.61
2594.67,2470.26
2596.12,2546.82
2597.57,2648.2
2599.02,2727.86
2600.48,2810.11
2601.93,2903.21
2603.38,2996.84
2604.83,3126.67
2606.28,3227.02
2607.74,3367.2
2609.19,3459.79
2610.64,3602.04
2612.09,3705.49
2613.54,3868.95
2614.99,4030.33
2616.45,4194.3
2617.9,4370.17
2619.35,4549.13
2620.8,4717.78
2622.25,4920.55
2623.71,5117.12
2625.16,5345.2
2626.61,5550.58
2628.06,5753.35
2629.51,6037.81
2630.96,6242.17
2632.42,6528.73
2633.87,6755.78
2635.32,7008.74
2636.77,7254.43
2638.22,7532.74
2639.68,7768.6
2641.13,7964.66
2642.58,8195.86
2644.03,8456.56
2645.48,8673.82
2646.93,8934
2648.39,9061.75
2649.84,9304.87
2651.29,9471.95
2652.74,9601.27
2654.19,9715.59
2655.64,9887.83
2657.1,9944.22
2658.55,10012
2660,10075.1
2661.45,10057.5
2662.9,9988.68
2664.36,9934.39
2665.81,9875.95
2667.26,9741.96
2668.71,9674.71
2670.16,9570.74
2671.61,9432.61
2673.07,9205.05
2674.52,9006.43
2675.97,8716.23
2677.42,8524.32
2678.87,8280.68
2680.32,8070.17
2681.78,7793.44
2683.23,7516.16
2684.68,7248.23
2686.13,7001.52
2687.58,6717.01
2689.04,6505.43
2690.49,6226.13
2691.94,5990.75
2693.39,5732.14
2694.84,5481.24
2696.29,5252.64
2697.75,5020.89
2699.2,4838.3
2700.65,4626.72
2702.1,4405.87
2703.55,4215
2705.01,4017.4
2706.46,3880.33
2707.91,3698.77
2709.36,3554.45
2710.81,3394.62
2712.26,3233.75
2713.72,3131.84
2715.17,3018.56
2716.62,2892.87
2718.07,2757.35
2719.52,2673.03
2720.98,2584.58
2722.43,2471.81
2723.88,2391.12
2725.33,2318.7
2726.78,2227.67
2728.23,2143.35
2729.69,2109.21
2731.14,2022.83
2732.59,1956.1
2734.04,1912.14
2735.49,1857.31
2736.94,1795.75
2738.4,1749.2
2739.85,1701.09
2741.3,1636.95
2742.75,1617.81
2744.2,1605.92
2745.66,1529.36
2747.11,1494.19
2748.56,1466.77
2750.01,1446.6
2751.46,1423.32
2752.91,1403.66
2754.37,1361.25
2755.82,1338.49
2757.27,1309.53
2758.72,1290.39
2760.17,1239.17
2761.63,1237.62
2763.08,1223.66
2764.53,1186.93
2765.98,1189.52
2767.43,1169.86
2768.88,1129.52
2770.34,1131.59
2771.79,1105.72
2773.24,1085.55
2774.69,1070.55
2776.14,1060.2
2777.59,1073.13
2779.05,1035.89
2780.5,1026.06
2781.95,1020.37
2783.4,1025.54
2784.85,1013.65
2786.31,990.886
2787.76,974.337
2789.21,973.82
2790.66,958.819
2792.11,946.921
2793.56,928.816
2795.02,927.264
2796.47,923.643
2797.92,922.608
2799.37,909.676
2800.82,909.676
2802.28,907.611
2803.73,885.368
2805.18,879.16
2806.63,880.195
2808.08,868.297
2809.53,849.157
2810.99,854.847
2812.44,852.778
2813.89,828.983
2815.34,832.087
2816.79,820.193
2818.24,828.47
2819.7,827.953
2821.15,820.193
2822.6,808.813
2824.05,803.64
2825.5,801.053
2826.96,809.33
2828.41,797.95
2829.86,805.709
2831.31,778.81
2832.76,769.499
2834.21,779.327
2835.67,784.5
2837.12,782.948
2838.57,782.431
2840.02,760.187
2841.47,773.637
2842.93,745.19
2844.38,756.049
2845.83,749.324
2847.28,740.535
2848.73,735.879
2850.18,747.777
2851.64,744.673
2853.09,748.807
2854.54,744.673
2855.99,737.948
2857.44,726.568
2858.9,744.156
2860.35,733.292
2861.8,727.085
2863.25,739.5
2864.7,728.12
2866.15,730.706
2867.61,737.948
2869.06,744.673
2870.51,739.5
2871.96,771.568
2873.41,747.777
2874.86,747.777
2876.32,728.637
2877.77,736.914
2879.22,731.223
2880.67,741.052
2882.12,753.463
2883.58,751.911
2885.03,749.324
2886.48,744.673
2887.93,723.981
2889.38,736.396
2890.83,729.671
2892.29,755.532
2893.74,744.156
2895.19,732.775
2896.64,729.671
2898.09,730.189
2899.54,732.775
2901,723.981
2902.45,725.016
2903.9,756.049
2905.35,725.533
2906.8,740.535
2908.26,741.052
2909.71,737.948
2911.16,725.533
2912.61,718.808
2914.06,709.497
2915.51,715.705
2916.97,706.911
2918.42,715.705
2919.87,710.014
2921.32,713.118
2922.77,701.738
2924.23,696.047
2925.68,687.254
2927.13,688.288
2928.58,701.738
2930.03,684.15
2931.48,683.115
2932.94,662.945
2934.39,671.735
2935.84,666.049
2937.29,661.393
2938.74,648.978
2940.2,653.117
2941.65,638.115
2943.1,619.493
2944.55,623.114
2946,626.217
2947.45,605.008
2948.91,596.215
2950.36,602.422
2951.81,609.147
2953.26,586.903
2954.71,592.076
2956.16,599.836
2957.62,586.903
2959.07,576.044
2960.52,580.183
2961.97,567.25
2963.42,566.216
2964.88,547.076
2966.33,549.145
2967.78,561.56
2969.23,552.249
2970.68,545.524
2972.13,548.628
2973.59,535.178
2975.04,532.075
2976.49,538.282
2977.94,534.661
2979.39,529.488
2980.84,526.385
2982.3,527.936
2983.75,517.591
2985.2,515.004
2986.65,504.663
2988.1,517.073
2989.56,517.591
2991.01,515.521
2992.46,519.142
2993.91,511.9
2995.36,505.697
2996.81,497.938
2998.27,501.559
2999.72,503.628
3001.17,492.248
3002.62,490.696
3004.07,486.557
3005.53,503.111
3006.98,497.938
3008.43,491.213
3009.88,491.73
3011.33,489.661
3012.78,491.213
3014.24,491.213
3015.69,473.108
3017.14,485.005
3018.59,480.867
3020.04,476.212
3021.5,485.005
3022.95,480.867
3024.4,479.315
3025.85,486.04
3027.3,484.488
3028.75,474.142
3030.21,496.903
3031.66,471.556
3033.11,481.902
3034.56,487.075
3036.01,475.694
3037.46,476.729
3038.92,479.833
3040.37,471.556
3041.82,478.798
3043.27,486.04
3044.72,468.452
3046.18,474.66
3047.63,477.763
3049.08,480.35
3050.53,481.902
3051.98,480.867
3053.43,478.281
3054.89,478.281
3056.34,479.315
3057.79,479.833
3059.24,489.144
3060.69,486.557
3062.15,485.005
3063.6,483.971
3065.05,487.592
3066.5,494.317
3067.95,488.626
3069.4,481.384
3070.86,487.075
3072.31,490.178
3073.76,490.696
3075.21,506.21
3076.66,490.178
3078.11,509.314
3079.57,507.762
3081.02,508.279
3082.47,508.279
3083.92,515.521
3085.37,517.591
3086.83,528.454
3088.28,520.177
3089.73,521.729
3091.18,522.246
3092.63,535.696
3094.08,550.18
3095.54,548.111
3096.99,551.732
3098.44,571.906
3099.89,565.699
3101.34,565.699
3102.8,590.007
3104.25,603.974
3105.7,611.733
3107.15,622.596
3108.6,618.975
3110.05,623.114
3111.51,631.908
3112.96,641.219
3114.41,671.218
3115.86,666.566
3117.31,671.735
3118.76,661.911
3120.22,687.254
3121.67,699.668
3123.12,698.634
3124.57,712.601
3126.02,731.223
3127.48,727.602
3128.93,769.499
3130.38,760.187
3131.83,753.98
3133.28,759.67
3134.73,775.706
3136.19,767.429
3137.64,772.085
3139.09,762.256
3140.54,788.121
3141.99,792.259
3143.45,797.432
3144.9,788.121
3146.35,796.915
3147.8,804.674
3149.25,819.159
3150.7,807.778
3152.16,831.569
3153.61,824.331
3155.06,807.778
3156.51,814.503
3157.96,818.641
3159.42,830.017
3160.87,804.157
3162.32,824.331
3163.77,828.47
3165.22,826.401
3166.67,839.329
3168.13,840.88
3169.58,825.883
3171.03,818.124
3172.48,836.225
3173.93,834.673
3175.38,851.226
3176.84,869.331
3178.29,868.297
3179.74,886.919
3181.19,888.471
3182.64,898.817
3184.1,924.16
3185.55,909.163
3187,927.264
3188.45,933.471
3189.9,930.368
3191.35,954.68
3192.81,947.956
3194.26,948.99
3195.71,964.509
3197.16,965.543
3198.61,955.715
3200.06,984.683
3201.52,980.028
3202.97,982.614
3204.42,961.405
3205.87,971.234
3207.32,975.889
3208.78,958.819
3210.23,973.303
3211.68,930.368
3213.13,903.473
3214.58,897.265
3216.03,878.125
3217.49,872.435
3218.94,852.261
3220.39,835.19
3221.84,813.468
3223.29,798.984
3224.75,763.291
3226.2,746.742
3227.65,738.983
3229.1,716.739
3230.55,693.978
3232,680.529
3233.46,658.29
3234.91,639.667
3236.36,626.735
3237.81,628.287
3239.26,590.007
3240.72,565.181
3242.17,560.008
3243.62,559.491
3245.07,543.972
3246.52,527.419
3247.97,506.727
3249.43,521.729
3250.88,490.696
3252.33,477.246
3253.78,473.108
3255.23,466.9
3256.68,457.072
3258.14,475.177
3259.59,458.106
3261.04,449.83
3262.49,439.484
3263.94,438.967
3265.4,430.173
3266.85,416.726
3268.3,432.242
3269.75,431.207
3271.2,417.76
3272.65,421.898
3274.11,414.656
3275.56,412.587
3277.01,410.001
3278.46,407.932
3279.91,400.69
3281.37,401.208
3282.82,408.449
3284.27,412.07
3285.72,388.276
3287.17,398.104
3288.62,395.518
3290.08,391.897
3291.53,387.759
3292.98,378.965
3294.43,394.483
3295.88,384.655
3297.33,389.828
3298.79,389.31
3300.24,398.621
3301.69,389.31
3303.14,389.828
3304.59,382.586
3306.05,410.519
3307.5,389.828
3308.95,385.69
3310.4,387.242
3311.85,381.551
3313.3,381.551
3314.76,378.448
3316.21,386.207
3317.66,383.103
3319.11,374.827
3320.56,382.069
3322.02,376.379
3323.47,378.965
3324.92,382.069
3326.37,385.173
3327.82,385.173
3329.27,381.551
3330.73,378.448
3332.18,382.069
3333.63,386.724
3335.08,369.137
3336.53,366.551
3337.98,385.69
3339.44,372.241
3340.89,372.758
3342.34,376.379
3343.79,381.551
3345.24,376.379
3346.7,373.793
3348.15,370.172
3349.6,373.793
3351.05,375.344
3352.5,363.448
3353.95,377.414
3355.41,369.655
3356.86,356.205
3358.31,366.034
3359.76,380
3361.21,372.758
3362.67,376.379
3364.12,367.585
3365.57,371.207
3367.02,374.31
3368.47,365.516
3369.92,371.724
3371.38,377.414
3372.83,371.724
3374.28,355.171
3375.73,360.344
3377.18,370.689
3378.63,373.793
3380.09,377.931
3381.54,360.344
3382.99,359.827
3384.44,359.827
3385.89,356.723
3387.35,367.068
3388.8,358.275
3390.25,363.448
3391.7,357.757
3393.15,355.689
3394.6,361.378
3396.06,366.034
3397.51,368.103
3398.96,372.758
3400.41,361.378
3401.86,359.309
3403.32,364.482
3404.77,367.068
3406.22,376.379
3407.67,357.24
3409.12,362.413
3410.57,358.275
3412.03,354.654
3413.48,346.895
3414.93,367.585
3416.38,366.034
3417.83,359.309
3419.28,358.275
3420.74,375.344
3422.19,356.723
3423.64,369.137
3425.09,362.413
3426.54,355.171
3428,344.309
3429.45,361.896
3430.9,364.482
3432.35,367.585
3433.8,368.103
3435.25,351.55
3436.71,353.619
3438.16,353.619
3439.61,366.551
3441.06,363.965
3442.51,353.619
3443.97,349.481
3445.42,345.343
3446.87,362.413
3448.32,351.55
3449.77,348.447
3451.22,351.55
3452.68,368.103
3454.13,344.826
3455.58,346.378
3457.03,364.482
3458.48,355.171
3459.94,355.689
3461.39,347.929
3462.84,354.654
3464.29,357.757
3465.74,356.205
3467.19,356.205
3468.65,342.757
3470.1,360.344
3471.55,354.654
3473,344.826
3474.45,336.032
3475.9,356.723
3477.36,364.999
3478.81,367.585
3480.26,361.896
3481.71,345.861
3483.16,355.171
3484.62,338.619
3486.07,359.827
3487.52,349.481
3488.97,341.722
3490.42,352.585
3491.87,355.171
3493.33,360.344
3494.78,352.068
3496.23,352.068
3497.68,353.619
3499.13,352.585
3500.58,357.757
3502.04,365.516
3503.49,352.068
3504.94,343.274
3506.39,339.136
3507.84,356.205
3509.3,368.62
3510.75,370.172
3512.2,350.516
3513.65,351.55
3515.1,358.792
3516.55,353.619
3518.01,359.309
3519.46,355.689
3520.91,353.102
3522.36,352.068
3523.81,354.137
3525.27,354.654
3526.72,346.895
3528.17,357.24
3529.62,349.998
3531.07,356.205
3532.52,360.861
3533.98,357.757
3535.43,362.93
3536.88,356.723
3538.33,342.757
3539.78,354.137
3541.24,357.24
3542.69,347.929
3544.14,357.757
3545.59,360.344
3547.04,352.585
3548.49,348.447
3549.95,356.205
3551.4,348.964
3552.85,343.791
3554.3,345.343
3555.75,358.792
3557.2,362.93
3558.66,349.998
3560.11,346.895
3561.56,351.033
3563.01,351.55
3564.46,353.619
3565.92,353.619
3567.37,350.516
3568.82,352.068
3570.27,352.585
3571.72,344.309
3573.17,347.929
3574.63,355.171
3576.08,353.619
3577.53,361.896
3578.98,337.584
3580.43,347.412
3581.89,344.826
3583.34,345.861
3584.79,340.688
3586.24,356.723
3587.69,345.861
3589.14,355.689
3590.6,356.205
3592.05,346.895
3593.5,347.929
3594.95,344.826
3596.4,340.688
3597.85,341.205
3599.31,353.619
3600.76,355.171
3602.21,343.274
3603.66,354.654
3605.11,333.446
3606.57,353.619
3608.02,352.585
3609.47,349.481
3610.92,352.068
3612.37,362.413
3613.82,347.929
3615.28,349.998
3616.73,342.24
3618.18,362.413
3619.63,341.205
3621.08,356.205
3622.54,352.068
3623.99,355.689
3625.44,358.792
3626.89,354.137
3628.34,343.791
3629.79,346.378
3631.25,347.412
3632.7,351.55
3634.15,347.412
3635.6,345.343
3637.05,341.722
3638.5,351.033
3639.96,347.412
3641.41,352.585
3642.86,349.481
3644.31,343.274
3645.76,352.068
3647.22,347.412
3648.67,347.929
3650.12,341.722
3651.57,344.309
3653.02,338.102
3654.47,351.033
3655.93,365.516
3657.38,351.55
3658.83,355.689
3660.28,351.033
3661.73,351.033
3663.19,344.826
3664.64,355.689
3666.09,337.584
3667.54,349.481
3668.99,351.55
3670.44,360.344
3671.9,351.033
3673.35,346.895
3674.8,361.896
3676.25,356.723
3677.7,340.688
3679.16,351.033
3680.61,351.033
3682.06,359.827
3683.51,351.55
3684.96,354.654
3686.41,354.654
3687.87,350.516
3689.32,356.205
3690.77,342.757
3692.22,357.757
3693.67,347.929
3695.12,350.516
3696.58,353.619
3698.03,357.24
3699.48,357.757
3700.93,357.24
3702.38,350.516
3703.84,361.378
3705.29,354.137
3706.74,344.826
3708.19,354.654
3709.64,371.207
3711.09,361.896
3712.55,358.275
3714,349.481
3715.45,352.068
3716.9,355.171
3718.35,359.309
3719.8,362.93
3721.26,355.171
3722.71,347.412
3724.16,355.171
3725.61,360.861
3727.06,360.861
3728.52,354.654
3729.97,352.585
3731.42,360.861
3732.87,358.275
3734.32,355.171
3735.77,368.103
3737.23,366.034
3738.68,359.309
3740.13,346.378
3741.58,363.965
3743.03,349.998
3744.49,352.585
3745.94,369.655
3747.39,359.827
3748.84,363.448
3750.29,368.103
3751.74,356.723
3753.2,357.24
3754.65,357.24
3756.1,348.447
3757.55,359.309
3759,354.654
3760.46,362.413
3761.91,365.516
3763.36,367.585
3764.81,368.62
3766.26,370.689
3767.71,352.585
3769.17,358.792
3770.62,367.068
3772.07,349.481
3773.52,354.137
3774.97,361.378
3776.42,352.068
3777.88,359.827
3779.33,360.861
3780.78,369.655
3782.23,370.689
3783.68,371.724
3785.14,379.483
3786.59,361.896
3788.04,358.275
3789.49,353.102
3790.94,368.62
3792.39,368.62
3793.85,364.999
3795.3,371.207
3796.75,373.275
3798.2,369.655
3799.65,366.034
3801.1,367.585
3802.56,345.861
3804.01,372.758
3805.46,366.551
3806.91,364.999
3808.36,377.414
3809.82,373.275
3811.27,366.034
3812.72,363.965
3814.17,365.516
3815.62,379.483
3817.07,375.344
3818.53,374.827
3819.98,391.38
3821.43,362.413
3822.88,362.93
3824.33,363.448
3825.79,374.31
3827.24,395.518
3828.69,393.966
3830.14,366.551
3831.59,381.034
3833.04,367.585
3834.5,371.724
3835.95,373.793
3837.4,378.965
3838.85,374.31
3840.3,373.275
3841.76,397.587
3843.21,357.757
3844.66,371.207
3846.11,371.724
3847.56,362.93
3849.01,394.483
3850.47,362.413
3851.92,377.414
3853.37,360.344
3854.82,367.068
3856.27,381.551
3857.72,382.069
3859.18,387.759
3860.63,386.207
3862.08,367.585
3863.53,381.551
3864.98,387.242
3866.44,400.69
3867.89,379.483
3869.34,374.827
3870.79,384.655
3872.24,386.724
3873.69,381.034
3875.15,386.724
3876.6,372.758
3878.05,378.448
3879.5,391.38
3880.95,376.896
3882.41,383.621
3883.86,391.38
3885.31,383.103
3886.76,380.517
3888.21,387.759
3889.66,389.31
3891.12,385.69
3892.57,401.208
3894.02,399.656
3895.47,403.277
3896.92,396.552
3898.37,396.035
3899.83,392.931
3901.28,387.242
3902.73,398.621
3904.18,393.449
3905.63,404.311
3907.09,399.139
3908.54,400.69
3909.99,411.553
3911.44,405.346
3912.89,406.897
3914.34,405.863
3915.8,391.38
3917.25,401.725
3918.7,420.863
3920.15,414.656
3921.6,428.103
3923.06,415.174
3924.51,399.656
3925.96,422.415
3927.41,418.795
3928.86,413.105
3930.31,436.897
3931.77,425.002
3933.22,427.071
3934.67,428.621
3936.12,426.554
3937.57,429.138
3939.02,431.207
3940.48,426.554
3941.93,421.381
3943.38,425.002
3944.83,431.724
3946.28,429.655
3947.74,431.724
3949.19,429.655
3950.64,434.311
3952.09,425.002
3953.54,420.347
3954.99,438.449
3956.45,435.345
3957.9,430.173
3959.35,456.554
3960.8,437.415
3962.25,444.139
3963.71,436.897
3965.16,439.484
3966.61,446.209
3968.06,445.174
3969.51,448.795
3970.96,440.518
3972.42,447.76
3973.87,449.312
3975.32,454.485
3976.77,449.83
3978.22,454.485
3979.68,452.933
3981.13,450.864
3982.58,464.831
3984.03,457.072
3985.48,472.073
3986.93,452.416
3988.39,466.383
3989.84,481.902
3991.29,466.383
3992.74,464.314
3994.19,459.658
3995.64,472.59
3997.1,472.59
3998.55,476.729
4000,475.177
