0.1,6.56395
1.45033,6.56395
2.90065,6.56395
4.35098,6.56395
5.80131,6.56395
7.25163,6.56395
8.70196,27.4607
10.1523,12.046
11.6026,9.4919
13.0529,10.5383
14.5033,11.7835
15.9536,10.6794
17.4039,4.2828
18.8542,0.366285
20.3046,0.288734
21.7549,2.54928
23.2052,5.27148
24.6555,4.9514
26.1059,3.53301
27.5562,1.00248
29.0065,0.233534
30.4569,4.83554
31.9072,2.27289
33.3575,2.11608
34.8078,1.84565
36.2582,1.00804
37.7085,1.96961
39.1588,0.269587
40.6091,2.08189
42.0595,5.81054
43.5098,9.11926
44.9601,10.4024
46.4104,9.837
47.8608,15.2158
49.3111,26.6004
50.7614,40.1383
52.2117,99.8498
53.6621,194.065
55.1124,335.737
56.5627,527.107
58.0131,754.85
59.4634,977.97
60.9137,1178
62.364,1318.17
63.8144,1381.28
65.2647,1497
66.715,1546.65
68.1653,1589.63
69.6157,1638.27
71.066,1684.45
72.5163,1704.71
73.9666,1698.74
75.417,1683.6
76.8673,1685.4
78.3176,1756.22
79.7679,1769.63
81.2183,1798.56
82.6686,1849.09
84.1189,1914.14
85.5693,1956.98
87.0196,1969.02
88.4699,1967.45
89.9202,1925.64
91.3706,1808.57
92.8209,1711.84
94.2712,1623.34
95.7215,1525.29
97.1719,1435.72
98.6222,1409.91
100.073,1359.62
101.523,1301.12
102.973,1247.82
104.423,1206.88
105.874,1173.95
107.324,1146.86
108.774,1133.82
110.225,1113.75
111.675,1075.3
113.125,1083.7
114.576,1100.58
116.026,1091.05
117.476,1056.93
118.927,1016.08
120.377,1027.41
121.827,1006.11
123.278,994.169
124.728,993.558
126.178,978.35
127.629,957.009
129.079,934.935
130.529,920.214
131.98,911.411
133.43,892.63
134.88,869.859
136.331,840.427
137.781,827.074
139.231,831.67
140.682,794.726
142.132,804.497
143.582,789.133
145.033,763.458
146.483,747.651
147.933,723.001
149.384,744.315
150.834,737.652
152.284,711.649
153.735,698.152
155.185,727.364
156.635,702.765
158.086,693.385
159.536,706.367
160.986,721.463
162.437,719.19
163.887,694.147
165.337,665.173
166.788,642.436
168.238,631.258
169.688,634.186
171.139,620.115
172.589,611.994
174.039,609.703
175.489,590.163
176.94,628.494
178.39,638.032
179.84,635.647
181.291,629.984
182.741,616.962
184.191,601.723
185.642,587.337
187.092,571.258
188.542,561.748
189.993,588.495
191.443,566.486
192.893,566.306
194.344,578.929
195.794,585.005
197.244,551.749
198.695,559.179
200.145,561.207
201.595,553.413
203.046,540.006
204.496,537.394
205.946,550.727
207.397,558.427
208.847,566.764
210.297,576.36
211.748,563.622
213.198,565.227
214.648,570.121
216.099,568.846
217.549,559.904
218.999,563.825
220.45,575.813
221.9,568.626
223.35,552.37
224.801,543.103
226.251,561.745
227.701,556.171
229.152,567.711
230.602,559.621
232.052,523.643
233.503,552.48
234.953,554.164
236.403,555.492
237.854,556.812
239.304,556.695
240.754,556.04
242.204,550.808
243.655,546.132
245.105,534.282
246.555,517.746
248.006,522.991
249.456,525.146
250.906,533.991
252.357,543.43
253.807,541.649
255.257,507.817
256.708,516.322
258.158,524.145
259.608,528.405
261.059,531.968
262.509,543.146
263.959,497.096
265.41,490.938
266.86,491.325
268.31,494.251
269.761,527.635
271.211,511.182
272.661,504.569
274.112,494.041
275.562,487.294
277.012,505.248
278.463,503.932
279.913,507.869
281.363,503.238
282.814,497.475
284.264,504.427
285.714,486.961
287.165,491.454
288.615,497.425
290.065,488.836
291.516,462.575
292.966,479.066
294.416,496.422
295.867,485.527
297.317,469.954
298.767,471.117
300.218,464.193
301.668,468.734
303.118,470.775
304.569,452.44
306.019,423.921
307.469,450.347
308.919,438.615
310.37,441.446
311.82,440.071
313.27,430.73
314.721,430.065
316.171,429.074
317.621,433.217
319.072,422.753
320.522,412.706
321.972,433.234
323.423,431.58
324.873,417.239
326.323,416.394
327.774,425.6
329.224,430.599
330.674,415.365
332.125,429.389
333.575,430.161
335.025,418.696
336.476,405.359
337.926,404.365
339.376,402.736
340.827,408.273
342.277,411.847
343.727,412.912
345.178,420.124
346.628,397.897
348.078,408.008
349.529,429.195
350.979,439.781
352.429,423.612
353.88,399.045
355.33,412.404
356.78,420.712
358.231,421.633
359.681,419.421
361.131,409.785
362.582,394.514
364.032,387.647
365.482,392.013
366.933,399.197
368.383,390.347
369.833,387.017
371.284,381.575
372.734,381.422
374.184,382.272
375.635,379.458
377.085,402.755
378.535,413.753
379.986,395.719
381.436,381.17
382.886,390.898
384.336,399.558
385.787,389.804
387.237,382.444
388.687,386.099
390.138,396.584
391.588,400.262
393.038,394.26
394.489,379.042
395.939,386.726
397.389,397.565
398.84,387.425
400.29,371.407
401.74,395.079
403.191,382.501
404.641,380.789
406.091,394.512
407.542,374.068
408.992,384.421
410.442,396.411
411.893,398.888
413.343,397.997
414.793,399.596
416.244,381.212
417.694,395.526
419.144,396.659
420.595,384.087
422.045,373.193
423.495,388.252
424.946,384.573
426.396,379.528
427.846,370.604
429.297,376.339
430.747,401.804
432.197,373.981
433.648,388.215
435.098,383.31
436.548,373.002
437.999,369.792
439.449,374.19
440.899,360.114
442.35,379.157
443.8,378.329
445.25,369.106
446.701,375.688
448.151,394.494
449.601,391.802
451.051,388.108
452.502,385.461
453.952,377.198
455.402,357.619
456.853,380.81
458.303,374.267
459.753,374.763
461.204,375.795
462.654,371.311
464.104,373.651
465.555,368.609
467.005,375.723
468.455,383.078
469.906,377.275
471.356,359.466
472.806,389.77
474.257,393.613
475.707,385.503
477.157,383.886
478.608,392.502
480.058,397.039
481.508,361.69
482.959,378.627
484.409,381.287
485.859,380.468
487.31,386.479
488.76,370.016
490.21,390.571
491.661,401.038
493.111,387.989
494.561,366.295
496.012,360.604
497.462,379.487
498.912,366.954
500.363,373.878
501.813,376.463
503.263,370.285
504.714,371.268
506.164,384.432
507.614,380.231
509.065,376.326
510.515,376.467
511.965,375.842
513.416,364.635
514.866,372.415
516.316,381.041
517.766,382.157
519.217,377.919
520.667,373.157
522.117,370.838
523.568,378.625
525.018,371.288
526.468,365.512
527.919,364.516
529.369,369.944
530.819,397.729
532.27,370.725
533.72,378.037
535.17,377.302
536.621,371.329
538.071,383.14
539.521,386.529
540.972,376.573
542.422,382.1
543.872,377.371
545.323,370.591
546.773,387.022
548.223,378.874
549.674,377.538
551.124,383.832
552.574,387.521
554.025,384.7
555.475,379.564
556.925,377.186
558.376,375.109
559.826,370.49
561.276,369.684
562.727,369.16
564.177,358.42
565.627,372.025
567.078,365.579
568.528,355.47
569.978,354.492
571.429,360.833
572.879,359.805
574.329,371.381
575.78,360.049
577.23,367.174
578.68,374.917
580.131,375.579
581.581,384.87
583.031,364.423
584.482,374.586
585.932,372.733
587.382,370.272
588.832,370.827
590.283,358.534
591.733,358.534
593.183,366.317
594.634,379.361
596.084,371.388
597.534,346.647
598.985,342.883
600.435,346.297
601.885,366.097
603.336,371.19
604.786,374.374
606.236,378.779
607.687,372.939
609.137,369.863
610.587,374.215
612.038,381.525
613.488,381.829
614.938,378.671
616.389,382.463
617.839,374.254
619.289,384.136
620.74,369.594
622.19,366.642
623.64,371.693
625.091,359.452
626.541,357.396
627.991,370.751
629.442,386.103
630.892,388.381
632.342,378.176
633.793,366.395
635.243,364.681
636.693,386.074
638.144,384.398
639.594,375.391
641.044,372.709
642.495,380.947
643.945,390.322
645.395,361.842
646.846,383.567
648.296,393.617
649.746,392.559
651.197,390.762
652.647,386.442
654.097,387.816
655.547,394.685
656.998,395.04
658.448,388.609
659.898,382.828
661.349,384.931
662.799,380.462
664.249,391.227
665.7,394.362
667.15,387.699
668.6,389.287
670.051,406.93
671.501,396.955
672.951,393.858
674.402,397.771
675.852,401.553
677.302,393.982
678.753,381.978
680.203,394.834
681.653,399.663
683.104,404.185
684.554,394.523
686.004,394.123
687.455,399.884
688.905,390.201
690.355,397.442
691.806,409.961
693.256,398.044
694.706,402.123
696.157,409.148
697.607,401.881
699.057,416.104
700.508,400.896
701.958,394.788
703.408,395.124
704.859,396.721
706.309,392.1
707.759,381.15
709.21,410.178
710.66,408.538
712.11,403.692
713.561,398.702
715.011,398.69
716.461,404.731
717.912,404.489
719.362,394.792
720.812,415.787
722.263,419.249
723.713,419.635
725.163,418.544
726.613,396.332
728.064,401.179
729.514,393.294
730.964,397.848
732.415,413.996
733.865,415.023
735.315,396.54
736.766,413.596
738.216,410.819
739.666,403.828
741.117,407.686
742.567,415.998
744.017,419.578
745.468,412.886
746.918,394.473
748.368,396.142
749.819,405.194
751.269,431.842
752.719,435.669
754.17,413.234
755.62,426.683
757.07,442.334
758.521,433.968
759.971,418.611
761.421,404.137
762.872,408.768
764.322,428.521
765.772,408.902
767.223,401.591
768.673,424.258
770.123,422.119
771.574,406.049
773.024,404.489
774.474,425.342
775.925,414.551
777.375,433.026
778.825,418.896
780.276,419.667
781.726,422.127
783.176,421.118
784.627,432.176
786.077,420.66
787.527,438.128
788.978,432.241
790.428,426.539
791.878,424.794
793.328,425.1
794.779,430.307
796.229,432.403
797.68,417.785
799.13,418.425
800.58,427.984
802.03,438.125
803.481,436.341
804.931,411.581
806.381,419.623
807.832,433.461
809.282,439.394
810.732,437.245
812.183,432.745
813.633,426.953
815.083,413.087
816.534,426.04
817.984,415.116
819.434,434.282
820.885,441.211
822.335,437.268
823.785,446.501
825.236,464.451
826.686,448.327
828.136,456.703
829.587,475.371
831.037,466.891
832.487,451.04
833.938,449.959
835.388,433.806
836.838,470.65
838.289,456.821
839.739,445.58
841.189,441.112
842.64,445.461
844.09,451.73
845.54,443.268
846.991,462.237
848.441,449.251
849.891,469.795
851.342,464.654
852.792,440.98
854.242,436.422
855.693,456.741
857.143,432.122
858.593,462.683
860.044,476.398
861.494,483.298
862.944,474.371
864.394,458.917
865.845,464.454
867.295,450.371
868.745,464.279
870.196,457.622
871.646,457.28
873.096,454.1
874.547,444.391
875.997,444.44
877.447,471.463
878.898,476.045
880.348,449.328
881.798,446.582
883.249,443.639
884.699,445.438
886.149,464.369
887.6,458.793
889.05,454.2
890.5,458.612
891.951,467.095
893.401,468.23
894.851,479.551
896.302,495.691
897.752,473.285
899.202,462.33
900.653,451.021
902.103,480.138
903.553,478.169
905.004,465.581
906.454,466.726
907.904,472.253
909.355,472.279
910.805,462.361
912.255,488.48
913.706,501.982
915.156,492.223
916.606,489.687
918.057,505.449
919.507,492.625
920.957,473.121
922.408,501.866
923.858,495.139
925.308,477.458
926.759,479.435
928.209,495.513
929.659,494.615
931.109,479.919
932.56,490.928
934.01,476.56
935.46,487.862
936.911,493.423
938.361,500.231
939.811,512.393
941.262,494.893
942.712,496.669
944.162,473.515
945.613,501.814
947.063,489.564
948.513,469.73
949.964,471.795
951.414,490.913
952.864,530.063
954.315,516.909
955.765,491.546
957.215,504.198
958.666,503.901
960.116,495.111
961.566,487.904
963.017,477.036
964.467,491.871
965.917,493.654
967.368,506.195
968.818,497.924
970.268,491.824
971.719,498.27
973.169,504.435
974.619,493.005
976.07,479.753
977.52,508.268
978.97,509.179
980.421,508.417
981.871,511.823
983.321,499.677
984.772,477.898
986.222,493.395
987.672,505.186
989.123,516.61
990.573,510.834
992.023,505.405
993.474,505.258
994.924,506.198
996.374,500.458
997.825,489.118
999.275,513.086
1000.73,526.485
1002.18,532.811
1003.63,534.577
1005.08,520.422
1006.53,515.503
1007.98,535.156
1009.43,541.752
1010.88,551.781
1012.33,551.552
1013.78,542.397
1015.23,534.174
1016.68,543.801
1018.13,554.687
1019.58,554.336
1021.03,562.888
1022.48,553.966
1023.93,559.348
1025.38,572.787
1026.83,573.725
1028.28,570.469
1029.73,562.849
1031.18,563.791
1032.63,592.667
1034.08,591.371
1035.53,570.898
1036.98,607.083
1038.43,605.546
1039.88,613.708
1041.33,625.215
1042.78,633.089
1044.23,644.691
1045.69,605.508
1047.14,636.803
1048.59,624.929
1050.04,623.527
1051.49,632.786
1052.94,639.923
1054.39,654.918
1055.84,672.898
1057.29,641.815
1058.74,648.657
1060.19,656.913
1061.64,660.634
1063.09,672.728
1064.54,691.282
1065.99,700.693
1067.44,703.869
1068.89,722.532
1070.34,729.665
1071.79,717.402
1073.24,717.232
1074.69,727.807
1076.14,714.789
1077.59,717.27
1079.04,750.392
1080.49,771.455
1081.94,749.709
1083.39,741.764
1084.84,761.401
1086.29,734.46
1087.74,723.391
1089.2,716.442
1090.65,719.399
1092.1,733.423
1093.55,735.326
1095,734.739
1096.45,736.187
1097.9,727.168
1099.35,723.793
1100.8,718.329
1102.25,729.402
1103.7,739.004
1105.15,729.027
1106.6,727.742
1108.05,717.826
1109.5,715.649
1110.95,734.362
1112.4,727.111
1113.85,707.309
1115.3,704.129
1116.75,714.674
1118.2,710.563
1119.65,685.619
1121.1,679.954
1122.55,690.111
1124,683.625
1125.45,688.638
1126.9,683.217
1128.35,684.419
1129.8,690.873
1131.25,681.253
1132.7,674.062
1134.16,679.825
1135.61,664.203
1137.06,664.521
1138.51,666.244
1139.96,660.379
1141.41,675.909
1142.86,683.544
1144.31,656.114
1145.76,679.603
1147.21,680.723
1148.66,684.729
1150.11,662.575
1151.56,658.233
1153.01,644.992
1154.46,650.191
1155.91,670.156
1157.36,672.524
1158.81,667.533
1160.26,651.6
1161.71,649.775
1163.16,653.597
1164.61,649.911
1166.06,654.081
1167.51,658.398
1168.96,654.392
1170.41,655.993
1171.86,673.719
1173.31,653.38
1174.76,684.762
1176.21,658.016
1177.66,667.422
1179.12,663.693
1180.57,652.997
1182.02,642.281
1183.47,645.872
1184.92,667.884
1186.37,659.445
1187.82,670.054
1189.27,654.338
1190.72,678.286
1192.17,691.898
1193.62,698.071
1195.07,695.455
1196.52,691.905
1197.97,689.769
1199.42,678.802
1200.87,696.557
1202.32,695.457
1203.77,701.314
1205.22,686.175
1206.67,687.256
1208.12,678.759
1209.57,667.883
1211.02,675.255
1212.47,694.05
1213.92,702.749
1215.37,699.898
1216.82,699.898
1218.27,697.21
1219.72,692.799
1221.17,692.072
1222.63,697.391
1224.08,693.297
1225.53,699.677
1226.98,736.983
1228.43,720.413
1229.88,688.777
1231.33,715.988
1232.78,703.494
1234.23,736.09
1235.68,732.107
1237.13,730.108
1238.58,721.606
1240.03,699.28
1241.48,713.332
1242.93,730.821
1244.38,736.079
1245.83,718.033
1247.28,725.214
1248.73,737.495
1250.18,727.278
1251.63,751.625
1253.08,785.791
1254.53,773.124
1255.98,740.767
1257.43,756.866
1258.88,789.389
1260.33,773.526
1261.78,771.919
1263.23,780.843
1264.68,785.415
1266.13,788.141
1267.59,783.695
1269.04,785.112
1270.49,806.579
1271.94,824.9
1273.39,857.102
1274.84,834.164
1276.29,849.086
1277.74,883.957
1279.19,875.232
1280.64,867.941
1282.09,875.855
1283.54,878.459
1284.99,889.227
1286.44,935.669
1287.89,947.925
1289.34,957.585
1290.79,970.913
1292.24,990.276
1293.69,1001.96
1295.14,1033.07
1296.59,1077.87
1298.04,1097.62
1299.49,1104.32
1300.94,1132.93
1302.39,1161.9
1303.84,1222.46
1305.29,1208.37
1306.74,1212.77
1308.19,1295.33
1309.64,1358.65
1311.09,1382.74
1312.55,1421.94
1314,1463.14
1315.45,1497.53
1316.9,1554.65
1318.35,1608.26
1319.8,1706.48
1321.25,1749.57
1322.7,1800.28
1324.15,1883.79
1325.6,1925.41
1327.05,1970.85
1328.5,2016.9
1329.95,2040.76
1331.4,2042.15
1332.85,2057.99
1334.3,2117.19
1335.75,2101.72
1337.2,2074.92
1338.65,2044.08
1340.1,2042.05
1341.55,2047.41
1343,1971.72
1344.45,1924.25
1345.9,1905.9
1347.35,1846.96
1348.8,1781.04
1350.25,1774.68
1351.7,1735.04
1353.15,1650.53
1354.6,1586.77
1356.06,1532.82
1357.51,1505.83
1358.96,1444.81
1360.41,1387.17
1361.86,1351.68
1363.31,1292.71
1364.76,1227.23
1366.21,1228.25
1367.66,1217.4
1369.11,1166.73
1370.56,1179.07
1372.01,1133.36
1373.46,1128.51
1374.91,1109.11
1376.36,1089.72
1377.81,1076.92
1379.26,1067.57
1380.71,1046.58
1382.16,1018.73
1383.61,1014.6
1385.06,1016.65
1386.51,1031.59
1387.96,999.394
1389.41,1031.92
1390.86,1018.31
1392.31,992.899
1393.76,975.998
1395.21,977.161
1396.66,971.472
1398.11,968.412
1399.56,982.868
1401.02,983.653
1402.47,1002.21
1403.92,1011.8
1405.37,965.985
1406.82,981.789
1408.27,967.907
1409.72,973.464
1411.17,965.515
1412.62,966.443
1414.07,981.612
1415.52,983.617
1416.97,990.055
1418.42,1020.7
1419.87,996.434
1421.32,1021.54
1422.77,1029.8
1424.22,1004.96
1425.67,1025.89
1427.12,1020.56
1428.57,1022.02
1430.02,1012.99
1431.47,1014.28
1432.92,1026.24
1434.37,1049.2
1435.82,1060.15
1437.27,1019.67
1438.72,1049.36
1440.17,1060.81
1441.62,1039.32
1443.07,1119.46
1444.53,1103.43
1445.98,1102.97
1447.43,1110.1
1448.88,1107.48
1450.33,1106.76
1451.78,1132.88
1453.23,1156.75
1454.68,1158.52
1456.13,1184.89
1457.58,1175
1459.03,1206.42
1460.48,1199.99
1461.93,1216.61
1463.38,1212.83
1464.83,1221.04
1466.28,1270.95
1467.73,1305.38
1469.18,1305.02
1470.63,1298.16
1472.08,1316.63
1473.53,1347.18
1474.98,1353.23
1476.43,1360.1
1477.88,1380.66
1479.33,1442.81
1480.78,1424.98
1482.23,1429.62
1483.68,1512.36
1485.13,1520.92
1486.58,1549.38
1488.03,1585.27
1489.49,1580.61
1490.94,1618.58
1492.39,1683.65
1493.84,1705.28
1495.29,1777.73
1496.74,1754.01
1498.19,1764.72
1499.64,1879.6
1501.09,1911.49
1502.54,1959.31
1503.99,2012.26
1505.44,2061.97
1506.89,2122.64
1508.34,2188.18
1509.79,2284.91
1511.24,2365.18
1512.69,2445.11
1514.14,2591.88
1515.59,2720.63
1517.04,2805.94
1518.49,2919.7
1519.94,3027.88
1521.39,3259.55
1522.84,3422.81
1524.29,3611.88
1525.74,3824.35
1527.19,4062.16
1528.64,4330.73
1530.09,4625.1
1531.54,4965.02
1532.99,5357.77
1534.45,5745.3
1535.9,6173.41
1537.35,6800.31
1538.8,7419.92
1540.25,8111.67
1541.7,8753.09
1543.15,9463.96
1544.6,10314.1
1546.05,11213.2
1547.5,12237.7
1548.95,13196.4
1550.4,14107
1551.85,15105.2
1553.3,16117.5
1554.75,17126.4
1556.2,18174.1
1557.65,19136.2
1559.1,19167.1
1560.55,19190
1562,19234.1
1563.45,19247.2
1564.9,19257
1566.35,19245.6
1567.8,19240.7
1569.25,19255.4
1570.7,19252.1
1572.15,18632.5
1573.6,17668.3
1575.05,16671.8
1576.5,15667.1
1577.96,14569.8
1579.41,13446.3
1580.86,12422.5
1582.31,11474.8
1583.76,10487
1585.21,9633.02
1586.66,8807.97
1588.11,8102.74
1589.56,7488.53
1591.01,6886.21
1592.46,6385.18
1593.91,5975.28
1595.36,5543.16
1596.81,5180.8
1598.26,4810.41
1599.71,4533.26
1601.16,4346.19
1602.61,4128.06
1604.06,3928.52
1605.51,3759.39
1606.96,3580.76
1608.41,3397.63
1609.86,3254.61
1611.31,3083.75
1612.76,3020.88
1614.21,2821.18
1615.66,2746.25
1617.11,2630.19
1618.56,2560.37
1620.01,2449.27
1621.46,2359.1
1622.92,2268.52
1624.37,2197.11
1625.82,2145.79
1627.27,2083.47
1628.72,2035.43
1630.17,1971.6
1631.62,1934.12
1633.07,1886.7
1634.52,1851.77
1635.97,1791.49
1637.42,1788.11
1638.87,1736.53
1640.32,1691.19
1641.77,1683.3
1643.22,1661.75
1644.67,1636.32
1646.12,1609.8
1647.57,1603.66
1649.02,1579.89
1650.47,1544.67
1651.92,1537.59
1653.37,1534.2
1654.82,1498.67
1656.27,1477.13
1657.72,1471.13
1659.17,1441.17
1660.62,1414.67
1662.07,1420.67
1663.52,1450.7
1664.97,1436.03
1666.42,1416.77
1667.88,1404.25
1669.33,1392.66
1670.78,1373.8
1672.23,1344.59
1673.68,1351.97
1675.13,1348.32
1676.58,1345.6
1678.03,1326.86
1679.48,1310.35
1680.93,1321.36
1682.38,1318.67
1683.83,1308.01
1685.28,1294.22
1686.73,1303.42
1688.18,1300.51
1689.63,1296.27
1691.08,1284.54
1692.53,1262.5
1693.98,1260.5
1695.43,1283.45
1696.88,1297.6
1698.33,1287.64
1699.78,1290.92
1701.23,1271.61
1702.68,1276.12
1704.13,1260.24
1705.58,1273.47
1707.03,1273.12
1708.48,1243.89
1709.93,1272.82
1711.39,1272.3
1712.84,1271.12
1714.29,1265.6
1715.74,1284.35
1717.19,1299.01
1718.64,1272.42
1720.09,1274.59
1721.54,1279.28
1722.99,1247.23
1724.44,1253.21
1725.89,1288.48
1727.34,1300.25
1728.79,1300.41
1730.24,1268.84
1731.69,1247.46
1733.14,1300.53
1734.59,1258.73
1736.04,1248.56
1737.49,1280.09
1738.94,1253.78
1740.39,1249.89
1741.84,1274.06
1743.29,1252.19
1744.74,1243.86
1746.19,1222.56
1747.64,1211.03
1749.09,1229.07
1750.54,1211.15
1751.99,1208.47
1753.44,1227.19
1754.89,1211.65
1756.35,1209.03
1757.8,1237.6
1759.25,1230.51
1760.7,1215.36
1762.15,1220.76
1763.6,1192.08
1765.05,1194.07
1766.5,1213.14
1767.95,1205.18
1769.4,1170.22
1770.85,1166.22
1772.3,1157.21
1773.75,1176.81
1775.2,1168.79
1776.65,1166.93
1778.1,1169.1
1779.55,1175.88
1781,1168.45
1782.45,1172.76
1783.9,1168.08
1785.35,1183.4
1786.8,1187.6
1788.25,1182.58
1789.7,1171.17
1791.15,1167.34
1792.6,1183.85
1794.05,1180.24
1795.5,1174.11
1796.95,1169.47
1798.4,1175.71
1799.85,1188.32
1801.31,1154.17
1802.76,1154.12
1804.21,1130.15
1805.66,1164.04
1807.11,1106.73
1808.56,1130.82
1810.01,1142.39
1811.46,1143.85
1812.91,1115.31
1814.36,1151.46
1815.81,1175.3
1817.26,1185.26
1818.71,1184.09
1820.16,1169.44
1821.61,1158.26
1823.06,1144.41
1824.51,1154.81
1825.96,1158
1827.41,1146.21
1828.86,1165.62
1830.31,1175.13
1831.76,1165.56
1833.21,1176.41
1834.66,1161.46
1836.11,1161.07
1837.56,1146.73
1839.01,1182.67
1840.46,1209.39
1841.91,1158.62
1843.36,1173.49
1844.82,1193.17
1846.27,1175.43
1847.72,1191.53
1849.17,1202.19
1850.62,1191.41
1852.07,1194.83
1853.52,1221.46
1854.97,1222.36
1856.42,1199.99
1857.87,1190.26
1859.32,1225.43
1860.77,1240.91
1862.22,1225.99
1863.67,1209.62
1865.12,1216.54
1866.57,1221.73
1868.02,1208.14
1869.47,1187.38
1870.92,1177.04
1872.37,1193.9
1873.82,1209.68
1875.27,1197.25
1876.72,1181.63
1878.17,1194.17
1879.62,1182.57
1881.07,1172.78
1882.52,1158.8
1883.97,1161.89
1885.42,1163.07
1886.87,1173.5
1888.32,1169.44
1889.78,1154.22
1891.23,1164.54
1892.68,1159.31
1894.13,1168.07
1895.58,1159.36
1897.03,1171.27
1898.48,1169.59
1899.93,1141.46
1901.38,1145.09
1902.83,1136.34
1904.28,1128.62
1905.73,1135.66
1907.18,1153.31
1908.63,1153.2
1910.08,1140.71
1911.53,1122.17
1912.98,1105.76
1914.43,1117.76
1915.88,1126.88
1917.33,1107.1
1918.78,1107.57
1920.23,1128.71
1921.68,1130.66
1923.13,1128.73
1924.58,1125.15
1926.03,1114.52
1927.48,1118.04
1928.93,1131.07
1930.38,1125.2
1931.83,1120.35
1933.29,1089.03
1934.74,1123.3
1936.19,1131.45
1937.64,1087.61
1939.09,1106.35
1940.54,1094.99
1941.99,1120.36
1943.44,1123.1
1944.89,1124.31
1946.34,1126.71
1947.79,1101.08
1949.24,1124.84
1950.69,1106.37
1952.14,1135.49
1953.59,1141.86
1955.04,1120.62
1956.49,1135.31
1957.94,1128.72
1959.39,1113.73
1960.84,1127.05
1962.29,1122.87
1963.74,1133.17
1965.19,1140.78
1966.64,1139.62
1968.09,1160.12
1969.54,1171.42
1970.99,1174.01
1972.44,1179.85
1973.89,1157.04
1975.34,1157.36
1976.79,1169.5
1978.25,1167.38
1979.7,1152.79
1981.15,1154.72
1982.6,1163.69
1984.05,1151.51
1985.5,1161.7
1986.95,1153.44
1988.4,1138.55
1989.85,1169.16
1991.3,1159.7
1992.75,1160.44
1994.2,1165.02
1995.65,1172.54
1997.1,1176.29
1998.55,1166.92
2000,1156.32
2001.45,1176.81
2002.9,1163.13
2004.35,1153.83
2005.8,1160.7
2007.25,1170.38
2008.7,1176.88
2010.15,1178.52
2011.6,1184.92
2013.05,1147.3
2014.5,1139.18
2015.95,1155.28
2017.4,1140.71
2018.85,1113.86
2020.3,1154.5
2021.75,1158.86
2023.21,1120.72
2024.66,1150.21
2026.11,1136.6
2027.56,1152.35
2029.01,1158.09
2030.46,1128.61
2031.91,1131.45
2033.36,1113.55
2034.81,1126.48
2036.26,1147.04
2037.71,1134.37
2039.16,1136.16
2040.61,1149.54
2042.06,1117.4
2043.51,1095.89
2044.96,1111.62
2046.41,1079.52
2047.86,1097.18
2049.31,1111.91
2050.76,1097.53
2052.21,1095.25
2053.66,1121.81
2055.11,1128.14
2056.56,1103.72
2058.01,1093.99
2059.46,1116.89
2060.91,1119.52
2062.36,1104.82
2063.81,1093.03
2065.26,1080.36
2066.72,1084.59
2068.17,1101.11
2069.62,1070.33
2071.07,1075.17
2072.52,1106.88
2073.97,1104.4
2075.42,1094.85
2076.87,1097.26
2078.32,1092.41
2079.77,1072.34
2081.22,1087.7
2082.67,1106.83
2084.12,1101.76
2085.57,1076.8
2087.02,1078.46
2088.47,1057.57
2089.92,1056.19
2091.37,1066.23
2092.82,1084.68
2094.27,1111.98
2095.72,1096.6
2097.17,1087.25
2098.62,1091.08
2100.07,1075.9
2101.52,1062.79
2102.97,1073.28
2104.42,1062.68
2105.87,1080.75
2107.32,1088.15
2108.77,1092.97
2110.22,1095.17
2111.68,1103.58
2113.13,1089.98
2114.58,1083.25
2116.03,1101.71
2117.48,1102.41
2118.93,1084.88
2120.38,1105.08
2121.83,1103.76
2123.28,1071.67
2124.73,1091.32
2126.18,1104.91
2127.63,1097.05
2129.08,1101.08
2130.53,1109.23
2131.98,1116.78
2133.43,1116.03
2134.88,1115.94
2136.33,1109.08
2137.78,1118.4
2139.23,1118.02
2140.68,1116.38
2142.13,1105.47
2143.58,1103.68
2145.03,1140.33
2146.48,1142.4
2147.93,1128.86
2149.38,1113.8
2150.83,1116.17
2152.28,1133.16
2153.73,1133.98
2155.18,1120.12
2156.64,1126.73
2158.09,1128.1
2159.54,1124.18
2160.99,1137.54
2162.44,1139.42
2163.89,1140.59
2165.34,1130.34
2166.79,1137.6
2168.24,1173.2
2169.69,1163.63
2171.14,1148.26
2172.59,1149.72
2174.04,1152.07
2175.49,1160.99
2176.94,1164.02
2178.39,1155.04
2179.84,1156.76
2181.29,1158.13
2182.74,1165.31
2184.19,1162.88
2185.64,1154.24
2187.09,1162.19
2188.54,1172.24
2189.99,1172.59
2191.44,1165.41
2192.89,1179.21
2194.34,1178.7
2195.79,1178.46
2197.24,1189.05
2198.69,1185.29
2200.15,1168.02
2201.6,1170.26
2203.05,1170.95
2204.5,1196.54
2205.95,1190.18
2207.4,1195.55
2208.85,1185.01
2210.3,1193.95
2211.75,1206.11
2213.2,1210.49
2214.65,1199.85
2216.1,1199.98
2217.55,1209.21
2219,1217.03
2220.45,1184.69
2221.9,1213.22
2223.35,1228.66
2224.8,1226.34
2226.25,1206.1
2227.7,1185.36
2229.15,1221.86
2230.6,1240.8
2232.05,1239.99
2233.5,1210.58
2234.95,1219.54
2236.4,1219.75
2237.85,1225.14
2239.3,1196.2
2240.75,1204.37
2242.2,1232.17
2243.65,1249.47
2245.11,1217.76
2246.56,1246.73
2248.01,1235.64
2249.46,1231.99
2250.91,1256.78
2252.36,1244.07
2253.81,1235.4
2255.26,1249.34
2256.71,1230.35
2258.16,1243.23
2259.61,1259.66
2261.06,1251.31
2262.51,1220.83
2263.96,1256.07
2265.41,1268.14
2266.86,1250.24
2268.31,1226.75
2269.76,1246.19
2271.21,1272.84
2272.66,1258.97
2274.11,1257.02
2275.56,1238.58
2277.01,1241.64
2278.46,1278.23
2279.91,1278.79
2281.36,1303.33
2282.81,1310.16
2284.26,1267.4
2285.71,1266.78
2287.16,1286.37
2288.61,1306.73
2290.07,1287.95
2291.52,1266.27
2292.97,1295.84
2294.42,1303.39
2295.87,1309.1
2297.32,1312.24
2298.77,1279.87
2300.22,1312.36
2301.67,1358.11
2303.12,1356.43
2304.57,1336.98
2306.02,1313.14
2307.47,1321.6
2308.92,1317.55
2310.37,1335.8
2311.82,1330.4
2313.27,1349.17
2314.72,1322.08
2316.17,1362.87
2317.62,1335.48
2319.07,1350.27
2320.52,1373.81
2321.97,1354.86
2323.42,1359.28
2324.87,1400.22
2326.32,1371.1
2327.77,1376.2
2329.22,1366.1
2330.67,1404.74
2332.12,1410.44
2333.57,1415.16
2335.03,1418.76
2336.48,1383.29
2337.93,1381.25
2339.38,1409.99
2340.83,1438.81
2342.28,1428.05
2343.73,1441.89
2345.18,1428.03
2346.63,1447.88
2348.08,1469.91
2349.53,1471.88
2350.98,1468.2
2352.43,1491.13
2353.88,1482.93
2355.33,1488.71
2356.78,1492.88
2358.23,1521.67
2359.68,1506.2
2361.13,1525.85
2362.58,1568.22
2364.03,1578.15
2365.48,1547.14
2366.93,1555.28
2368.38,1592.91
2369.83,1594.92
2371.28,1586.23
2372.73,1596.9
2374.18,1646.31
2375.63,1664.25
2377.08,1674.38
2378.54,1682.88
2379.99,1683.29
2381.44,1697.89
2382.89,1747.9
2384.34,1763.76
2385.79,1750.68
2387.24,1768.14
2388.69,1806.62
2390.14,1835.37
2391.59,1868.81
2393.04,1867.32
2394.49,1876.4
2395.94,1908.97
2397.39,1894.06
2398.84,1900.83
2400.29,1988.58
2401.74,2025.21
2403.19,2034.01
2404.64,2043.34
2406.09,2048.62
2407.54,2106.27
2408.99,2085.47
2410.44,2102.8
2411.89,2095.7
2413.34,2149.6
2414.79,2175.08
2416.24,2136.88
2417.69,2188.72
2419.14,2177.26
2420.59,2197.27
2422.04,2210.78
2423.5,2200.04
2424.95,2221.96
2426.4,2239.3
2427.85,2236.65
2429.3,2206.69
2430.75,2201.69
2432.2,2179.58
2433.65,2192.38
2435.1,2200.87
2436.55,2219.41
2438,2163.57
2439.45,2177.26
2440.9,2183.85
2442.35,2176.41
2443.8,2138.3
2445.25,2127.9
2446.7,2160.66
2448.15,2132.84
2449.6,2121.03
2451.05,2133.35
2452.5,2102
2453.95,2116.28
2455.4,2100.35
2456.85,2082.57
2458.3,2048.85
2459.75,2000.07
2461.2,2015.51
2462.65,2016.51
2464.1,2026.57
2465.55,2042.67
2467.01,2060.1
2468.46,2007.56
2469.91,2056.49
2471.36,2050.73
2472.81,2019.99
2474.26,2004.03
2475.71,1993.53
2477.16,2042.13
2478.61,2026.21
2480.06,2012.8
2481.51,2023.16
2482.96,1988.17
2484.41,2014.76
2485.86,2003.39
2487.31,2012.8
2488.76,2011.47
2490.21,2017.73
2491.66,2001.86
2493.11,2016.03
2494.56,2059.74
2496.01,2035.07
2497.46,2042.97
2498.91,2039.3
2500.36,2077.75
2501.81,2065.01
2503.26,2057.26
2504.71,2092.99
2506.16,2110
2507.61,2085.63
2509.06,2106.46
2510.51,2107.49
2511.97,2095.77
2513.42,2069.18
2514.87,2134.3
2516.32,2132.74
2517.77,2119.09
2519.22,2148.83
2520.67,2155.44
2522.12,2151.81
2523.57,2188.95
2525.02,2251.04
2526.47,2268.59
2527.92,2273.39
2529.37,2277.37
2530.82,2325.8
2532.27,2343.99
2533.72,2340.11
2535.17,2360.29
2536.62,2367.57
2538.07,2418.64
2539.52,2397.22
2540.97,2447.53
2542.42,2475.66
2543.87,2479.77
2545.32,2534.48
2546.77,2523.95
2548.22,2596.36
2549.67,2659.12
2551.12,2685.73
2552.57,2703.95
2554.02,2706.92
2555.48,2720.95
2556.93,2775.39
2558.38,2840.88
2559.83,2875.11
2561.28,2909.66
2562.73,2952.03
2564.18,3058.23
2565.63,3070.85
2567.08,3151.1
2568.53,3181.12
2569.98,3325.19
2571.43,3383.08
2572.88,3429.91
2574.33,3486.72
2575.78,3569.35
2577.23,3634.94
2578.68,3710.38
2580.13,3803.01
2581.58,3850.9
2583.03,3901.2
2584.48,4035.03
2585.93,4137.8
2587.38,4226.01
2588.83,4405.6
2590.28,4465.92
2591.73,4553.97
2593.18,4731.25
2594.63,4901.38
2596.08,5014.43
2597.53,5173.54
2598.98,5386.11
2600.44,5536.78
2601.89,5689.7
2603.34,5888.89
2604.79,6095.97
2606.24,6238.9
2607.69,6478.8
2609.14,6689.28
2610.59,6944.92
2612.04,7134.79
2613.49,7458.05
2614.94,7620.83
2616.39,7835.26
2617.84,8218.9
2619.29,8446.23
2620.74,8741.48
2622.19,9106.83
2623.64,9407.4
2625.09,9647.52
2626.54,9941.46
2627.99,10240.1
2629.44,10592.2
2630.89,10822.1
2632.34,11135.9
2633.79,11490.5
2635.24,11810.2
2636.69,12151.6
2638.14,12390.1
2639.59,12622.1
2641.04,12942.2
2642.49,13235.9
2643.94,13433.8
2645.4,13638.1
2646.85,13784.4
2648.3,13967.4
2649.75,14076.6
2651.2,14163.2
2652.65,14214.8
2654.1,14120.6
2655.55,14150.5
2657,14217.3
2658.45,14103.4
2659.9,14070.6
2661.35,14015.3
2662.8,13881.5
2664.25,13633.2
2665.7,13422.3
2667.15,13261.2
2668.6,13029.3
2670.05,12650.7
2671.5,12307.8
2672.95,12175.3
2674.4,11741.1
2675.85,11546
2677.3,11171.7
2678.75,10832.8
2680.2,10520.4
2681.65,10117.2
2683.1,9845.05
2684.55,9557.44
2686,9288.89
2687.45,8951.42
2688.91,8557.6
2690.36,8264.62
2691.81,7910.14
2693.26,7612.11
2694.71,7360.07
2696.16,7105.91
2697.61,6732.56
2699.06,6604.11
2700.51,6421.94
2701.96,6189.83
2703.41,5946.22
2704.86,5711.41
2706.31,5499.4
2707.76,5314.29
2709.21,5111.69
2710.66,4896.56
2712.11,4735.38
2713.56,4602.71
2715.01,4459.89
2716.46,4439.68
2717.91,4225
2719.36,4126.75
2720.81,3985.53
2722.26,3817.36
2723.71,3771.21
2725.16,3698.11
2726.61,3567.26
2728.06,3490.17
2729.51,3460.08
2730.96,3321.18
2732.41,3291.75
2733.87,3209.33
2735.32,3091
2736.77,3055.99
2738.22,2987.18
2739.67,2961.08
2741.12,2893.34
2742.57,2849.29
2744.02,2832.58
2745.47,2699.99
2746.92,2708.28
2748.37,2651.4
2749.82,2638.66
2751.27,2580.51
2752.72,2526.52
2754.17,2542.1
2755.62,2461.89
2757.07,2407.81
2758.52,2411.62
2759.97,2379.95
2761.42,2355.26
2762.87,2358.92
2764.32,2288.39
2765.77,2285.22
2767.22,2286.56
2768.67,2239.51
2770.12,2212.66
2771.57,2216.4
2773.02,2177.86
2774.47,2175.55
2775.92,2150.47
2777.38,2140.45
2778.83,2119.56
2780.28,2097.73
2781.73,2070.5
2783.18,2024.11
2784.63,2077.96
2786.08,2010.11
2787.53,2020.33
2788.98,2009.48
2790.43,1982.15
2791.88,1984.41
2793.33,1972.01
2794.78,1929.61
2796.23,1955.74
2797.68,1919.32
2799.13,1953.4
2800.58,1912.8
2802.03,1897.57
2803.48,1871.9
2804.93,1919.52
2806.38,1901.65
2807.83,1864.67
2809.28,1854.83
2810.73,1857.15
2812.18,1830.46
2813.63,1856.5
2815.08,1827.37
2816.53,1828.96
2817.98,1823.61
2819.43,1832.28
2820.88,1824.64
2822.33,1798.26
2823.79,1775.91
2825.24,1792.31
2826.69,1800.14
2828.14,1793.42
2829.59,1770.87
2831.04,1779.92
2832.49,1742.09
2833.94,1747.03
2835.39,1771.36
2836.84,1752.56
2838.29,1710.5
2839.74,1699.82
2841.19,1711.17
2842.64,1740.75
2844.09,1733.44
2845.54,1718.22
2846.99,1676.34
2848.44,1743.61
2849.89,1721.6
2851.34,1717.37
2852.79,1724.33
2854.24,1719.49
2855.69,1710.14
2857.14,1707.21
2858.59,1710.29
2860.04,1673.12
2861.49,1742.52
2862.94,1672.18
2864.39,1688.37
2865.84,1716.83
2867.3,1722.88
2868.75,1693.51
2870.2,1690.35
2871.65,1684.63
2873.1,1674.9
2874.55,1660.69
2876,1655.29
2877.45,1693.05
2878.9,1701.57
2880.35,1647.66
2881.8,1653.75
2883.25,1682.47
2884.7,1688.64
2886.15,1683.19
2887.6,1674.8
2889.05,1684.45
2890.5,1696.27
2891.95,1673.02
2893.4,1676.94
2894.85,1664.92
2896.3,1671.79
2897.75,1670.86
2899.2,1673.72
2900.65,1676.94
2902.1,1673.88
2903.55,1647.62
2905,1658.17
2906.45,1670.07
2907.9,1656.81
2909.35,1648.49
2910.8,1639.95
2912.26,1620.28
2913.71,1637.25
2915.16,1619.39
2916.61,1629.19
2918.06,1595.17
2919.51,1636.32
2920.96,1616.8
2922.41,1638.97
2923.86,1617.16
2925.31,1604.43
2926.76,1620.42
2928.21,1611.2
2929.66,1599.65
2931.11,1585.56
2932.56,1585.66
2934.01,1582.82
2935.46,1551.5
2936.91,1548.94
2938.36,1549.79
2939.81,1547.36
2941.26,1538.11
2942.71,1530.73
2944.16,1552.64
2945.61,1547.76
2947.06,1519.68
2948.51,1519.24
2949.96,1503.69
2951.41,1517.27
2952.86,1526.11
2954.31,1518.58
2955.77,1485.97
2957.22,1483.97
2958.67,1466.21
2960.12,1495.59
2961.57,1455.44
2963.02,1480.14
2964.47,1472.48
2965.92,1478.24
2967.37,1467.58
2968.82,1467.25
2970.27,1461.16
2971.72,1460.96
2973.17,1443.73
2974.62,1441.14
2976.07,1429.18
2977.52,1422.56
2978.97,1425.78
2980.42,1436.59
2981.87,1423.65
2983.32,1425.4
2984.77,1418.07
2986.22,1424.37
2987.67,1421.69
2989.12,1443.08
2990.57,1424.26
2992.02,1428.8
2993.47,1429.64
2994.92,1431.29
2996.37,1414.25
2997.82,1431.49
2999.27,1443.35
3000.73,1408.85
3002.18,1422.15
3003.63,1386.48
3005.08,1423.84
3006.53,1427.7
3007.98,1421.69
3009.43,1423.9
3010.88,1410.21
3012.33,1395.54
3013.78,1377.83
3015.23,1394.04
3016.68,1407.8
3018.13,1422.49
3019.58,1376.33
3021.03,1375.48
3022.48,1384.03
3023.93,1399.63
3025.38,1409.13
3026.83,1417.32
3028.28,1414.45
3029.73,1424.04
3031.18,1407.81
3032.63,1390.82
3034.08,1425.19
3035.53,1390.82
3036.98,1402.81
3038.43,1368.35
3039.88,1390.21
3041.33,1448.41
3042.78,1441.94
3044.23,1410.41
3045.69,1410.29
3047.14,1400.29
3048.59,1393.23
3050.04,1406.02
3051.49,1370.48
3052.94,1404.3
3054.39,1409.81
3055.84,1384.41
3057.29,1413.66
3058.74,1421.36
3060.19,1459.57
3061.64,1430.25
3063.09,1450.97
3064.54,1437.7
3065.99,1427.69
3067.44,1439.13
3068.89,1455.07
3070.34,1453.15
3071.79,1429.41
3073.24,1458.35
3074.69,1471.95
3076.14,1483.66
3077.59,1482.93
3079.04,1502.57
3080.49,1518.12
3081.94,1516.45
3083.39,1465.12
3084.84,1507.49
3086.29,1544.52
3087.74,1508.19
3089.2,1535.85
3090.65,1555.87
3092.1,1590.67
3093.55,1571.48
3095,1577.83
3096.45,1578.27
3097.9,1590.38
3099.35,1582.94
3100.8,1592.05
3102.25,1632
3103.7,1611.95
3105.15,1672.2
3106.6,1683.86
3108.05,1682.99
3109.5,1677.45
3110.95,1703.66
3112.4,1722.5
3113.85,1738.9
3115.3,1684.47
3116.75,1733.47
3118.2,1795.81
3119.65,1782.32
3121.1,1810.9
3122.55,1840.58
3124,1830.58
3125.45,1830.17
3126.9,1863.28
3128.35,1866.95
3129.8,1844.92
3131.25,1881.99
3132.7,1884.79
3134.16,1871.92
3135.61,1886.65
3137.06,1864.15
3138.51,1877.18
3139.96,1934.96
3141.41,1941.81
3142.86,1943.69
3144.31,1947.47
3145.76,1924.54
3147.21,1943.36
3148.66,2000.96
3150.11,1983.52
3151.56,1961.3
3153.01,1964.34
3154.46,1979.03
3155.91,1952.73
3157.36,1999.81
3158.81,1987.76
3160.26,2011.08
3161.71,2002.02
3163.16,1989.02
3164.61,2011.49
3166.06,1995.58
3167.51,2014.32
3168.96,2022.82
3170.41,2070.36
3171.86,2101.44
3173.31,2073.17
3174.76,2082.25
3176.21,2090.49
3177.67,2090.28
3179.12,2133.9
3180.57,2117.4
3182.02,2121.74
3183.47,2155.18
3184.92,2162.88
3186.37,2179.82
3187.82,2176.26
3189.27,2153.46
3190.72,2168.2
3192.17,2168.51
3193.62,2166.32
3195.07,2154.75
3196.52,2146.32
3197.97,2150
3199.42,2144.16
3200.87,2103.36
3202.32,2139.12
3203.77,2086.19
3205.22,2052.22
3206.67,2026.06
3208.12,2110.55
3209.57,2043.57
3211.02,1998.39
3212.47,1977.41
3213.92,1987.56
3215.37,1969.82
3216.82,1939.58
3218.27,1948.71
3219.72,1911.7
3221.17,1889.59
3222.63,1870.45
3224.08,1865.46
3225.53,1833.46
3226.98,1782.57
3228.43,1777.45
3229.88,1752.28
3231.33,1724.91
3232.78,1681.7
3234.23,1671.81
3235.68,1638.09
3237.13,1577.04
3238.58,1628.52
3240.03,1629.54
3241.48,1593.62
3242.93,1564.9
3244.38,1549.97
3245.83,1512.35
3247.28,1498.54
3248.73,1494.94
3250.18,1514.63
3251.63,1490
3253.08,1462.28
3254.53,1458.11
3255.98,1423.2
3257.43,1412.18
3258.88,1430.22
3260.33,1404.66
3261.78,1435.25
3263.23,1421.51
3264.68,1382.56
3266.13,1413.69
3267.59,1443.24
3269.04,1403.09
3270.49,1386.18
3271.94,1412.35
3273.39,1375.01
3274.84,1357.66
3276.29,1412
3277.74,1352.99
3279.19,1360.91
3280.64,1390.19
3282.09,1386.79
3283.54,1377.23
3284.99,1350.25
3286.44,1360.53
3287.89,1369.5
3289.34,1334.05
3290.79,1357.58
3292.24,1364.94
3293.69,1361.88
3295.14,1359.39
3296.59,1356.69
3298.04,1341.12
3299.49,1359.86
3300.94,1355.64
3302.39,1386.42
3303.84,1349.52
3305.29,1344.55
3306.74,1361.06
3308.19,1351.7
3309.64,1354.5
3311.09,1368.72
3312.55,1361.95
3314,1388.16
3315.45,1367.04
3316.9,1355.79
3318.35,1346.51
3319.8,1337.73
3321.25,1360.22
3322.7,1341.88
3324.15,1342.1
3325.6,1372.79
3327.05,1372.93
3328.5,1339.33
3329.95,1351.7
3331.4,1381.74
3332.85,1350.81
3334.3,1349.62
3335.75,1339.35
3337.2,1347.23
3338.65,1330.66
3340.1,1360.19
3341.55,1337.59
3343,1339.6
3344.45,1335.36
3345.9,1343.6
3347.35,1280.23
3348.8,1347.16
3350.25,1354.98
3351.7,1368.88
3353.15,1368.33
3354.6,1353.75
3356.06,1344.73
3357.51,1369.56
3358.96,1312.28
3360.41,1325.22
3361.86,1333.14
3363.31,1352.52
3364.76,1316.24
3366.21,1338.3
3367.66,1372.29
3369.11,1366.29
3370.56,1358.36
3372.01,1362.06
3373.46,1324.58
3374.91,1372.12
3376.36,1376.87
3377.81,1358.8
3379.26,1333.52
3380.71,1377.77
3382.16,1388.92
3383.61,1368.06
3385.06,1357.2
3386.51,1342.93
3387.96,1360.98
3389.41,1393.19
3390.86,1389.9
3392.31,1344.12
3393.76,1358.29
3395.21,1371.11
3396.66,1327.23
3398.11,1370.54
3399.56,1365.08
3401.02,1366.52
3402.47,1365.14
3403.92,1348.66
3405.37,1370.26
3406.82,1337.61
3408.27,1385.97
3409.72,1361.19
3411.17,1366.77
3412.62,1341.35
3414.07,1380.47
3415.52,1340.09
3416.97,1375.31
3418.42,1373.37
3419.87,1361.66
3421.32,1354.87
3422.77,1353.69
3424.22,1369.75
3425.67,1397.28
3427.12,1412.46
3428.57,1371.16
3430.02,1377.77
3431.47,1369.06
3432.92,1343.77
3434.37,1364.23
3435.82,1383.16
3437.27,1385.54
3438.72,1393.05
3440.17,1362.8
3441.62,1370.48
3443.07,1376.71
3444.52,1391.67
3445.98,1374.26
3447.43,1335.08
3448.88,1349.28
3450.33,1358.62
3451.78,1370.28
3453.23,1395.48
3454.68,1366.78
3456.13,1374.72
3457.58,1409.34
3459.03,1374.45
3460.48,1366.44
3461.93,1369.55
3463.38,1357.77
3464.83,1385.37
3466.28,1384.54
3467.73,1352.01
3469.18,1395.94
3470.63,1382.71
3472.08,1376.69
3473.53,1368.96
3474.98,1380.9
3476.43,1340.73
3477.88,1404.93
3479.33,1388.08
3480.78,1383.85
3482.23,1398.79
3483.68,1390.84
3485.13,1377.19
3486.58,1387.12
3488.03,1368.47
3489.49,1368.18
3490.94,1370.58
3492.39,1372.77
3493.84,1393.4
3495.29,1369.42
3496.74,1387.24
3498.19,1367.86
3499.64,1416.57
3501.09,1368.76
3502.54,1414.55
3503.99,1397.17
3505.44,1373.43
3506.89,1406.39
3508.34,1402.19
3509.79,1424.82
3511.24,1417.2
3512.69,1415.14
3514.14,1397.15
3515.59,1410.83
3517.04,1455.04
3518.49,1420.37
3519.94,1396.98
3521.39,1369.55
3522.84,1432.49
3524.29,1401.67
3525.74,1385.31
3527.19,1420.45
3528.64,1405.28
3530.09,1414.56
3531.54,1382.8
3532.99,1386.79
3534.45,1402.51
3535.9,1435.78
3537.35,1399.57
3538.8,1400.11
3540.25,1375.69
3541.7,1380.81
3543.15,1388.58
3544.6,1399.34
3546.05,1439.11
3547.5,1423.59
3548.95,1435.23
3550.4,1427.53
3551.85,1427.54
3553.3,1382.29
3554.75,1392.94
3556.2,1394.76
3557.65,1421.15
3559.1,1407.74
3560.55,1400.34
3562,1382.84
3563.45,1431.42
3564.9,1427.58
3566.35,1401.1
3567.8,1434.23
3569.25,1409.07
3570.7,1425.17
3572.15,1428.7
3573.6,1434.51
3575.05,1426.16
3576.5,1385.87
3577.96,1381.63
3579.41,1416.71
3580.86,1405.4
3582.31,1424.58
3583.76,1435.98
3585.21,1432.63
3586.66,1420.84
3588.11,1442.77
3589.56,1413.63
3591.01,1437.68
3592.46,1454.19
3593.91,1415.7
3595.36,1420.61
3596.81,1441.89
3598.26,1434.25
3599.71,1408.49
3601.16,1428.31
3602.61,1444.64
3604.06,1426.72
3605.51,1423.65
3606.96,1421.18
3608.41,1443.1
3609.86,1430.65
3611.31,1447.79
3612.76,1415.55
3614.21,1413.8
3615.66,1471.04
3617.11,1426.63
3618.56,1443
3620.01,1431.15
3621.46,1447.93
3622.92,1445.92
3624.37,1446.9
3625.82,1447.28
3627.27,1452.46
3628.72,1409.54
3630.17,1431.09
3631.62,1451.09
3633.07,1420.02
3634.52,1447.92
3635.97,1451.04
3637.42,1447.63
3638.87,1459.55
3640.32,1419.9
3641.77,1477.66
3643.22,1480.53
3644.67,1457.72
3646.12,1458.61
3647.57,1463.07
3649.02,1455.93
3650.47,1472.97
3651.92,1460.97
3653.37,1475.06
3654.82,1467.23
3656.27,1459.8
3657.72,1453.64
3659.17,1475.22
3660.62,1486.83
3662.07,1472.93
3663.52,1469.01
3664.97,1475.82
3666.43,1466.79
3667.88,1493.72
3669.33,1449.55
3670.78,1456.5
3672.23,1473.21
3673.68,1487.6
3675.13,1487.8
3676.58,1493.59
3678.03,1470.89
3679.48,1493.84
3680.93,1504.41
3682.38,1471.87
3683.83,1470.12
3685.28,1467.53
3686.73,1501.93
3688.18,1489.76
3689.63,1493.19
3691.08,1479.36
3692.53,1502.55
3693.98,1486.1
3695.43,1500.88
3696.88,1485.48
3698.33,1468.59
3699.78,1468.73
3701.23,1486.96
3702.68,1493.13
3704.13,1520.06
3705.58,1492.84
3707.03,1519.78
3708.48,1491.08
3709.93,1484.24
3711.39,1501.22
3712.84,1463.18
3714.29,1511.56
3715.74,1497.13
3717.19,1500.63
3718.64,1510.43
3720.09,1499.51
3721.54,1498.83
3722.99,1498.79
3724.44,1506.68
3725.89,1489.84
3727.34,1471.92
3728.79,1477.12
3730.24,1470.96
3731.69,1515.76
3733.14,1510.24
3734.59,1514.74
3736.04,1495.59
3737.49,1500.78
3738.94,1519.13
3740.39,1545.53
3741.84,1494.22
3743.29,1538.7
3744.74,1552.28
3746.19,1509.61
3747.64,1527.72
3749.09,1542.05
3750.54,1503.02
3751.99,1510.11
3753.44,1519.69
3754.89,1523.23
3756.35,1538.42
3757.8,1530.95
3759.25,1530
3760.7,1531.25
3762.15,1525.93
3763.6,1508.3
3765.05,1536
3766.5,1535.07
3767.95,1543.94
3769.4,1538.6
3770.85,1533.43
3772.3,1519.57
3773.75,1522.2
3775.2,1533.57
3776.65,1528.6
3778.1,1551.97
3779.55,1530.02
3781,1554.35
3782.45,1572.98
3783.9,1545.07
3785.35,1521.77
3786.8,1579.99
3788.25,1521.24
3789.7,1551.14
3791.15,1526.48
3792.6,1573.55
3794.05,1542.21
3795.5,1522.14
3796.95,1534.53
3798.4,1518.04
3799.85,1553.07
3801.31,1553.91
3802.76,1522.62
3804.21,1591
3805.66,1584.92
3807.11,1586.13
3808.56,1570.99
3810.01,1584.53
3811.46,1595.54
3812.91,1592.1
3814.36,1568.51
3815.81,1569.73
3817.26,1576.96
3818.71,1575.81
3820.16,1591.86
3821.61,1595.74
3823.06,1566.22
3824.51,1556.54
3825.96,1587.32
3827.41,1588.7
3828.86,1586.01
3830.31,1601.64
3831.76,1586.46
3833.21,1596.23
3834.66,1620.08
3836.11,1616.39
3837.56,1606.46
3839.01,1595.57
3840.46,1596.23
3841.91,1582.22
3843.36,1579.51
3844.82,1534.9
3846.27,1590.34
3847.72,1610.89
3849.17,1607.25
3850.62,1634.73
3852.07,1615.22
3853.52,1606.46
3854.97,1608.83
3856.42,1606.78
3857.87,1606.48
3859.32,1622.78
3860.77,1615.41
3862.22,1612.59
3863.67,1631.59
3865.12,1628.26
3866.57,1612.79
3868.02,1613.27
3869.47,1648.72
3870.92,1612.14
3872.37,1603.89
3873.82,1629.42
3875.27,1662.27
3876.72,1679.87
3878.17,1672.27
3879.62,1629.04
3881.07,1638.99
3882.52,1637.76
3883.97,1642.23
3885.42,1660.61
3886.87,1659.23
3888.32,1673.21
3889.78,1648.82
3891.23,1663.3
3892.68,1655.44
3894.13,1651.76
3895.58,1665.19
3897.03,1685.97
3898.48,1689.47
3899.93,1702.14
3901.38,1693.43
3902.83,1659.45
3904.28,1696.91
3905.73,1700.97
3907.18,1702.78
3908.63,1672.61
3910.08,1693.41
3911.53,1687.1
3912.98,1714.65
3914.43,1700.36
3915.88,1703.09
3917.33,1684.64
3918.78,1671.92
3920.23,1705.54
3921.68,1716.29
3923.13,1739.31
3924.58,1709.45
3926.03,1724.06
3927.48,1717.07
3928.93,1777.07
3930.38,1715.5
3931.83,1723.88
3933.28,1731.36
3934.74,1739.9
3936.19,1770.25
3937.64,1750.66
3939.09,1723.68
3940.54,1771.38
3941.99,1752.05
3943.44,1739.44
3944.89,1747.52
3946.34,1765.43
3947.79,1784.35
3949.24,1771.33
3950.69,1777.19
3952.14,1787.7
3953.59,1797.27
3955.04,1803.1
3956.49,1750.73
3957.94,1810.53
3959.39,1769.74
3960.84,1765.25
3962.29,1779.47
3963.74,1770.51
3965.19,1756.09
3966.64,1823.32
3968.09,1781.57
3969.54,1815.25
3970.99,1773.13
3972.44,1808.12
3973.89,1801.99
3975.34,1841.99
3976.79,1832.57
3978.25,1844.49
3979.7,1839.98
3981.15,1821.03
3982.6,1831.77
3984.05,1848.74
3985.5,1856.95
3986.95,1881.39
3988.4,1850.07
3989.85,1858.23
3991.3,1850.84
3992.75,1862.79
3994.2,1885.28
3995.65,1845.67
3997.1,1938.26
3998.55,1858.62
4000,1862.61
