0.11,3.09268
1.45033,3.09268
2.90065,3.09268
4.35098,3.09268
5.80131,3.09268
7.25163,3.09268
8.70196,12.9384
10.1523,5.67562
11.6026,4.47221
13.0529,4.96525
14.5033,5.55195
15.9536,5.0317
17.4039,2.01789
18.8542,0.172579
20.3046,0.13604
21.7549,1.20112
23.2052,2.48371
24.6555,2.33291
26.1059,1.66462
27.5562,0.472328
29.0065,0.110032
30.4569,2.27832
31.9072,1.0709
33.3575,0.997015
34.8078,0.869601
36.2582,0.474948
37.7085,0.928003
39.1588,0.127019
40.6091,0.980904
42.0595,2.7377
43.5098,4.29664
44.9601,4.90119
46.4104,4.63481
47.8608,7.16911
49.3111,12.5331
50.7614,18.9116
52.2117,47.0453
53.6621,91.4358
55.1124,158.186
56.5627,248.352
58.0131,355.656
59.4634,460.782
60.9137,555.027
62.364,621.07
63.8144,650.803
65.2647,705.33
66.715,728.722
68.1653,748.97
69.6157,771.889
71.066,793.647
72.5163,803.193
73.9666,800.381
75.417,793.246
76.8673,794.094
78.3176,827.463
79.7679,833.781
81.2183,847.411
82.6686,871.219
84.1189,901.868
85.5693,922.055
87.0196,927.726
88.4699,926.986
89.9202,907.285
91.3706,852.126
92.8209,806.552
94.2712,764.855
95.7215,718.656
97.1719,676.455
98.6222,664.295
100.073,640.601
101.523,613.036
102.973,587.927
104.423,568.636
105.874,553.12
107.324,540.358
108.774,534.21
110.225,524.756
111.675,506.641
113.125,510.599
114.576,518.548
116.026,514.063
117.476,497.984
118.927,478.739
120.377,484.078
121.827,474.038
123.278,468.414
124.728,468.126
126.178,460.96
127.629,450.906
129.079,440.505
130.529,433.569
131.98,429.422
133.43,420.573
134.88,409.844
136.331,395.977
137.781,389.685
139.231,391.851
140.682,374.444
142.132,379.048
143.582,371.809
145.033,359.712
146.483,352.264
147.933,340.65
149.384,350.693
150.834,347.553
152.284,335.302
153.735,328.942
155.185,342.706
156.635,331.116
158.086,326.696
159.536,332.813
160.986,339.925
162.437,338.854
163.887,327.055
165.337,313.404
166.788,302.691
168.238,297.424
169.688,298.804
171.139,292.174
172.589,288.348
174.039,287.268
175.489,278.062
176.94,296.122
178.39,300.616
179.84,299.492
181.291,296.824
182.741,290.688
184.191,283.508
185.642,276.73
187.092,269.154
188.542,264.674
189.993,277.276
191.443,266.906
192.893,266.821
194.344,272.769
195.794,275.632
197.244,259.963
198.695,263.464
200.145,264.419
201.595,260.747
203.046,254.43
204.496,253.199
205.946,259.481
207.397,263.109
208.847,267.037
210.297,271.558
211.748,265.557
213.198,266.313
214.648,268.619
216.099,268.018
217.549,263.805
218.999,265.653
220.45,271.301
221.9,267.915
223.35,260.255
224.801,255.889
226.251,264.672
227.701,262.046
229.152,267.483
230.602,263.672
232.052,246.72
233.503,260.307
234.953,261.101
236.403,261.726
237.854,262.348
239.304,262.293
240.754,261.984
242.204,259.52
243.655,257.316
245.105,251.733
246.555,243.942
248.006,246.413
249.456,247.428
250.906,251.596
252.357,256.043
253.807,255.204
255.257,239.264
256.708,243.271
258.158,246.957
259.608,248.964
261.059,250.643
262.509,255.909
263.959,234.212
265.41,231.311
266.86,231.493
268.31,232.872
269.761,248.601
271.211,240.849
272.661,237.734
274.112,232.773
275.562,229.594
277.012,238.053
278.463,237.433
279.913,239.288
281.363,237.106
282.814,234.391
284.264,237.666
285.714,229.437
287.165,231.554
288.615,234.367
290.065,230.321
291.516,217.948
292.966,225.717
294.416,233.895
295.867,228.761
297.317,221.424
298.767,221.972
300.218,218.71
301.668,220.849
303.118,221.811
304.569,213.172
306.019,199.735
307.469,212.186
308.919,206.659
310.37,207.992
311.82,207.344
313.27,202.943
314.721,202.63
316.171,202.163
317.621,204.115
319.072,199.185
320.522,194.451
321.972,204.123
323.423,203.344
324.873,196.587
326.323,196.189
327.774,200.526
329.224,202.882
330.674,195.704
332.125,202.312
333.575,202.675
335.025,197.273
336.476,190.989
337.926,190.521
339.376,189.753
340.827,192.362
342.277,194.047
343.727,194.548
345.178,197.946
346.628,187.474
348.078,192.238
349.529,202.22
350.979,207.208
352.429,199.589
353.88,188.014
355.33,194.309
356.78,198.223
358.231,198.657
359.681,197.615
361.131,193.075
362.582,185.88
364.032,182.644
365.482,184.701
366.933,188.086
368.383,183.916
369.833,182.348
371.284,179.784
372.734,179.711
374.184,180.112
375.635,178.786
377.085,189.763
378.535,194.944
379.986,186.447
381.436,179.592
382.886,184.176
384.336,188.256
385.787,183.661
387.237,180.193
388.687,181.915
390.138,186.855
391.588,188.588
393.038,185.76
394.489,178.59
395.939,182.21
397.389,187.317
398.84,182.539
400.29,174.993
401.74,186.146
403.191,180.22
404.641,179.413
406.091,185.879
407.542,176.246
408.992,181.124
410.442,186.773
411.893,187.941
413.343,187.521
414.793,188.274
416.244,179.612
417.694,186.356
419.144,186.89
420.595,180.967
422.045,175.834
423.495,182.929
424.946,181.196
426.396,178.819
427.846,174.614
429.297,177.316
430.747,189.314
432.197,176.205
433.648,182.912
435.098,180.601
436.548,175.744
437.999,174.231
439.449,176.304
440.899,169.672
442.35,178.644
443.8,178.254
445.25,173.909
446.701,177.01
448.151,185.87
449.601,184.602
451.051,182.862
452.502,181.614
453.952,177.721
455.402,168.496
456.853,179.423
458.303,176.34
459.753,176.574
461.204,177.06
462.654,174.947
464.104,176.05
465.555,173.674
467.005,177.026
468.455,180.492
469.906,177.757
471.356,169.367
472.806,183.644
474.257,185.455
475.707,181.634
477.157,180.872
478.608,184.932
480.058,187.069
481.508,170.414
482.959,178.394
484.409,179.648
485.859,179.262
487.31,182.094
488.76,174.337
490.21,184.022
491.661,188.954
493.111,182.805
494.561,172.584
496.012,169.903
497.462,178.8
498.912,172.895
500.363,176.157
501.813,177.375
503.263,174.464
504.714,174.927
506.164,181.13
507.614,179.15
509.065,177.31
510.515,177.377
511.965,177.082
513.416,171.802
514.866,175.467
516.316,179.532
517.766,180.058
519.217,178.061
520.667,175.817
522.117,174.725
523.568,178.394
525.018,174.936
526.468,172.215
527.919,171.746
529.369,174.303
530.819,187.394
532.27,174.671
533.72,178.116
535.17,177.77
536.621,174.956
538.071,180.521
539.521,182.117
540.972,177.427
542.422,180.031
543.872,177.803
545.323,174.608
546.773,182.35
548.223,178.511
549.674,177.881
551.124,180.847
552.574,182.585
554.025,181.256
555.475,178.836
556.925,177.716
558.376,176.737
559.826,174.56
561.276,174.181
562.727,173.934
564.177,168.874
565.627,175.284
567.078,172.247
568.528,167.484
569.978,167.023
571.429,170.011
572.879,169.526
574.329,174.98
575.78,169.641
577.23,172.998
578.68,176.646
580.131,176.958
581.581,181.336
583.031,171.702
584.482,176.49
585.932,175.618
587.382,174.458
588.832,174.719
590.283,168.927
591.733,168.927
593.183,172.594
594.634,178.74
596.084,174.983
597.534,163.327
598.985,161.553
600.435,163.162
601.885,172.491
603.336,174.89
604.786,176.39
606.236,178.466
607.687,175.715
609.137,174.265
610.587,176.316
612.038,179.76
613.488,179.903
614.938,178.415
616.389,180.202
617.839,176.334
619.289,180.99
620.74,174.138
622.19,172.747
623.64,175.127
625.091,169.36
626.541,168.391
627.991,174.684
629.442,181.917
630.892,182.99
632.342,178.182
633.793,172.631
635.243,171.824
636.693,181.903
638.144,181.113
639.594,176.87
641.044,175.606
642.495,179.488
643.945,183.905
645.395,170.486
646.846,180.722
648.296,185.457
649.746,184.959
651.197,184.112
652.647,182.076
654.097,182.724
655.547,185.96
656.998,186.128
658.448,183.097
659.898,180.374
661.349,181.365
662.799,179.259
664.249,184.331
665.7,185.808
667.15,182.669
668.6,183.417
670.051,191.73
671.501,187.03
672.951,185.571
674.402,187.414
675.852,189.196
677.302,185.629
678.753,179.973
680.203,186.031
681.653,188.306
683.104,190.436
684.554,185.884
686.004,185.695
687.455,188.41
688.905,183.848
690.355,187.259
691.806,193.157
693.256,187.543
694.706,189.465
696.157,192.775
697.607,189.351
699.057,196.052
700.508,188.887
701.958,186.009
703.408,186.167
704.859,186.92
706.309,184.742
707.759,179.583
709.21,193.26
710.66,192.487
712.11,190.204
713.561,187.853
715.011,187.847
716.461,190.693
717.912,190.579
719.362,186.01
720.812,195.903
722.263,197.534
723.713,197.716
725.163,197.202
726.613,186.736
728.064,189.02
729.514,185.305
730.964,187.451
732.415,195.059
733.865,195.543
735.315,186.834
736.766,194.87
738.216,193.562
739.666,190.268
741.117,192.086
742.567,196.002
744.017,197.689
745.468,194.536
746.918,185.86
748.368,186.647
749.819,190.911
751.269,203.467
752.719,205.27
754.17,194.7
755.62,201.036
757.07,208.411
758.521,204.469
759.971,197.233
761.421,190.414
762.872,192.596
764.322,201.902
765.772,192.659
767.223,189.214
768.673,199.894
770.123,198.886
771.574,191.314
773.024,190.579
774.474,200.405
775.925,195.32
777.375,204.025
778.825,197.367
780.276,197.731
781.726,198.89
783.176,198.414
784.627,203.624
786.077,198.199
787.527,206.429
788.978,203.655
790.428,200.969
791.878,200.146
793.328,200.291
794.779,202.744
796.229,203.732
797.68,196.844
799.13,197.145
800.58,201.65
802.03,206.427
803.481,205.587
804.931,193.921
806.381,197.71
807.832,204.23
809.282,207.025
810.732,206.013
812.183,203.893
813.633,201.163
815.083,194.631
816.534,200.734
817.984,195.587
819.434,204.617
820.885,207.881
822.335,206.024
823.785,210.374
825.236,218.831
826.686,211.234
828.136,215.181
829.587,223.977
831.037,219.981
832.487,212.513
833.938,212.003
835.388,204.393
836.838,221.752
838.289,215.236
839.739,209.94
841.189,207.835
842.64,209.884
844.09,212.838
845.54,208.851
846.991,217.788
848.441,211.67
849.891,221.349
851.342,218.927
852.792,207.773
854.242,205.625
855.693,215.199
857.143,203.599
858.593,217.998
860.044,224.46
861.494,227.711
862.944,223.505
864.394,216.224
865.845,218.833
867.295,212.198
868.745,218.75
870.196,215.614
871.646,215.453
873.096,213.954
874.547,209.38
875.997,209.403
877.447,222.135
878.898,224.294
880.348,211.706
881.798,210.412
883.249,209.025
884.699,209.873
886.149,218.793
887.6,216.165
889.05,214.001
890.5,216.08
891.951,220.077
893.401,220.612
894.851,225.946
896.302,233.551
897.752,222.993
899.202,217.832
900.653,212.503
902.103,226.223
903.553,225.295
905.004,219.364
906.454,219.903
907.904,222.507
909.355,222.52
910.805,217.847
912.255,230.153
913.706,236.515
915.156,231.916
916.606,230.721
918.057,238.148
919.507,232.106
920.957,222.916
922.408,236.46
923.858,233.29
925.308,224.96
926.759,225.891
928.209,233.467
929.659,233.044
931.109,226.119
932.56,231.306
934.01,224.537
935.46,229.862
936.911,232.482
938.361,235.689
939.811,241.42
941.262,233.175
942.712,234.011
944.162,223.102
945.613,236.435
947.063,230.664
948.513,221.318
949.964,222.292
951.414,231.299
952.864,249.745
954.315,243.547
955.765,231.597
957.215,237.559
958.666,237.418
960.116,233.277
961.566,229.882
963.017,224.761
964.467,231.751
965.917,232.591
967.368,238.499
968.818,234.602
970.268,231.728
971.719,234.766
973.169,237.67
974.619,232.285
976.07,226.041
977.52,239.476
978.97,239.906
980.421,239.546
981.871,241.151
983.321,235.428
984.772,225.167
986.222,232.469
987.672,238.024
989.123,243.407
990.573,240.685
992.023,238.127
993.474,238.058
994.924,238.501
996.374,235.797
997.825,230.453
999.275,241.746
1000.73,248.059
1002.18,251.04
1003.63,251.872
1005.08,245.203
1006.53,242.885
1007.98,252.145
1009.43,255.253
1010.88,259.978
1012.33,259.87
1013.78,255.556
1015.23,251.682
1016.68,256.218
1018.13,261.347
1019.58,261.181
1021.03,265.211
1022.48,261.007
1023.93,263.543
1025.38,269.875
1026.83,270.317
1028.28,268.783
1029.73,265.193
1031.18,265.636
1032.63,279.241
1034.08,278.631
1035.53,268.985
1036.98,286.034
1038.43,285.31
1039.88,289.155
1041.33,294.577
1042.78,298.287
1044.23,303.754
1045.69,285.292
1047.14,300.037
1048.59,294.442
1050.04,293.782
1051.49,298.144
1052.94,301.507
1054.39,308.572
1055.84,317.044
1057.29,302.398
1058.74,305.622
1060.19,309.512
1061.64,311.265
1063.09,316.963
1064.54,325.705
1065.99,330.139
1067.44,331.636
1068.89,340.429
1070.34,343.79
1071.79,338.012
1073.24,337.932
1074.69,342.915
1076.14,336.781
1077.59,337.95
1079.04,353.556
1080.49,363.479
1081.94,353.234
1083.39,349.491
1084.84,358.743
1086.29,346.049
1087.74,340.834
1089.2,337.56
1090.65,338.953
1092.1,345.56
1093.55,346.457
1095,346.181
1096.45,346.863
1097.9,342.613
1099.35,341.023
1100.8,338.449
1102.25,343.666
1103.7,348.19
1105.15,343.489
1106.6,342.884
1108.05,338.212
1109.5,337.186
1110.95,346.003
1112.4,342.586
1113.85,333.257
1115.3,331.758
1116.75,336.727
1118.2,334.79
1119.65,323.037
1121.1,320.368
1122.55,325.154
1124,322.098
1125.45,324.459
1126.9,321.905
1128.35,322.471
1129.8,325.513
1131.25,320.98
1132.7,317.592
1134.16,320.307
1135.61,312.947
1137.06,313.096
1138.51,313.908
1139.96,311.145
1141.41,318.462
1142.86,322.059
1144.31,309.135
1145.76,320.202
1147.21,320.73
1148.66,322.618
1150.11,312.179
1151.56,310.134
1153.01,303.895
1154.46,306.345
1155.91,315.751
1157.36,316.867
1158.81,314.516
1160.26,307.009
1161.71,306.149
1163.16,307.949
1164.61,306.213
1166.06,308.178
1167.51,310.212
1168.96,308.324
1170.41,309.078
1171.86,317.43
1173.31,307.847
1174.76,322.633
1176.21,310.031
1177.66,314.463
1179.12,312.706
1180.57,307.667
1182.02,302.618
1183.47,304.31
1184.92,314.681
1186.37,310.705
1187.82,315.704
1189.27,308.299
1190.72,319.582
1192.17,325.996
1193.62,328.904
1195.07,327.671
1196.52,325.999
1197.97,324.993
1199.42,319.825
1200.87,328.191
1202.32,327.672
1203.77,330.432
1205.22,323.299
1206.67,323.808
1208.12,319.805
1209.57,314.68
1211.02,318.154
1212.47,327.01
1213.92,331.108
1215.37,329.765
1216.82,329.765
1218.27,328.498
1219.72,326.42
1221.17,326.077
1222.63,328.584
1224.08,326.654
1225.53,329.661
1226.98,347.238
1228.43,339.431
1229.88,324.525
1231.33,337.346
1232.78,331.459
1234.23,346.817
1235.68,344.94
1237.13,343.999
1238.58,339.993
1240.03,329.474
1241.48,336.094
1242.93,344.335
1244.38,346.812
1245.83,338.309
1247.28,341.693
1248.73,347.479
1250.18,342.665
1251.63,354.137
1253.08,370.234
1254.53,364.266
1255.98,349.021
1257.43,356.606
1258.88,371.929
1260.33,364.456
1261.78,363.698
1263.23,367.903
1264.68,370.057
1266.13,371.341
1267.59,369.247
1269.04,369.914
1270.49,380.029
1271.94,388.661
1273.39,403.833
1274.84,393.026
1276.29,400.056
1277.74,416.486
1279.19,412.376
1280.64,408.94
1282.09,412.669
1283.54,413.896
1284.99,418.969
1286.44,440.851
1287.89,446.626
1289.34,451.177
1290.79,457.456
1292.24,466.579
1293.69,472.086
1295.14,486.741
1296.59,507.85
1298.04,517.158
1299.49,520.315
1300.94,533.792
1302.39,547.441
1303.84,575.976
1305.29,569.337
1306.74,571.412
1308.19,610.307
1309.64,640.144
1311.09,651.491
1312.55,669.964
1314,689.377
1315.45,705.576
1316.9,732.489
1318.35,757.749
1319.8,804.025
1321.25,824.327
1322.7,848.22
1324.15,887.568
1325.6,907.177
1327.05,928.589
1328.5,950.285
1329.95,961.527
1331.4,962.181
1332.85,969.647
1334.3,997.539
1335.75,990.25
1337.2,977.622
1338.65,963.091
1340.1,962.135
1341.55,964.662
1343,928.997
1344.45,906.63
1345.9,897.985
1347.35,870.217
1348.8,839.159
1350.25,836.162
1351.7,817.486
1353.15,777.667
1354.6,747.622
1356.06,722.207
1357.51,709.489
1358.96,680.738
1360.41,653.582
1361.86,636.858
1363.31,609.076
1364.76,578.224
1366.21,578.705
1367.66,573.593
1369.11,549.717
1370.56,555.533
1372.01,533.996
1373.46,531.708
1374.91,522.571
1376.36,513.436
1377.81,507.402
1379.26,502.999
1380.71,493.108
1382.16,479.985
1383.61,478.042
1385.06,479.007
1386.51,486.043
1387.96,470.876
1389.41,486.199
1390.86,479.786
1392.31,467.815
1393.76,459.853
1395.21,460.4
1396.66,457.72
1398.11,456.278
1399.56,463.089
1401.02,463.459
1402.47,472.201
1403.92,476.72
1405.37,455.135
1406.82,462.581
1408.27,456.04
1409.72,458.658
1411.17,454.913
1412.62,455.351
1414.07,462.498
1415.52,463.442
1416.97,466.475
1418.42,480.914
1419.87,469.481
1421.32,481.31
1422.77,485.204
1424.22,473.5
1425.67,483.358
1427.12,480.848
1428.57,481.535
1430.02,477.281
1431.47,477.888
1432.92,483.526
1434.37,494.341
1435.82,499.502
1437.27,480.431
1438.72,494.418
1440.17,499.813
1441.62,489.685
1443.07,527.447
1444.53,519.893
1445.98,519.676
1447.43,523.037
1448.88,521.8
1450.33,521.464
1451.78,533.771
1453.23,545.014
1454.68,545.849
1456.13,558.272
1457.58,553.615
1459.03,568.417
1460.48,565.389
1461.93,573.218
1463.38,571.437
1464.83,575.308
1466.28,598.824
1467.73,615.044
1469.18,614.875
1470.63,611.641
1472.08,620.346
1473.53,634.741
1474.98,637.59
1476.43,640.825
1477.88,650.511
1479.33,679.795
1480.78,671.396
1482.23,673.579
1483.68,712.564
1485.13,716.597
1486.58,730.007
1488.03,746.919
1489.49,744.722
1490.94,762.61
1492.39,793.269
1493.84,803.463
1495.29,837.595
1496.74,826.423
1498.19,831.47
1499.64,885.596
1501.09,900.62
1502.54,923.149
1503.99,948.097
1505.44,971.52
1506.89,1000.1
1508.34,1030.99
1509.79,1076.56
1511.24,1114.38
1512.69,1152.04
1514.14,1221.19
1515.59,1281.85
1517.04,1322.05
1518.49,1375.65
1519.94,1426.62
1521.39,1535.77
1522.84,1612.7
1524.29,1701.78
1525.74,1801.89
1527.19,1913.93
1528.64,2040.47
1530.09,2179.17
1531.54,2339.33
1532.99,2524.37
1534.45,2706.96
1535.9,2908.67
1537.35,3204.04
1538.8,3495.98
1540.25,3821.91
1541.7,4124.12
1543.15,4459.05
1544.6,4859.62
1546.05,5283.22
1547.5,5765.95
1548.95,6217.62
1550.4,6646.65
1551.85,7116.97
1553.3,7593.96
1554.75,8069.3
1556.2,8562.95
1557.65,9016.22
1559.1,9030.78
1560.55,9041.57
1562,9062.37
1563.45,9068.53
1564.9,9073.16
1566.35,9067.76
1567.8,9065.45
1569.25,9072.39
1570.7,9070.84
1572.15,8778.91
1573.6,8324.64
1575.05,7855.11
1576.5,7381.72
1577.96,6864.73
1579.41,6335.36
1580.86,5853
1582.31,5406.47
1583.76,4941.06
1585.21,4538.7
1586.66,4149.98
1588.11,3817.7
1589.56,3528.31
1591.01,3244.52
1592.46,3008.45
1593.91,2815.32
1595.36,2611.72
1596.81,2440.99
1598.26,2266.48
1599.71,2135.9
1601.16,2047.75
1602.61,1944.98
1604.06,1850.97
1605.51,1771.28
1606.96,1687.12
1608.41,1600.83
1609.86,1533.45
1611.31,1452.95
1612.76,1423.32
1614.21,1329.23
1615.66,1293.93
1617.11,1239.25
1618.56,1206.35
1620.01,1154
1621.46,1111.52
1622.92,1068.84
1624.37,1035.19
1625.82,1011.01
1627.27,981.651
1628.72,959.015
1630.17,928.943
1631.62,911.284
1633.07,888.94
1634.52,872.482
1635.97,844.082
1637.42,842.487
1638.87,818.187
1640.32,796.821
1641.77,793.108
1643.22,782.953
1644.67,770.972
1646.12,758.478
1647.57,755.585
1649.02,744.385
1650.47,727.786
1651.92,724.455
1653.37,722.854
1654.82,706.116
1656.27,695.964
1657.72,693.141
1659.17,679.022
1660.62,666.539
1662.07,669.365
1663.52,683.512
1664.97,676.6
1666.42,667.527
1667.88,661.626
1669.33,656.167
1670.78,647.283
1672.23,633.517
1673.68,636.996
1675.13,635.275
1676.58,633.995
1678.03,625.163
1679.48,617.385
1680.93,622.573
1682.38,621.307
1683.83,616.284
1685.28,609.788
1686.73,614.122
1688.18,612.752
1689.63,610.75
1691.08,605.225
1692.53,594.841
1693.98,593.898
1695.43,604.71
1696.88,611.381
1698.33,606.686
1699.78,608.234
1701.23,599.133
1702.68,601.258
1704.13,593.776
1705.58,600.01
1707.03,599.845
1708.48,586.074
1709.93,599.701
1711.39,599.459
1712.84,598.904
1714.29,596.301
1715.74,605.134
1717.19,612.045
1718.64,599.514
1720.09,600.538
1721.54,602.748
1722.99,587.646
1724.44,590.465
1725.89,607.08
1727.34,612.628
1728.79,612.704
1730.24,597.828
1731.69,587.753
1733.14,612.759
1734.59,593.064
1736.04,588.275
1737.49,603.13
1738.94,590.734
1740.39,588.901
1741.84,600.29
1743.29,589.982
1744.74,586.058
1746.19,576.022
1747.64,570.589
1749.09,579.092
1750.54,570.649
1751.99,569.384
1753.44,578.207
1754.89,570.882
1756.35,569.649
1757.8,583.111
1759.25,579.771
1760.7,572.633
1762.15,575.176
1763.6,561.663
1765.05,562.6
1766.5,571.583
1767.95,567.834
1769.4,551.364
1770.85,549.475
1772.3,545.234
1773.75,554.47
1775.2,550.69
1776.65,549.811
1778.1,550.834
1779.55,554.028
1781,550.529
1782.45,552.558
1783.9,550.353
1785.35,557.57
1786.8,559.55
1788.25,557.186
1789.7,551.808
1791.15,550.004
1792.6,557.784
1794.05,556.083
1795.5,553.197
1796.95,551.007
1798.4,553.948
1799.85,559.89
1801.31,543.8
1802.76,543.777
1804.21,532.481
1805.66,548.451
1807.11,521.448
1808.56,532.8
1810.01,538.251
1811.46,538.937
1812.91,525.493
1814.36,542.521
1815.81,553.758
1817.26,558.447
1818.71,557.899
1820.16,550.995
1821.61,545.727
1823.06,539.201
1824.51,544.101
1825.96,545.606
1827.41,540.049
1828.86,549.197
1830.31,553.676
1831.76,549.166
1833.21,554.281
1834.66,547.237
1836.11,547.052
1837.56,540.296
1839.01,557.227
1840.46,569.819
1841.91,545.898
1843.36,552.904
1844.82,562.177
1846.27,553.815
1847.72,561.402
1849.17,566.427
1850.62,561.346
1852.07,562.959
1853.52,575.503
1854.97,575.929
1856.42,565.389
1857.87,560.802
1859.32,577.375
1860.77,584.667
1862.22,577.641
1863.67,569.927
1865.12,573.185
1866.57,575.63
1868.02,569.23
1869.47,559.446
1870.92,554.574
1872.37,562.519
1873.82,569.955
1875.27,564.097
1876.72,556.737
1878.17,562.644
1879.62,557.183
1881.07,552.566
1882.52,545.984
1883.97,547.44
1885.42,547.995
1886.87,552.906
1888.32,550.995
1889.78,543.825
1891.23,548.688
1892.68,546.223
1894.13,550.351
1895.58,546.243
1897.03,551.858
1898.48,551.064
1899.93,537.813
1901.38,539.522
1902.83,535.399
1904.28,531.761
1905.73,535.08
1907.18,543.396
1908.63,543.341
1910.08,537.46
1911.53,528.722
1912.98,520.991
1914.43,526.644
1915.88,530.943
1917.33,521.624
1918.78,521.844
1920.23,531.804
1921.68,532.723
1923.13,531.813
1924.58,530.125
1926.03,525.117
1927.48,526.775
1928.93,532.917
1930.38,530.149
1931.83,527.863
1933.29,513.106
1934.74,529.256
1936.19,533.095
1937.64,512.438
1939.09,521.27
1940.54,515.918
1941.99,527.869
1943.44,529.16
1944.89,529.731
1946.34,530.861
1947.79,518.786
1949.24,529.981
1950.69,521.279
1952.14,535
1953.59,538.002
1955.04,527.992
1956.49,534.912
1957.94,531.808
1959.39,524.746
1960.84,531.022
1962.29,529.054
1963.74,533.907
1965.19,537.494
1966.64,536.943
1968.09,546.604
1969.54,551.926
1970.99,553.149
1972.44,555.901
1973.89,545.151
1975.34,545.301
1976.79,551.023
1978.25,550.022
1979.7,543.152
1981.15,544.059
1982.6,548.287
1984.05,542.547
1985.5,547.348
1986.95,543.455
1988.4,536.44
1989.85,550.864
1991.3,546.406
1992.75,546.755
1994.2,548.913
1995.65,552.457
1997.1,554.221
1998.55,549.809
2000,544.811
2001.45,554.466
2002.9,548.023
2004.35,543.641
2005.8,546.875
2007.25,551.436
2008.7,554.5
2010.15,555.274
2011.6,558.287
2013.05,540.562
2014.5,536.735
2015.95,544.322
2017.4,537.46
2018.85,524.808
2020.3,543.955
2021.75,546.012
2023.21,528.039
2024.66,541.936
2026.11,535.523
2027.56,542.945
2029.01,545.648
2030.46,531.758
2031.91,533.095
2033.36,524.664
2034.81,530.754
2036.26,540.443
2037.71,534.47
2039.16,535.314
2040.61,541.616
2042.06,526.475
2043.51,516.339
2044.96,523.754
2046.41,508.629
2047.86,516.946
2049.31,523.888
2050.76,517.113
2052.21,516.041
2053.66,528.554
2055.11,531.537
2056.56,520.031
2058.01,515.447
2059.46,526.236
2060.91,527.476
2062.36,520.548
2063.81,514.993
2065.26,509.026
2066.72,511.015
2068.17,518.801
2069.62,504.296
2071.07,506.58
2072.52,521.518
2073.97,520.351
2075.42,515.851
2076.87,516.984
2078.32,514.7
2079.77,505.244
2081.22,512.483
2082.67,521.495
2084.12,519.106
2085.57,507.347
2087.02,508.128
2088.47,498.286
2089.92,497.636
2091.37,502.365
2092.82,511.057
2094.27,523.923
2095.72,516.675
2097.17,512.27
2098.62,514.076
2100.07,506.921
2101.52,500.743
2102.97,505.689
2104.42,500.695
2105.87,509.205
2107.32,512.696
2108.77,514.963
2110.22,516.003
2111.68,519.966
2113.13,513.558
2114.58,510.383
2116.03,519.085
2117.48,519.411
2118.93,511.153
2120.38,520.671
2121.83,520.049
2123.28,504.932
2124.73,514.186
2126.18,520.59
2127.63,516.889
2129.08,518.788
2130.53,522.627
2131.98,526.185
2133.43,525.829
2134.88,525.786
2136.33,522.556
2137.78,526.948
2139.23,526.767
2140.68,525.997
2142.13,520.856
2143.58,520.012
2145.03,537.277
2146.48,538.254
2147.93,531.875
2149.38,524.779
2150.83,525.897
2152.28,533.899
2153.73,534.286
2155.18,527.758
2156.64,530.871
2158.09,531.516
2159.54,529.672
2160.99,535.965
2162.44,536.852
2163.89,537.4
2165.34,532.572
2166.79,535.993
2168.24,552.768
2169.69,548.256
2171.14,541.016
2172.59,541.705
2174.04,542.809
2175.49,547.012
2176.94,548.443
2178.39,544.209
2179.84,545.023
2181.29,545.667
2182.74,549.049
2184.19,547.905
2185.64,543.831
2187.09,547.581
2188.54,552.316
2189.99,552.477
2191.44,549.095
2192.89,555.599
2194.34,555.356
2195.79,555.244
2197.24,560.236
2198.69,558.461
2200.15,550.328
2201.6,551.382
2203.05,551.707
2204.5,563.762
2205.95,560.764
2207.4,563.295
2208.85,558.329
2210.3,562.541
2211.75,568.27
2213.2,570.335
2214.65,565.325
2216.1,565.383
2217.55,569.733
2219,573.417
2220.45,558.18
2221.9,571.623
2223.35,578.899
2224.8,577.805
2226.25,568.266
2227.7,558.498
2229.15,575.693
2230.6,584.617
2232.05,584.235
2233.5,570.377
2234.95,574.599
2236.4,574.699
2237.85,577.238
2239.3,563.604
2240.75,567.451
2242.2,580.549
2243.65,588.703
2245.11,573.761
2246.56,587.41
2248.01,582.184
2249.46,580.464
2250.91,592.144
2252.36,586.156
2253.81,582.073
2255.26,588.64
2256.71,579.692
2258.16,585.76
2259.61,593.502
2261.06,589.569
2262.51,575.208
2263.96,591.811
2265.41,597.498
2266.86,589.064
2268.31,577.996
2269.76,587.159
2271.21,599.714
2272.66,593.176
2274.11,592.26
2275.56,583.572
2277.01,585.014
2278.46,602.254
2279.91,602.514
2281.36,614.079
2282.81,617.295
2284.26,597.148
2285.71,596.859
2287.16,606.089
2288.61,615.681
2290.07,606.831
2291.52,596.617
2292.97,610.548
2294.42,614.106
2295.87,616.795
2297.32,618.278
2298.77,603.024
2300.22,618.335
2301.67,639.887
2303.12,639.097
2304.57,629.933
2306.02,618.7
2307.47,622.688
2308.92,620.78
2310.37,629.375
2311.82,626.831
2313.27,635.679
2314.72,622.911
2316.17,642.132
2317.62,629.224
2319.07,636.194
2320.52,647.288
2321.97,638.359
2323.42,640.438
2324.87,659.729
2326.32,646.008
2327.77,648.412
2329.22,643.655
2330.67,661.861
2332.12,664.544
2333.57,666.77
2335.03,668.467
2336.48,651.753
2337.93,650.792
2339.38,664.331
2340.83,677.913
2342.28,672.843
2343.73,679.36
2345.18,672.831
2346.63,682.186
2348.08,692.563
2349.53,693.491
2350.98,691.758
2352.43,702.565
2353.88,698.699
2355.33,701.424
2356.78,703.386
2358.23,716.953
2359.68,709.665
2361.13,718.92
2362.58,738.882
2364.03,743.564
2365.48,728.951
2366.93,732.786
2368.38,750.519
2369.83,751.464
2371.28,747.371
2372.73,752.396
2374.18,775.679
2375.63,784.132
2377.08,788.901
2378.54,792.907
2379.99,793.1
2381.44,799.98
2382.89,823.541
2384.34,831.015
2385.79,824.851
2387.24,833.08
2388.69,851.209
2390.14,864.754
2391.59,880.511
2393.04,879.81
2394.49,884.086
2395.94,899.434
2397.39,892.407
2398.84,895.597
2400.29,936.94
2401.74,954.199
2403.19,958.344
2404.64,962.744
2406.09,965.232
2407.54,992.392
2408.99,982.591
2410.44,990.759
2411.89,987.415
2413.34,1012.81
2414.79,1024.81
2416.24,1006.82
2417.69,1031.24
2419.14,1025.84
2420.59,1035.27
2422.04,1041.63
2423.5,1036.57
2424.95,1046.9
2426.4,1055.07
2427.85,1053.82
2429.3,1039.71
2430.75,1037.35
2432.2,1026.93
2433.65,1032.97
2435.1,1036.96
2436.55,1045.7
2438,1019.39
2439.45,1025.84
2440.9,1028.94
2442.35,1025.44
2443.8,1007.49
2445.25,1002.59
2446.7,1018.02
2448.15,1004.91
2449.6,999.349
2451.05,1005.15
2452.5,990.381
2453.95,997.107
2455.4,989.603
2456.85,981.228
2458.3,965.34
2459.75,942.357
2461.2,949.63
2462.65,950.1
2464.1,954.839
2465.55,962.428
2467.01,970.641
2468.46,945.886
2469.91,968.938
2471.36,966.226
2472.81,951.741
2474.26,944.221
2475.71,939.275
2477.16,962.174
2478.61,954.669
2480.06,948.351
2481.51,953.236
2482.96,936.748
2484.41,949.276
2485.86,943.921
2487.31,948.351
2488.76,947.727
2490.21,950.678
2491.66,943.197
2493.11,949.877
2494.56,970.472
2496.01,958.845
2497.46,962.567
2498.91,960.841
2500.36,978.955
2501.81,972.953
2503.26,969.301
2504.71,986.136
2506.16,994.149
2507.61,982.669
2509.06,992.484
2510.51,992.97
2511.97,987.445
2513.42,974.918
2514.87,1005.6
2516.32,1004.87
2517.77,998.432
2519.22,1012.45
2520.67,1015.56
2522.12,1013.85
2523.57,1031.35
2525.02,1060.6
2526.47,1068.87
2527.92,1071.13
2529.37,1073.01
2530.82,1095.83
2532.27,1104.4
2533.72,1102.57
2535.17,1112.08
2536.62,1115.51
2538.07,1139.57
2539.52,1129.48
2540.97,1153.18
2542.42,1166.44
2543.87,1168.37
2545.32,1194.15
2546.77,1189.19
2548.22,1223.3
2549.67,1252.88
2551.12,1265.41
2552.57,1273.99
2554.02,1275.4
2555.48,1282.01
2556.93,1307.66
2558.38,1338.51
2559.83,1354.64
2561.28,1370.92
2562.73,1390.88
2564.18,1440.92
2565.63,1446.87
2567.08,1484.67
2568.53,1498.82
2569.98,1566.7
2571.43,1593.97
2572.88,1616.04
2574.33,1642.81
2575.78,1681.74
2577.23,1712.64
2578.68,1748.19
2580.13,1791.83
2581.58,1814.39
2583.03,1838.09
2584.48,1901.15
2585.93,1949.57
2587.38,1991.13
2588.83,2075.75
2590.28,2104.17
2591.73,2145.65
2593.18,2229.18
2594.63,2309.34
2596.08,2362.6
2597.53,2437.57
2598.98,2537.73
2600.44,2608.72
2601.89,2680.77
2603.34,2774.62
2604.79,2872.18
2606.24,2939.53
2607.69,3052.56
2609.14,3151.73
2610.59,3272.18
2612.04,3361.64
2613.49,3513.95
2614.94,3590.64
2616.39,3691.67
2617.84,3872.43
2619.29,3979.54
2620.74,4118.65
2622.19,4290.79
2623.64,4432.4
2625.09,4545.54
2626.54,4684.03
2627.99,4824.74
2629.44,4990.61
2630.89,5098.94
2632.34,5246.8
2633.79,5413.9
2635.24,5564.5
2636.69,5725.37
2638.14,5837.73
2639.59,5947.05
2641.04,6097.85
2642.49,6236.25
2643.94,6329.47
2645.4,6425.73
2646.85,6494.68
2648.3,6580.9
2649.75,6632.37
2651.2,6673.15
2652.65,6697.45
2654.1,6653.08
2655.55,6667.18
2657,6698.62
2658.45,6644.98
2659.9,6629.53
2661.35,6603.49
2662.8,6540.44
2664.25,6423.45
2665.7,6324.09
2667.15,6248.18
2668.6,6138.9
2670.05,5960.52
2671.5,5798.95
2672.95,5736.54
2674.4,5531.94
2675.85,5440.04
2677.3,5263.65
2678.75,5104
2680.2,4956.8
2681.65,4766.85
2683.1,4638.61
2684.55,4503.09
2686,4376.57
2687.45,4217.56
2688.91,4032.01
2690.36,3893.97
2691.81,3726.95
2693.26,3586.53
2694.71,3467.78
2696.16,3348.03
2697.61,3172.12
2699.06,3111.6
2700.51,3025.77
2701.96,2916.41
2703.41,2801.63
2704.86,2691
2706.31,2591.1
2707.76,2503.89
2709.21,2408.43
2710.66,2307.07
2712.11,2231.13
2713.56,2168.62
2715.01,2101.33
2716.46,2091.8
2717.91,1990.66
2719.36,1944.36
2720.81,1877.83
2722.26,1798.59
2723.71,1776.85
2725.16,1742.41
2726.61,1680.75
2728.06,1644.43
2729.51,1630.26
2730.96,1564.81
2732.41,1550.94
2733.87,1512.11
2735.32,1456.36
2736.77,1439.86
2738.22,1407.44
2739.67,1395.14
2741.12,1363.23
2742.57,1342.47
2744.02,1334.6
2745.47,1272.13
2746.92,1276.04
2748.37,1249.24
2749.82,1243.24
2751.27,1215.84
2752.72,1190.4
2754.17,1197.74
2755.62,1159.95
2757.07,1134.47
2758.52,1136.26
2759.97,1121.34
2761.42,1109.71
2762.87,1111.43
2764.32,1078.2
2765.77,1076.71
2767.22,1077.34
2768.67,1055.17
2770.12,1042.52
2771.57,1044.28
2773.02,1026.12
2774.47,1025.04
2775.92,1013.22
2777.38,1008.49
2778.83,998.656
2780.28,988.37
2781.73,975.542
2783.18,953.683
2784.63,979.055
2786.08,947.088
2787.53,951.903
2788.98,946.787
2790.43,933.913
2791.88,934.976
2793.33,929.136
2794.78,909.157
2796.23,921.469
2797.68,904.311
2799.13,920.368
2800.58,901.237
2802.03,894.063
2803.48,881.967
2804.93,904.403
2806.38,895.982
2807.83,878.561
2809.28,873.923
2810.73,875.017
2812.18,862.443
2813.63,874.709
2815.08,860.987
2816.53,861.734
2817.98,859.215
2819.43,863.298
2820.88,859.7
2822.33,847.272
2823.79,836.74
2825.24,844.468
2826.69,848.158
2828.14,844.992
2829.59,834.367
2831.04,838.627
2832.49,820.806
2833.94,823.133
2835.39,834.598
2836.84,825.737
2838.29,805.921
2839.74,800.89
2841.19,806.237
2842.64,820.175
2844.09,816.73
2845.54,809.557
2846.99,789.825
2848.44,821.523
2849.89,811.152
2851.34,809.157
2852.79,812.439
2854.24,810.158
2855.69,805.751
2857.14,804.372
2858.59,805.821
2860.04,788.307
2861.49,821.006
2862.94,787.868
2864.39,795.496
2865.84,808.903
2867.3,811.753
2868.75,797.915
2870.2,796.428
2871.65,793.732
2873.1,789.147
2874.55,782.452
2876,779.909
2877.45,797.7
2878.9,801.714
2880.35,776.311
2881.8,779.185
2883.25,792.715
2884.7,795.619
2886.15,793.054
2887.6,789.101
2889.05,793.647
2890.5,799.218
2891.95,788.261
2893.4,790.11
2894.85,784.448
2896.3,787.683
2897.75,787.244
2899.2,788.593
2900.65,790.11
2902.1,788.67
2903.55,776.296
2905,781.265
2906.45,786.874
2907.9,780.626
2909.35,776.704
2910.8,772.682
2912.26,763.413
2913.71,771.411
2915.16,762.994
2916.61,767.613
2918.06,751.584
2919.51,770.972
2920.96,761.773
2922.41,772.22
2923.86,761.942
2925.31,755.946
2926.76,763.48
2928.21,759.136
2929.66,753.695
2931.11,747.055
2932.56,747.099
2934.01,745.765
2935.46,731.006
2936.91,729.799
2938.36,730.202
2939.81,729.055
2941.26,724.698
2942.71,721.22
2944.16,731.543
2945.61,729.247
2947.06,716.015
2948.51,715.805
2949.96,708.481
2951.41,714.879
2952.86,719.042
2954.31,715.498
2955.77,700.13
2957.22,699.188
2958.67,690.821
2960.12,704.662
2961.57,685.746
2963.02,697.385
2964.47,693.777
2965.92,696.491
2967.37,691.468
2968.82,691.314
2970.27,688.442
2971.72,688.349
2973.17,680.229
2974.62,679.008
2976.07,673.374
2977.52,670.256
2978.97,671.773
2980.42,676.867
2981.87,670.771
2983.32,671.592
2984.77,668.141
2986.22,671.108
2987.67,669.844
2989.12,679.924
2990.57,671.054
2992.02,673.195
2993.47,673.59
2994.92,674.368
2996.37,666.338
2997.82,674.462
2999.27,680.049
3000.73,663.797
3002.18,670.061
3003.63,653.256
3005.08,670.859
3006.53,672.676
3007.98,669.846
3009.43,670.888
3010.88,664.435
3012.33,657.524
3013.78,649.178
3015.23,656.817
3016.68,663.301
3018.13,670.224
3019.58,648.472
3021.03,648.074
3022.48,652.099
3023.93,659.45
3025.38,663.928
3026.83,667.787
3028.28,666.433
3029.73,670.952
3031.18,663.304
3032.63,655.299
3034.08,671.495
3035.53,655.302
3036.98,660.947
3038.43,644.711
3039.88,655.015
3041.33,682.435
3042.78,679.388
3044.23,664.53
3045.69,664.474
3047.14,659.762
3048.59,656.435
3050.04,662.46
3051.49,645.717
3052.94,661.651
3054.39,664.247
3055.84,652.281
3057.29,666.059
3058.74,669.691
3060.19,687.693
3061.64,673.878
3063.09,683.641
3064.54,677.39
3065.99,672.672
3067.44,678.064
3068.89,685.571
3070.34,684.667
3071.79,673.485
3073.24,687.12
3074.69,693.525
3076.14,699.042
3077.59,698.698
3079.04,707.953
3080.49,715.277
3081.94,714.493
3083.39,690.309
3084.84,710.273
3086.29,727.716
3087.74,710.601
3089.2,723.635
3090.65,733.067
3092.1,749.464
3093.55,740.421
3095,743.413
3096.45,743.62
3097.9,749.324
3099.35,745.819
3100.8,750.113
3102.25,768.935
3103.7,759.489
3105.15,787.876
3106.6,793.37
3108.05,792.961
3109.5,790.349
3110.95,802.7
3112.4,811.576
3113.85,819.304
3115.3,793.655
3116.75,816.746
3118.2,846.117
3119.65,839.76
3121.1,853.228
3122.55,867.212
3124,862.497
3125.45,862.304
3126.9,877.907
3128.35,879.632
3129.8,869.254
3131.25,886.721
3132.7,888.038
3134.16,881.975
3135.61,888.917
3137.06,878.315
3138.51,884.456
3139.96,911.677
3141.41,914.905
3142.86,915.791
3144.31,917.571
3145.76,906.768
3147.21,915.637
3148.66,942.773
3150.11,934.56
3151.56,924.089
3153.01,925.522
3154.46,932.441
3155.91,920.052
3157.36,942.234
3158.81,936.555
3160.26,947.542
3161.71,943.274
3163.16,937.148
3164.61,947.735
3166.06,940.238
3167.51,949.068
3168.96,953.074
3170.41,975.472
3171.86,990.119
3173.31,976.797
3174.76,981.074
3176.21,984.957
3177.67,984.857
3179.12,1005.41
3180.57,997.639
3182.02,999.681
3183.47,1015.44
3184.92,1019.07
3186.37,1027.05
3187.82,1025.37
3189.27,1014.63
3190.72,1021.57
3192.17,1021.72
3193.62,1020.68
3195.07,1015.24
3196.52,1011.26
3197.97,1012.99
3199.42,1010.24
3200.87,991.02
3202.32,1007.87
3203.77,982.93
3205.22,966.928
3206.67,954.6
3208.12,994.411
3209.57,962.852
3211.02,941.564
3212.47,931.678
3213.92,936.463
3215.37,928.103
3216.82,913.857
3218.27,918.156
3219.72,900.72
3221.17,890.303
3222.63,881.281
3224.08,878.931
3225.53,863.853
3226.98,839.876
3228.43,837.464
3229.88,825.606
3231.33,812.709
3232.78,792.352
3234.23,787.691
3235.68,771.804
3237.13,743.038
3238.58,767.297
3240.03,767.778
3241.48,750.853
3242.93,737.321
3244.38,730.284
3245.83,712.559
3247.28,706.055
3248.73,704.36
3250.18,713.633
3251.63,702.029
3253.08,688.969
3254.53,687.007
3255.98,670.558
3257.43,665.365
3258.88,673.865
3260.33,661.821
3261.78,676.233
3263.23,669.759
3264.68,651.41
3266.13,666.074
3267.59,679.997
3269.04,661.082
3270.49,653.116
3271.94,665.442
3273.39,647.849
3274.84,639.674
3276.29,665.279
3277.74,637.476
3279.19,641.206
3280.64,655.004
3282.09,653.4
3283.54,648.896
3284.99,636.186
3286.44,641.027
3287.89,645.257
3289.34,628.55
3290.79,639.641
3292.24,643.107
3293.69,641.665
3295.14,640.491
3296.59,639.221
3298.04,631.884
3299.49,640.715
3300.94,638.727
3302.39,653.228
3303.84,635.841
3305.29,633.501
3306.74,641.278
3308.19,636.87
3309.64,638.189
3311.09,644.888
3312.55,641.699
3314,654.048
3315.45,644.095
3316.9,638.794
3318.35,634.424
3319.8,630.286
3321.25,640.884
3322.7,632.244
3324.15,632.347
3325.6,646.806
3327.05,646.871
3328.5,631.04
3329.95,636.868
3331.4,651.021
3332.85,636.452
3334.3,635.891
3335.75,631.05
3337.2,634.763
3338.65,626.957
3340.1,640.871
3341.55,630.221
3343,631.168
3344.45,629.171
3345.9,633.05
3347.35,603.194
3348.8,634.73
3350.25,638.413
3351.7,644.961
3353.15,644.704
3354.6,637.833
3356.06,633.586
3357.51,645.284
3358.96,618.297
3360.41,624.391
3361.86,628.126
3363.31,637.254
3364.76,620.161
3366.21,630.555
3367.66,646.572
3369.11,643.745
3370.56,640.008
3372.01,641.75
3373.46,624.093
3374.91,646.489
3376.36,648.728
3377.81,640.215
3379.26,628.301
3380.71,649.153
3382.16,654.407
3383.61,644.579
3385.06,639.462
3386.51,632.738
3387.96,641.242
3389.41,656.419
3390.86,654.866
3392.31,633.297
3393.76,639.972
3395.21,646.012
3396.66,625.34
3398.11,645.744
3399.56,643.171
3401.02,643.851
3402.47,643.199
3403.92,635.435
3405.37,645.612
3406.82,630.232
3408.27,653.013
3409.72,641.342
3411.17,643.969
3412.62,631.99
3414.07,650.422
3415.52,631.396
3416.97,647.994
3418.42,647.079
3419.87,641.559
3421.32,638.362
3422.77,637.808
3424.22,645.375
3425.67,658.346
3427.12,665.495
3428.57,646.039
3430.02,649.15
3431.47,645.049
3432.92,633.134
3434.37,642.773
3435.82,651.692
3437.27,652.815
3438.72,656.352
3440.17,642.1
3441.62,645.718
3443.07,648.65
3444.52,655.7
3445.98,647.499
3447.43,629.036
3448.88,635.73
3450.33,640.128
3451.78,645.622
3453.23,657.496
3454.68,643.974
3456.13,647.714
3457.58,664.025
3459.03,647.59
3460.48,643.816
3461.93,645.28
3463.38,639.728
3464.83,652.735
3466.28,652.343
3467.73,637.014
3469.18,657.714
3470.63,651.48
3472.08,648.644
3473.53,645.002
3474.98,650.628
3476.43,631.7
3477.88,661.947
3479.33,654.012
3480.78,652.016
3482.23,659.057
3483.68,655.309
3485.13,648.879
3486.58,653.557
3488.03,644.772
3489.49,644.633
3490.94,645.765
3492.39,646.794
3493.84,656.518
3495.29,645.219
3496.74,653.612
3498.19,644.481
3499.64,667.432
3501.09,644.908
3502.54,666.481
3503.99,658.29
3505.44,647.109
3506.89,662.638
3508.34,660.659
3509.79,671.32
3511.24,667.729
3512.69,666.761
3514.14,658.281
3515.59,664.73
3517.04,685.558
3518.49,669.225
3519.94,658.203
3521.39,645.28
3522.84,674.935
3524.29,660.414
3525.74,652.705
3527.19,669.263
3528.64,662.114
3530.09,666.485
3531.54,651.523
3532.99,653.401
3534.45,660.81
3535.9,676.484
3537.35,659.423
3538.8,659.676
3540.25,648.17
3541.7,650.585
3543.15,654.245
3544.6,659.315
3546.05,678.052
3547.5,670.742
3548.95,676.225
3550.4,672.597
3551.85,672.6
3553.3,651.281
3554.75,656.299
3556.2,657.157
3557.65,669.59
3559.1,663.272
3560.55,659.785
3562,651.542
3563.45,674.43
3564.9,672.619
3566.35,660.143
3567.8,675.754
3569.25,663.899
3570.7,671.487
3572.15,673.146
3573.6,675.885
3575.05,671.953
3576.5,652.967
3577.96,650.971
3579.41,667.498
3580.86,662.17
3582.31,671.205
3583.76,676.577
3585.21,674.999
3586.66,669.443
3588.11,679.776
3589.56,666.048
3591.01,677.379
3592.46,685.16
3593.91,667.022
3595.36,669.338
3596.81,679.364
3598.26,675.761
3599.71,663.626
3601.16,672.963
3602.61,680.656
3604.06,672.216
3605.51,670.769
3606.96,669.604
3608.41,679.934
3609.86,674.068
3611.31,682.141
3612.76,666.952
3614.21,666.128
3615.66,693.098
3617.11,672.171
3618.56,679.885
3620.01,674.301
3621.46,682.209
3622.92,681.263
3624.37,681.723
3625.82,681.902
3627.27,684.344
3628.72,664.119
3630.17,674.272
3631.62,683.697
3633.07,669.061
3634.52,682.206
3635.97,683.674
3637.42,682.069
3638.87,687.684
3640.32,669.003
3641.77,696.218
3643.22,697.567
3644.67,686.819
3646.12,687.242
3647.57,689.34
3649.02,685.976
3650.47,694.004
3651.92,688.353
3653.37,694.992
3654.82,691.304
3656.27,687.802
3657.72,684.9
3659.17,695.067
3660.62,700.536
3662.07,693.989
3663.52,692.139
3664.97,695.351
3666.43,691.092
3667.88,703.782
3669.33,682.97
3670.78,686.246
3672.23,694.12
3673.68,700.899
3675.13,700.995
3676.58,703.722
3678.03,693.027
3679.48,703.838
3680.93,708.819
3682.38,693.489
3683.83,692.666
3685.28,691.442
3686.73,707.651
3688.18,701.917
3689.63,703.533
3691.08,697.016
3692.53,707.941
3693.98,700.193
3695.43,707.155
3696.88,699.902
3698.33,691.942
3699.78,692.008
3701.23,700.599
3702.68,703.504
3704.13,716.192
3705.58,703.367
3707.03,716.06
3708.48,702.539
3709.93,699.316
3711.39,707.315
3712.84,689.392
3714.29,712.186
3715.74,705.389
3717.19,707.037
3718.64,711.655
3720.09,706.512
3721.54,706.19
3722.99,706.174
3724.44,709.89
3725.89,701.955
3727.34,693.511
3728.79,695.96
3730.24,693.059
3731.69,714.167
3733.14,711.565
3734.59,713.687
3736.04,704.664
3737.49,707.108
3738.94,715.753
3740.39,728.196
3741.84,704.019
3743.29,724.974
3744.74,731.376
3746.19,711.27
3747.64,719.801
3749.09,726.556
3750.54,708.166
3751.99,711.507
3753.44,716.017
3754.89,717.689
3756.35,724.842
3757.8,721.324
3759.25,720.875
3760.7,721.465
3762.15,718.957
3763.6,710.651
3765.05,723.704
3766.5,723.264
3767.95,727.447
3769.4,724.931
3770.85,722.491
3772.3,715.964
3773.75,717.203
3775.2,722.56
3776.65,720.218
3778.1,731.229
3779.55,720.886
3781,732.35
3782.45,741.126
3783.9,727.977
3785.35,717.001
3786.8,744.43
3788.25,716.748
3789.7,730.837
3791.15,719.219
3792.6,741.395
3794.05,726.629
3795.5,717.175
3796.95,723.011
3798.4,715.241
3799.85,731.747
3801.31,732.143
3802.76,717.401
3804.21,749.619
3805.66,746.751
3807.11,747.324
3808.56,740.187
3810.01,746.567
3811.46,751.754
3812.91,750.137
3814.36,739.02
3815.81,739.597
3817.26,743.002
3818.71,742.462
3820.16,750.021
3821.61,751.851
3823.06,737.94
3824.51,733.379
3825.96,747.882
3827.41,748.536
3828.86,747.266
3830.31,754.628
3831.76,747.477
3833.21,752.08
3834.66,763.32
3836.11,761.582
3837.56,756.904
3839.01,751.772
3840.46,752.08
3841.91,745.483
3843.36,744.206
3844.82,723.186
3846.27,749.307
3847.72,758.989
3849.17,757.272
3850.62,770.221
3852.07,761.029
3853.52,756.902
3854.97,758.017
3856.42,757.053
3857.87,756.912
3859.32,764.589
3860.77,761.117
3862.22,759.792
3863.67,768.742
3865.12,767.174
3866.57,759.884
3868.02,760.111
3869.47,776.812
3870.92,759.58
3872.37,755.691
3873.82,767.719
3875.27,783.199
3876.72,791.49
3878.17,787.907
3879.62,767.539
3881.07,772.228
3882.52,771.65
3883.97,773.753
3885.42,782.413
3886.87,781.766
3888.32,788.354
3889.78,776.858
3891.23,783.685
3892.68,779.979
3894.13,778.245
3895.58,784.571
3897.03,794.363
3898.48,796.012
3899.93,801.983
3901.38,797.877
3902.83,781.866
3904.28,799.518
3905.73,801.429
3907.18,802.284
3908.63,788.069
3910.08,797.869
3911.53,794.895
3912.98,807.878
3914.43,801.144
3915.88,802.43
3917.33,793.739
3918.78,787.745
3920.23,803.586
3921.68,808.648
3923.13,819.496
3924.58,805.427
3926.03,812.308
3927.48,809.018
3928.93,837.287
3930.38,808.278
3931.83,812.223
3933.28,815.752
3934.74,819.774
3936.19,834.074
3937.64,824.844
3939.09,812.131
3940.54,834.606
3941.99,825.499
3943.44,819.558
3944.89,823.364
3946.34,831.801
3947.79,840.716
3949.24,834.582
3950.69,837.341
3952.14,842.295
3953.59,846.802
3955.04,849.553
3956.49,824.874
3957.94,853.051
3959.39,833.835
3960.84,831.716
3962.29,838.419
3963.74,834.197
3965.19,827.402
3966.64,859.076
3968.09,839.406
3969.54,855.278
3970.99,835.43
3972.44,851.918
3973.89,849.029
3975.34,867.875
3976.79,863.437
3978.25,869.054
3979.7,866.927
3981.15,857.997
3982.6,863.059
3984.05,871.057
3985.5,874.925
3986.95,886.436
3988.4,871.681
3989.85,875.526
3991.3,872.043
3992.75,877.675
3994.2,888.269
3995.65,869.608
3997.1,913.233
3998.55,875.711
4000,877.591
