0.1,3.73635
1.45033,3.73635
2.90065,3.73635
4.35098,3.73635
5.80131,3.73635
7.25163,3.73635
8.70196,15.6313
10.1523,6.85689
11.6026,5.40301
13.0529,5.99866
14.5033,6.70747
15.9536,6.07895
17.4039,2.43787
18.8542,0.208498
20.3046,0.164354
21.7549,1.45111
23.2052,3.00065
24.6555,2.81846
26.1059,2.01108
27.5562,0.570633
29.0065,0.132933
30.4569,2.75251
31.9072,1.29378
33.3575,1.20452
34.8078,1.05059
36.2582,0.573798
37.7085,1.12115
39.1588,0.153455
40.6091,1.18506
42.0595,3.3075
43.5098,5.1909
44.9601,5.92127
46.4104,5.59945
47.8608,8.66121
49.3111,15.1416
50.7614,22.8477
52.2117,56.8369
53.6621,110.466
55.1124,191.109
56.5627,300.042
58.0131,429.678
59.4634,556.684
60.9137,670.545
62.364,750.333
63.8144,786.255
65.2647,852.13
66.715,880.39
68.1653,904.852
69.6157,932.541
71.066,958.828
72.5163,970.361
73.9666,966.964
75.417,958.344
76.8673,959.368
78.3176,999.683
79.7679,1007.32
81.2183,1023.78
82.6686,1052.54
84.1189,1089.57
85.5693,1113.96
87.0196,1120.81
88.4699,1119.92
89.9202,1096.12
91.3706,1029.48
92.8209,974.42
94.2712,924.044
95.7215,868.23
97.1719,817.245
98.6222,802.554
100.073,773.928
101.523,740.627
102.973,710.291
104.423,686.986
105.874,668.24
107.324,652.823
108.774,645.395
110.225,633.973
111.675,612.088
113.125,616.87
114.576,626.473
116.026,621.054
117.476,601.629
118.927,578.379
120.377,584.829
121.827,572.7
123.278,565.905
124.728,565.557
126.178,556.9
127.629,544.752
129.079,532.187
130.529,523.808
131.98,518.797
133.43,508.106
134.88,495.144
136.331,478.391
137.781,470.79
139.231,473.406
140.682,452.377
142.132,457.939
143.582,449.193
145.033,434.578
146.483,425.581
147.933,411.549
149.384,423.682
150.834,419.889
152.284,405.088
153.735,397.404
155.185,414.033
156.635,400.03
158.086,394.691
159.536,402.081
160.986,410.674
162.437,409.38
163.887,395.125
165.337,378.632
166.788,365.69
168.238,359.327
169.688,360.994
171.139,352.984
172.589,348.361
174.039,347.057
175.489,335.935
176.94,357.754
178.39,363.183
179.84,361.825
181.291,358.602
182.741,351.189
184.191,342.515
185.642,334.326
187.092,325.173
188.542,319.76
189.993,334.985
191.443,322.457
192.893,322.355
194.344,329.54
195.794,332.999
197.244,314.068
198.695,318.298
200.145,319.452
201.595,315.016
203.046,307.384
204.496,305.897
205.946,313.487
207.397,317.87
208.847,322.615
210.297,328.078
211.748,320.827
213.198,321.74
214.648,324.526
216.099,323.8
217.549,318.71
218.999,320.943
220.45,327.767
221.9,323.676
223.35,314.422
224.801,309.147
226.251,319.759
227.701,316.585
229.152,323.154
230.602,318.549
232.052,298.07
233.503,314.484
234.953,315.443
236.403,316.199
237.854,316.95
239.304,316.884
240.754,316.511
242.204,313.533
243.655,310.871
245.105,304.126
246.555,294.714
248.006,297.699
249.456,298.926
250.906,303.96
252.357,309.333
253.807,308.32
255.257,289.061
256.708,293.903
258.158,298.356
259.608,300.781
261.059,302.809
262.509,309.171
263.959,282.959
265.41,279.453
266.86,279.674
268.31,281.339
269.761,300.342
271.211,290.977
272.661,287.213
274.112,281.22
275.562,277.379
277.012,287.599
278.463,286.85
279.913,289.091
281.363,286.455
282.814,283.175
284.264,287.132
285.714,277.19
287.165,279.747
288.615,283.146
290.065,278.257
291.516,263.309
292.966,272.695
294.416,282.575
295.867,276.373
297.317,267.509
298.767,268.171
300.218,264.229
301.668,266.814
303.118,267.976
304.569,257.54
306.019,241.306
307.469,256.348
308.919,249.67
310.37,251.282
311.82,250.499
313.27,245.182
314.721,244.803
316.171,244.239
317.621,246.598
319.072,240.641
320.522,234.922
321.972,246.607
323.423,245.666
324.873,237.502
326.323,237.021
327.774,242.262
329.224,245.107
330.674,236.436
332.125,244.418
333.575,244.858
335.025,238.332
336.476,230.74
337.926,230.174
339.376,229.247
340.827,232.399
342.277,234.433
343.727,235.039
345.178,239.144
346.628,226.492
348.078,232.248
349.529,244.308
350.979,250.334
352.429,241.13
353.88,227.146
355.33,234.75
356.78,239.479
358.231,240.003
359.681,238.744
361.131,233.26
362.582,224.566
364.032,220.658
365.482,223.143
366.933,227.232
368.383,222.195
369.833,220.299
371.284,217.202
372.734,217.114
374.184,217.598
375.635,215.996
377.085,229.258
378.535,235.518
379.986,225.252
381.436,216.971
382.886,222.508
384.336,227.438
385.787,221.886
387.237,217.696
388.687,219.776
390.138,225.745
391.588,227.838
393.038,224.422
394.489,215.76
395.939,220.134
397.389,226.303
398.84,220.531
400.29,211.414
401.74,224.889
403.191,217.729
404.641,216.754
406.091,224.566
407.542,212.928
408.992,218.821
410.442,225.646
411.893,227.056
413.343,226.549
414.793,227.46
416.244,216.995
417.694,225.143
419.144,225.788
420.595,218.631
422.045,212.43
423.495,221.002
424.946,218.908
426.396,216.036
427.846,210.957
429.297,214.221
430.747,228.716
432.197,212.879
433.648,220.981
435.098,218.189
436.548,212.321
437.999,210.494
439.449,212.998
440.899,204.985
442.35,215.825
443.8,215.354
445.25,210.104
446.701,213.851
448.151,224.555
449.601,223.023
451.051,220.92
452.502,219.413
453.952,214.71
455.402,203.565
456.853,216.766
458.303,213.042
459.753,213.324
461.204,213.911
462.654,211.359
464.104,212.691
465.555,209.821
467.005,213.87
468.455,218.057
469.906,214.754
471.356,204.617
472.806,221.866
474.257,224.054
475.707,219.438
477.157,218.517
478.608,223.422
480.058,226.004
481.508,205.883
482.959,215.523
484.409,217.038
485.859,216.572
487.31,219.993
488.76,210.622
490.21,222.322
491.661,228.281
493.111,220.852
494.561,208.504
496.012,205.265
497.462,216.013
498.912,208.879
500.363,212.82
501.813,214.292
503.263,210.775
504.714,211.335
506.164,218.828
507.614,216.437
509.065,214.214
510.515,214.294
511.965,213.938
513.416,207.559
514.866,211.987
516.316,216.897
517.766,217.533
519.217,215.12
520.667,212.41
522.117,211.09
523.568,215.522
525.018,211.346
526.468,208.058
527.919,207.491
529.369,210.581
530.819,226.396
532.27,211.026
533.72,215.187
535.17,214.769
536.621,211.369
538.071,218.092
539.521,220.021
540.972,214.354
542.422,217.5
543.872,214.809
545.323,210.949
546.773,220.302
548.223,215.664
549.674,214.903
551.124,218.486
552.574,220.586
554.025,218.981
555.475,216.057
556.925,214.703
558.376,213.521
559.826,210.892
561.276,210.433
562.727,210.135
564.177,204.021
565.627,211.766
567.078,208.096
568.528,202.342
569.978,201.785
571.429,205.395
572.879,204.809
574.329,211.399
575.78,204.948
577.23,209.004
578.68,213.411
580.131,213.788
581.581,219.077
583.031,207.438
584.482,213.223
585.932,212.169
587.382,210.768
588.832,211.083
590.283,204.086
591.733,204.086
593.183,208.516
594.634,215.941
596.084,211.403
597.534,197.32
598.985,195.177
600.435,197.121
601.885,208.391
603.336,211.29
604.786,213.102
606.236,215.61
607.687,212.286
609.137,210.535
610.587,213.012
612.038,217.173
613.488,217.346
614.938,215.549
616.389,217.707
617.839,213.034
619.289,218.659
620.74,210.381
622.19,208.701
623.64,211.577
625.091,204.608
626.541,203.438
627.991,211.04
629.442,219.779
630.892,221.076
632.342,215.266
633.793,208.561
635.243,207.585
636.693,219.762
638.144,218.808
639.594,213.681
641.044,212.155
642.495,216.844
643.945,222.181
645.395,205.969
646.846,218.335
648.296,224.056
649.746,223.454
651.197,222.431
652.647,219.972
654.097,220.754
655.547,224.664
656.998,224.866
658.448,221.205
659.898,217.915
661.349,219.112
662.799,216.568
664.249,222.695
665.7,224.48
667.15,220.688
668.6,221.591
670.051,231.634
671.501,225.956
672.951,224.193
674.402,226.421
675.852,228.574
677.302,224.264
678.753,217.431
680.203,224.749
681.653,227.498
683.104,230.071
684.554,224.572
686.004,224.344
687.455,227.623
688.905,222.112
690.355,226.234
691.806,233.359
693.256,226.576
694.706,228.898
696.157,232.897
697.607,228.76
699.057,236.856
700.508,228.2
701.958,224.723
703.408,224.914
704.859,225.823
706.309,223.193
707.759,216.96
709.21,233.483
710.66,232.549
712.11,229.791
713.561,226.95
715.011,226.944
716.461,230.382
717.912,230.245
719.362,224.725
720.812,236.676
722.263,238.646
723.713,238.866
725.163,238.245
726.613,225.602
728.064,228.361
729.514,223.872
730.964,226.464
732.415,235.656
733.865,236.241
735.315,225.72
736.766,235.428
738.216,233.848
739.666,229.868
741.117,232.064
742.567,236.796
744.017,238.833
745.468,235.024
746.918,224.543
748.368,225.494
749.819,230.646
751.269,245.815
752.719,247.993
754.17,235.223
755.62,242.878
757.07,251.787
758.521,247.025
759.971,238.283
761.421,230.044
762.872,232.681
764.322,243.924
765.772,232.757
767.223,228.595
768.673,241.497
770.123,240.28
771.574,231.133
773.024,230.245
774.474,242.115
775.925,235.972
777.375,246.489
778.825,238.445
780.276,238.885
781.726,240.285
783.176,239.71
784.627,246.005
786.077,239.45
787.527,249.393
788.978,246.042
790.428,242.796
791.878,241.803
793.328,241.977
794.779,244.941
796.229,246.134
797.68,237.813
799.13,238.177
800.58,243.619
802.03,249.391
803.481,248.375
804.931,234.282
806.381,238.859
807.832,246.736
809.282,250.113
810.732,248.89
812.183,246.329
813.633,243.031
815.083,235.139
816.534,242.512
817.984,236.294
819.434,247.204
820.885,251.147
822.335,248.903
823.785,254.159
825.236,264.377
826.686,255.198
828.136,259.966
829.587,270.593
831.037,265.765
832.487,256.743
833.938,256.127
835.388,246.933
836.838,267.905
838.289,260.033
839.739,253.635
841.189,251.092
842.64,253.567
844.09,257.136
845.54,252.318
846.991,263.116
848.441,255.724
849.891,267.419
851.342,264.492
852.792,251.016
854.242,248.422
855.693,259.988
857.143,245.974
858.593,263.37
860.044,271.177
861.494,275.104
862.944,270.023
864.394,261.227
865.845,264.378
867.295,256.362
868.745,264.279
870.196,260.489
871.646,260.295
873.096,258.484
874.547,252.958
875.997,252.986
877.447,268.368
878.898,270.976
880.348,255.768
881.798,254.205
883.249,252.53
884.699,253.554
886.149,264.33
887.6,261.156
889.05,258.541
890.5,261.052
891.951,265.882
893.401,266.528
894.851,272.972
896.302,282.159
897.752,269.405
899.202,263.169
900.653,256.732
902.103,273.306
903.553,272.185
905.004,265.02
906.454,265.671
907.904,268.818
909.355,268.832
910.805,263.187
912.255,278.054
913.706,285.74
915.156,280.185
916.606,278.741
918.057,287.714
919.507,280.414
920.957,269.312
922.408,285.674
923.858,281.845
925.308,271.78
926.759,272.906
928.209,282.058
929.659,281.547
931.109,273.181
932.56,279.448
934.01,271.269
935.46,277.702
936.911,280.868
938.361,284.743
939.811,291.666
941.262,281.705
942.712,282.716
944.162,269.536
945.613,285.644
947.063,278.671
948.513,267.381
949.964,268.557
951.414,279.439
952.864,301.725
954.315,294.237
955.765,279.8
957.215,287.001
958.666,286.832
960.116,281.829
961.566,277.727
963.017,271.54
964.467,279.985
965.917,280.999
967.368,288.138
968.818,283.43
970.268,279.958
971.719,283.627
973.169,287.136
974.619,280.63
976.07,273.086
977.52,289.318
978.97,289.837
980.421,289.403
981.871,291.342
983.321,284.428
984.772,272.031
986.222,280.852
987.672,287.564
989.123,294.067
990.573,290.779
992.023,287.688
993.474,287.605
994.924,288.14
996.374,284.873
997.825,278.417
999.275,292.061
1000.73,299.688
1002.18,303.288
1003.63,304.294
1005.08,296.236
1006.53,293.436
1007.98,304.623
1009.43,308.378
1010.88,314.087
1012.33,313.957
1013.78,308.745
1015.23,304.065
1016.68,309.544
1018.13,315.741
1019.58,315.541
1021.03,320.409
1022.48,315.331
1023.93,318.394
1025.38,326.044
1026.83,326.578
1028.28,324.725
1029.73,320.387
1031.18,320.923
1032.63,337.36
1034.08,336.623
1035.53,324.969
1036.98,345.566
1038.43,344.691
1039.88,349.337
1041.33,355.887
1042.78,360.369
1044.23,366.974
1045.69,344.67
1047.14,362.483
1048.59,355.724
1050.04,354.927
1051.49,360.197
1052.94,364.259
1054.39,372.795
1055.84,383.03
1057.29,365.336
1058.74,369.231
1060.19,373.931
1061.64,376.048
1063.09,382.933
1064.54,393.494
1065.99,398.851
1067.44,400.659
1068.89,411.282
1070.34,415.343
1071.79,408.362
1073.24,408.265
1074.69,414.285
1076.14,406.875
1077.59,408.287
1079.04,427.141
1080.49,439.13
1081.94,426.752
1083.39,422.23
1084.84,433.407
1086.29,418.072
1087.74,411.771
1089.2,407.816
1090.65,409.499
1092.1,417.482
1093.55,418.565
1095,418.231
1096.45,419.055
1097.9,413.921
1099.35,412
1100.8,408.89
1102.25,415.193
1103.7,420.659
1105.15,414.98
1106.6,414.248
1108.05,408.603
1109.5,407.364
1110.95,418.016
1112.4,413.889
1113.85,402.617
1115.3,400.807
1116.75,406.81
1118.2,404.469
1119.65,390.27
1121.1,387.046
1122.55,392.827
1124,389.136
1125.45,391.989
1126.9,388.903
1128.35,389.587
1129.8,393.261
1131.25,387.785
1132.7,383.692
1134.16,386.973
1135.61,378.08
1137.06,378.261
1138.51,379.242
1139.96,375.903
1141.41,384.743
1142.86,389.089
1144.31,373.475
1145.76,386.846
1147.21,387.483
1148.66,389.764
1150.11,377.153
1151.56,374.682
1153.01,367.145
1154.46,370.104
1155.91,381.469
1157.36,382.816
1158.81,379.975
1160.26,370.906
1161.71,369.867
1163.16,372.043
1164.61,369.945
1166.06,372.318
1167.51,374.776
1168.96,372.495
1170.41,373.407
1171.86,383.497
1173.31,371.919
1174.76,389.783
1176.21,374.558
1177.66,379.912
1179.12,377.79
1180.57,371.701
1182.02,365.601
1183.47,367.646
1184.92,380.176
1186.37,375.372
1187.82,381.411
1189.27,372.465
1190.72,386.097
1192.17,393.845
1193.62,397.359
1195.07,395.869
1196.52,393.849
1197.97,392.633
1199.42,386.39
1200.87,396.497
1202.32,395.87
1203.77,399.205
1205.22,390.587
1206.67,391.202
1208.12,386.366
1209.57,380.175
1211.02,384.371
1212.47,395.07
1213.92,400.021
1215.37,398.399
1216.82,398.399
1218.27,396.868
1219.72,394.358
1221.17,393.944
1222.63,396.972
1224.08,394.641
1225.53,398.273
1226.98,419.508
1228.43,410.076
1229.88,392.068
1231.33,407.557
1232.78,400.445
1234.23,419
1235.68,416.732
1237.13,415.595
1238.58,410.755
1240.03,398.047
1241.48,406.045
1242.93,416.001
1244.38,418.993
1245.83,408.722
1247.28,412.809
1248.73,419.799
1250.18,413.984
1251.63,427.843
1253.08,447.291
1254.53,440.081
1255.98,421.662
1257.43,430.826
1258.88,449.339
1260.33,440.309
1261.78,439.395
1263.23,444.474
1264.68,447.077
1266.13,448.628
1267.59,446.098
1269.04,446.904
1270.49,459.124
1271.94,469.553
1273.39,487.883
1274.84,474.826
1276.29,483.32
1277.74,503.169
1279.19,498.203
1280.64,494.052
1282.09,498.558
1283.54,500.039
1284.99,506.169
1286.44,532.605
1287.89,539.581
1289.34,545.08
1290.79,552.666
1292.24,563.688
1293.69,570.341
1295.14,588.046
1296.59,613.549
1298.04,624.793
1299.49,628.608
1300.94,644.89
1302.39,661.38
1303.84,695.853
1305.29,687.833
1306.74,690.34
1308.19,737.33
1309.64,773.377
1311.09,787.086
1312.55,809.403
1314,832.856
1315.45,852.427
1316.9,884.942
1318.35,915.459
1319.8,971.366
1321.25,995.894
1322.7,1024.76
1324.15,1072.3
1325.6,1095.99
1327.05,1121.85
1328.5,1148.07
1329.95,1161.65
1331.4,1162.44
1332.85,1171.46
1334.3,1205.16
1335.75,1196.35
1337.2,1181.09
1338.65,1163.54
1340.1,1162.38
1341.55,1165.44
1343,1122.35
1344.45,1095.33
1345.9,1084.88
1347.35,1051.33
1348.8,1013.81
1350.25,1010.19
1351.7,987.628
1353.15,939.523
1354.6,903.224
1356.06,872.519
1357.51,857.155
1358.96,822.419
1360.41,789.611
1361.86,769.406
1363.31,735.843
1364.76,698.57
1366.21,699.15
1367.66,692.974
1369.11,664.129
1370.56,671.156
1372.01,645.136
1373.46,642.372
1374.91,631.333
1376.36,620.297
1377.81,613.008
1379.26,607.688
1380.71,595.738
1382.16,579.884
1383.61,577.536
1385.06,578.703
1386.51,587.203
1387.96,568.879
1389.41,587.391
1390.86,579.644
1392.31,565.181
1393.76,555.561
1395.21,556.223
1396.66,552.985
1398.11,551.243
1399.56,559.472
1401.02,559.918
1402.47,570.48
1403.92,575.939
1405.37,549.862
1406.82,558.857
1408.27,550.955
1409.72,554.118
1411.17,549.594
1412.62,550.122
1414.07,558.757
1415.52,559.898
1416.97,563.563
1418.42,581.007
1419.87,567.194
1421.32,581.485
1422.77,586.189
1424.22,572.049
1425.67,583.959
1427.12,580.927
1428.57,581.756
1430.02,576.617
1431.47,577.35
1432.92,584.162
1434.37,597.228
1435.82,603.463
1437.27,580.423
1438.72,597.321
1440.17,603.838
1441.62,591.603
1443.07,637.224
1444.53,628.098
1445.98,627.836
1447.43,631.896
1448.88,630.402
1450.33,629.996
1451.78,644.864
1453.23,658.448
1454.68,659.456
1456.13,674.465
1457.58,668.839
1459.03,686.721
1460.48,683.064
1461.93,692.521
1463.38,690.37
1464.83,695.046
1466.28,723.456
1467.73,743.052
1469.18,742.849
1470.63,738.941
1472.08,749.458
1473.53,766.849
1474.98,770.291
1476.43,774.199
1477.88,785.902
1479.33,821.28
1480.78,811.134
1482.23,813.771
1483.68,860.87
1485.13,865.742
1486.58,881.943
1488.03,902.375
1489.49,899.721
1490.94,921.332
1492.39,958.372
1493.84,970.687
1495.29,1011.92
1496.74,998.426
1498.19,1004.52
1499.64,1069.91
1501.09,1088.07
1502.54,1115.28
1503.99,1145.42
1505.44,1173.72
1506.89,1208.26
1508.34,1245.56
1509.79,1300.62
1511.24,1346.32
1512.69,1391.82
1514.14,1475.36
1515.59,1548.64
1517.04,1597.21
1518.49,1661.96
1519.94,1723.54
1521.39,1855.41
1522.84,1948.35
1524.29,2055.97
1525.74,2176.91
1527.19,2312.28
1528.64,2465.16
1530.09,2632.72
1531.54,2826.21
1532.99,3049.77
1534.45,3270.36
1535.9,3514.05
1537.35,3870.9
1538.8,4223.59
1540.25,4617.36
1541.7,4982.47
1543.15,5387.11
1544.6,5871.05
1546.05,6382.81
1547.5,6966.01
1548.95,7511.69
1550.4,8030.01
1551.85,8598.22
1553.3,9174.49
1554.75,9748.76
1556.2,10345.1
1557.65,10892.8
1559.1,10910.3
1560.55,10923.4
1562,10948.5
1563.45,10956
1564.9,10961.5
1566.35,10955
1567.8,10952.2
1569.25,10960.6
1570.7,10958.8
1572.15,10606.1
1573.6,10057.2
1575.05,9489.98
1576.5,8918.07
1577.96,8293.48
1579.41,7653.94
1580.86,7071.17
1582.31,6531.72
1583.76,5969.43
1585.21,5483.34
1586.66,5013.71
1588.11,4612.27
1589.56,4262.65
1591.01,3919.79
1592.46,3634.6
1593.91,3401.27
1595.36,3155.3
1596.81,2949.03
1598.26,2738.2
1599.71,2580.44
1601.16,2473.95
1602.61,2349.79
1604.06,2236.21
1605.51,2139.93
1606.96,2038.26
1608.41,1934.01
1609.86,1852.6
1611.31,1755.35
1612.76,1719.56
1614.21,1605.88
1615.66,1563.23
1617.11,1497.17
1618.56,1457.42
1620.01,1394.18
1621.46,1342.85
1622.92,1291.3
1624.37,1250.65
1625.82,1221.44
1627.27,1185.96
1628.72,1158.61
1630.17,1122.28
1631.62,1100.95
1633.07,1073.95
1634.52,1054.07
1635.97,1019.76
1637.42,1017.83
1638.87,988.475
1640.32,962.663
1641.77,958.176
1643.22,945.908
1644.67,931.434
1646.12,916.339
1647.57,912.844
1649.02,899.313
1650.47,879.26
1651.92,875.235
1653.37,873.301
1654.82,853.079
1656.27,840.815
1657.72,837.404
1659.17,820.346
1660.62,805.266
1662.07,808.679
1663.52,825.771
1664.97,817.42
1666.42,806.459
1667.88,799.33
1669.33,792.735
1670.78,782.001
1672.23,765.37
1673.68,769.574
1675.13,767.494
1676.58,765.948
1678.03,755.278
1679.48,745.881
1680.93,752.149
1682.38,750.619
1683.83,744.55
1685.28,736.702
1686.73,741.939
1688.18,740.283
1689.63,737.865
1691.08,731.19
1692.53,718.645
1693.98,717.506
1695.43,730.568
1696.88,738.627
1698.33,732.955
1699.78,734.825
1701.23,723.831
1702.68,726.398
1704.13,717.358
1705.58,724.89
1707.03,724.69
1708.48,708.053
1709.93,724.517
1711.39,724.223
1712.84,723.553
1714.29,720.409
1715.74,731.08
1717.19,739.43
1718.64,724.291
1720.09,725.528
1721.54,728.197
1722.99,709.953
1724.44,713.358
1725.89,733.431
1727.34,740.134
1728.79,740.225
1730.24,722.254
1731.69,710.082
1733.14,740.292
1734.59,716.497
1736.04,710.712
1737.49,728.659
1738.94,713.683
1740.39,711.469
1741.84,725.228
1743.29,712.775
1744.74,708.033
1746.19,695.909
1747.64,689.345
1749.09,699.618
1750.54,689.418
1751.99,687.889
1753.44,698.548
1754.89,689.699
1756.35,688.209
1757.8,704.474
1759.25,700.438
1760.7,691.814
1762.15,694.887
1763.6,678.562
1765.05,679.694
1766.5,690.546
1767.95,686.016
1769.4,666.119
1770.85,663.837
1772.3,658.713
1773.75,669.871
1775.2,665.305
1776.65,664.242
1778.1,665.478
1779.55,669.338
1781,665.11
1782.45,667.562
1783.9,664.897
1785.35,673.617
1786.8,676.009
1788.25,673.152
1789.7,666.656
1791.15,664.476
1792.6,673.875
1794.05,671.82
1795.5,668.333
1796.95,665.688
1798.4,669.241
1799.85,676.419
1801.31,656.981
1802.76,656.953
1804.21,643.306
1805.66,662.6
1807.11,629.977
1808.56,643.691
1810.01,650.277
1811.46,651.106
1812.91,634.863
1814.36,655.435
1815.81,669.011
1817.26,674.676
1818.71,674.014
1820.16,665.673
1821.61,659.309
1823.06,651.424
1824.51,657.345
1825.96,659.162
1827.41,652.449
1828.86,663.5
1830.31,668.912
1831.76,663.464
1833.21,669.643
1834.66,661.133
1836.11,660.91
1837.56,652.747
1839.01,673.202
1840.46,688.415
1841.91,659.515
1843.36,667.979
1844.82,679.182
1846.27,669.08
1847.72,678.246
1849.17,684.317
1850.62,678.179
1852.07,680.128
1853.52,695.282
1854.97,695.797
1856.42,683.063
1857.87,677.521
1859.32,697.544
1860.77,706.353
1862.22,697.865
1863.67,688.545
1865.12,692.482
1866.57,695.435
1868.02,687.704
1869.47,675.883
1870.92,669.997
1872.37,679.595
1873.82,688.579
1875.27,681.503
1876.72,672.61
1878.17,679.747
1879.62,673.149
1881.07,667.572
1882.52,659.619
1883.97,661.378
1885.42,662.049
1886.87,667.982
1888.32,665.674
1889.78,657.011
1891.23,662.886
1892.68,659.908
1894.13,664.895
1895.58,659.932
1897.03,666.716
1898.48,665.757
1899.93,649.748
1901.38,651.813
1902.83,646.832
1904.28,642.436
1905.73,646.445
1907.18,656.493
1908.63,656.427
1910.08,649.321
1911.53,638.764
1912.98,629.424
1914.43,636.255
1915.88,641.448
1917.33,630.189
1918.78,630.455
1920.23,642.487
1921.68,643.598
1923.13,642.499
1924.58,640.46
1926.03,634.409
1927.48,636.413
1928.93,643.833
1930.38,640.488
1931.83,637.727
1933.29,619.899
1934.74,639.409
1936.19,644.048
1937.64,619.092
1939.09,629.762
1940.54,623.295
1941.99,637.734
1943.44,639.294
1944.89,639.983
1946.34,641.348
1947.79,626.76
1949.24,640.286
1950.69,629.772
1952.14,646.349
1953.59,649.976
1955.04,637.883
1956.49,646.243
1957.94,642.493
1959.39,633.961
1960.84,641.543
1962.29,639.165
1963.74,645.029
1965.19,649.362
1966.64,648.696
1968.09,660.369
1969.54,666.798
1970.99,668.275
1972.44,671.6
1973.89,658.613
1975.34,658.794
1976.79,665.707
1978.25,664.498
1979.7,656.198
1981.15,657.293
1982.6,662.402
1984.05,655.467
1985.5,661.267
1986.95,656.564
1988.4,648.089
1989.85,665.515
1991.3,660.129
1992.75,660.55
1994.2,663.158
1995.65,667.44
1997.1,669.57
1998.55,664.24
2000,658.202
2001.45,669.866
2002.9,662.083
2004.35,656.788
2005.8,660.696
2007.25,666.206
2008.7,669.907
2010.15,670.843
2011.6,674.483
2013.05,653.069
2014.5,648.446
2015.95,657.612
2017.4,649.321
2018.85,634.036
2020.3,657.168
2021.75,659.653
2023.21,637.939
2024.66,654.729
2026.11,646.981
2027.56,655.948
2029.01,659.213
2030.46,642.433
2031.91,644.048
2033.36,633.861
2034.81,641.22
2036.26,652.925
2037.71,645.709
2039.16,646.728
2040.61,654.343
2042.06,636.05
2043.51,623.805
2044.96,632.762
2046.41,614.49
2047.86,624.538
2049.31,632.925
2050.76,624.739
2052.21,623.444
2053.66,638.561
2055.11,642.165
2056.56,628.265
2058.01,622.727
2059.46,635.761
2060.91,637.259
2062.36,628.89
2063.81,622.179
2065.26,614.969
2066.72,617.373
2068.17,626.779
2069.62,609.255
2071.07,612.015
2072.52,630.062
2073.97,628.652
2075.42,623.215
2076.87,624.584
2078.32,621.824
2079.77,610.401
2081.22,619.146
2082.67,630.034
2084.12,627.147
2085.57,612.941
2087.02,613.885
2088.47,601.994
2089.92,601.209
2091.37,606.922
2092.82,617.423
2094.27,632.967
2095.72,624.211
2097.17,618.888
2098.62,621.07
2100.07,612.426
2101.52,604.963
2102.97,610.938
2104.42,604.904
2105.87,615.186
2107.32,619.403
2108.77,622.142
2110.22,623.399
2111.68,628.186
2113.13,620.444
2114.58,616.609
2116.03,627.122
2117.48,627.515
2118.93,617.538
2120.38,629.038
2121.83,628.287
2123.28,610.023
2124.73,621.203
2126.18,628.94
2127.63,624.468
2129.08,626.763
2130.53,631.401
2131.98,635.7
2133.43,635.27
2134.88,635.218
2136.33,631.316
2137.78,636.621
2139.23,636.403
2140.68,635.473
2142.13,629.261
2143.58,628.242
2145.03,649.1
2146.48,650.28
2147.93,642.574
2149.38,634.001
2150.83,635.352
2152.28,645.019
2153.73,645.487
2155.18,637.6
2156.64,641.361
2158.09,642.14
2159.54,639.912
2160.99,647.515
2162.44,648.586
2163.89,649.249
2165.34,643.416
2166.79,647.549
2168.24,667.815
2169.69,662.365
2171.14,653.618
2172.59,654.45
2174.04,655.784
2175.49,660.861
2176.94,662.59
2178.39,657.475
2179.84,658.458
2181.29,659.236
2182.74,663.322
2184.19,661.94
2185.64,657.018
2187.09,661.548
2188.54,667.269
2189.99,667.464
2191.44,663.377
2192.89,671.235
2194.34,670.941
2195.79,670.806
2197.24,676.837
2198.69,674.693
2200.15,664.867
2201.6,666.14
2203.05,666.534
2204.5,681.098
2205.95,677.476
2207.4,680.533
2208.85,674.533
2210.3,679.622
2211.75,686.544
2213.2,689.039
2214.65,682.985
2216.1,683.055
2217.55,688.312
2219,692.762
2220.45,674.354
2221.9,690.595
2223.35,699.385
2224.8,698.063
2226.25,686.538
2227.7,674.737
2229.15,695.512
2230.6,706.293
2232.05,705.831
2233.5,689.089
2234.95,694.19
2236.4,694.311
2237.85,697.378
2239.3,680.906
2240.75,685.555
2242.2,701.378
2243.65,711.23
2245.11,693.177
2246.56,709.667
2248.01,703.354
2249.46,701.275
2250.91,715.387
2252.36,708.152
2253.81,703.22
2255.26,711.153
2256.71,700.343
2258.16,707.674
2259.61,717.027
2261.06,712.276
2262.51,694.925
2263.96,714.984
2265.41,721.855
2266.86,711.666
2268.31,698.294
2269.76,709.364
2271.21,724.532
2272.66,716.633
2274.11,715.527
2275.56,705.03
2277.01,706.772
2278.46,727.601
2279.91,727.915
2281.36,741.887
2282.81,745.772
2284.26,721.432
2285.71,721.083
2287.16,732.233
2288.61,743.822
2290.07,733.131
2291.52,720.791
2292.97,737.621
2294.42,741.919
2295.87,745.168
2297.32,746.96
2298.77,728.531
2300.22,747.028
2301.67,773.066
2303.12,772.112
2304.57,761.041
2306.02,747.47
2307.47,752.287
2308.92,749.982
2310.37,760.367
2311.82,757.292
2313.27,767.982
2314.72,752.557
2316.17,775.779
2317.62,760.185
2319.07,768.605
2320.52,782.007
2321.97,771.22
2323.42,773.732
2324.87,797.038
2326.32,780.461
2327.77,783.365
2329.22,777.618
2330.67,799.614
2332.12,802.855
2333.57,805.544
2335.03,807.594
2336.48,787.401
2337.93,786.24
2339.38,802.597
2340.83,819.006
2342.28,812.881
2343.73,820.755
2345.18,812.867
2346.63,824.168
2348.08,836.706
2349.53,837.827
2350.98,835.733
2352.43,848.789
2353.88,844.119
2355.33,847.411
2356.78,849.781
2358.23,866.172
2359.68,857.367
2361.13,868.548
2362.58,892.665
2364.03,898.322
2365.48,880.668
2366.93,885.3
2368.38,906.724
2369.83,907.866
2371.28,902.921
2372.73,908.991
2374.18,937.121
2375.63,947.332
2377.08,953.094
2378.54,957.934
2379.99,958.167
2381.44,966.48
2382.89,994.945
2384.34,1003.97
2385.79,996.527
2387.24,1006.47
2388.69,1028.37
2390.14,1044.74
2391.59,1063.77
2393.04,1062.92
2394.49,1068.09
2395.94,1086.63
2397.39,1078.14
2398.84,1082
2400.29,1131.95
2401.74,1152.8
2403.19,1157.8
2404.64,1163.12
2406.09,1166.13
2407.54,1198.94
2408.99,1187.1
2410.44,1196.96
2411.89,1192.92
2413.34,1223.6
2414.79,1238.11
2416.24,1216.36
2417.69,1245.87
2419.14,1239.35
2420.59,1250.74
2422.04,1258.43
2423.5,1252.31
2424.95,1264.79
2426.4,1274.66
2427.85,1273.15
2429.3,1256.1
2430.75,1253.25
2432.2,1240.67
2433.65,1247.96
2435.1,1252.79
2436.55,1263.34
2438,1231.55
2439.45,1239.35
2440.9,1243.1
2442.35,1238.86
2443.8,1217.17
2445.25,1211.25
2446.7,1229.9
2448.15,1214.06
2449.6,1207.34
2451.05,1214.35
2452.5,1196.51
2453.95,1204.63
2455.4,1195.57
2456.85,1185.45
2458.3,1166.26
2459.75,1138.49
2461.2,1147.28
2462.65,1147.84
2464.1,1153.57
2465.55,1162.74
2467.01,1172.66
2468.46,1142.75
2469.91,1170.6
2471.36,1167.33
2472.81,1149.83
2474.26,1140.74
2475.71,1134.77
2477.16,1162.43
2478.61,1153.36
2480.06,1145.73
2481.51,1151.63
2482.96,1131.71
2484.41,1146.85
2485.86,1140.38
2487.31,1145.73
2488.76,1144.98
2490.21,1148.54
2491.66,1139.5
2493.11,1147.57
2494.56,1172.46
2496.01,1158.41
2497.46,1162.9
2498.91,1160.82
2500.36,1182.7
2501.81,1175.45
2503.26,1171.04
2504.71,1191.38
2506.16,1201.06
2507.61,1187.19
2509.06,1199.05
2510.51,1199.64
2511.97,1192.96
2513.42,1177.83
2514.87,1214.89
2516.32,1214.01
2517.77,1206.24
2519.22,1223.17
2520.67,1226.93
2522.12,1224.86
2523.57,1246
2525.02,1281.34
2526.47,1291.33
2527.92,1294.07
2529.37,1296.33
2530.82,1323.9
2532.27,1334.25
2533.72,1332.05
2535.17,1343.53
2536.62,1347.68
2538.07,1376.75
2539.52,1364.55
2540.97,1393.19
2542.42,1409.2
2543.87,1411.54
2545.32,1442.69
2546.77,1436.69
2548.22,1477.91
2549.67,1513.64
2551.12,1528.78
2552.57,1539.15
2554.02,1540.84
2555.48,1548.83
2556.93,1579.82
2558.38,1617.1
2559.83,1636.58
2561.28,1656.25
2562.73,1680.37
2564.18,1740.82
2565.63,1748
2567.08,1793.68
2568.53,1810.77
2569.98,1892.77
2571.43,1925.73
2572.88,1952.39
2574.33,1984.72
2575.78,2031.76
2577.23,2069.09
2578.68,2112.03
2580.13,2164.77
2581.58,2192.02
2583.03,2220.65
2584.48,2296.83
2585.93,2355.34
2587.38,2405.55
2588.83,2507.77
2590.28,2542.11
2591.73,2592.22
2593.18,2693.14
2594.63,2789.98
2596.08,2854.33
2597.53,2944.9
2598.98,3065.9
2600.44,3151.67
2601.89,3238.71
2603.34,3352.1
2604.79,3469.97
2606.24,3551.33
2607.69,3687.89
2609.14,3807.69
2610.59,3953.21
2612.04,4061.29
2613.49,4245.3
2614.94,4337.96
2616.39,4460.02
2617.84,4678.39
2619.29,4807.8
2620.74,4975.86
2622.19,5183.83
2623.64,5354.91
2625.09,5491.6
2626.54,5658.92
2627.99,5828.91
2629.44,6029.31
2630.89,6160.17
2632.34,6338.81
2633.79,6540.69
2635.24,6722.63
2636.69,6916.98
2638.14,7052.73
2639.59,7184.8
2641.04,7366.99
2642.49,7534.2
2643.94,7646.81
2645.4,7763.11
2646.85,7846.41
2648.3,7950.57
2649.75,8012.75
2651.2,8062.02
2652.65,8091.39
2654.1,8037.78
2655.55,8054.82
2657,8092.8
2658.45,8027.99
2659.9,8009.33
2661.35,7977.87
2662.8,7901.7
2664.25,7760.36
2665.7,7640.32
2667.15,7548.61
2668.6,7416.59
2670.05,7201.08
2671.5,7005.89
2672.95,6930.48
2674.4,6683.29
2675.85,6572.27
2677.3,6359.17
2678.75,6166.3
2680.2,5988.46
2681.65,5758.97
2683.1,5604.04
2684.55,5440.32
2686,5287.46
2687.45,5095.36
2688.91,4871.19
2690.36,4704.42
2691.81,4502.64
2693.26,4332.99
2694.71,4189.52
2696.16,4044.85
2697.61,3832.33
2699.06,3759.22
2700.51,3655.52
2701.96,3523.4
2703.41,3384.73
2704.86,3251.07
2706.31,3130.39
2707.76,3025.02
2709.21,2909.7
2710.66,2787.24
2712.11,2695.49
2713.56,2619.97
2715.01,2538.67
2716.46,2527.17
2717.91,2404.97
2719.36,2349.04
2720.81,2268.66
2722.26,2172.93
2723.71,2146.66
2725.16,2105.05
2726.61,2030.57
2728.06,1986.69
2729.51,1969.56
2730.96,1890.49
2732.41,1873.74
2733.87,1826.83
2735.32,1759.47
2736.77,1739.54
2738.22,1700.37
2739.67,1685.51
2741.12,1646.96
2742.57,1621.88
2744.02,1612.37
2745.47,1536.9
2746.92,1541.62
2748.37,1509.24
2749.82,1501.99
2751.27,1468.89
2752.72,1438.15
2754.17,1447.02
2755.62,1401.37
2757.07,1370.58
2758.52,1372.75
2759.97,1354.72
2761.42,1340.67
2762.87,1342.75
2764.32,1302.6
2765.77,1300.8
2767.22,1301.56
2768.67,1274.78
2770.12,1259.5
2771.57,1261.63
2773.02,1239.69
2774.47,1238.38
2775.92,1224.1
2777.38,1218.39
2778.83,1206.51
2780.28,1194.08
2781.73,1178.58
2783.18,1152.17
2784.63,1182.82
2786.08,1144.2
2787.53,1150.02
2788.98,1143.84
2790.43,1128.29
2791.88,1129.57
2793.33,1122.52
2794.78,1098.38
2796.23,1113.25
2797.68,1092.52
2799.13,1111.92
2800.58,1088.81
2802.03,1080.14
2803.48,1065.53
2804.93,1092.64
2806.38,1082.46
2807.83,1061.42
2809.28,1055.81
2810.73,1057.13
2812.18,1041.94
2813.63,1056.76
2815.08,1040.18
2816.53,1041.09
2817.98,1038.04
2819.43,1042.98
2820.88,1038.63
2822.33,1023.61
2823.79,1010.89
2825.24,1020.23
2826.69,1024.68
2828.14,1020.86
2829.59,1008.02
2831.04,1013.17
2832.49,991.64
2833.94,994.451
2835.39,1008.3
2836.84,997.597
2838.29,973.656
2839.74,967.578
2841.19,974.038
2842.64,990.877
2844.09,986.716
2845.54,978.05
2846.99,954.211
2848.44,992.506
2849.89,979.977
2851.34,977.566
2852.79,981.531
2854.24,978.776
2855.69,973.451
2857.14,971.785
2858.59,973.535
2860.04,952.377
2861.49,991.882
2862.94,951.847
2864.39,961.062
2865.84,977.259
2867.3,980.703
2868.75,963.985
2870.2,962.188
2871.65,958.931
2873.1,953.392
2874.55,945.303
2876,942.231
2877.45,963.724
2878.9,968.574
2880.35,937.884
2881.8,941.356
2883.25,957.702
2884.7,961.211
2886.15,958.111
2887.6,953.336
2889.05,958.828
2890.5,965.558
2891.95,952.322
2893.4,954.555
2894.85,947.714
2896.3,951.623
2897.75,951.093
2899.2,952.722
2900.65,954.555
2902.1,952.815
2903.55,937.866
2905,943.869
2906.45,950.646
2907.9,943.097
2909.35,938.359
2910.8,933.5
2912.26,922.302
2913.71,931.964
2915.16,921.796
2916.61,927.376
2918.06,908.011
2919.51,931.434
2920.96,920.32
2922.41,932.941
2923.86,920.524
2925.31,913.28
2926.76,922.382
2928.21,917.134
2929.66,910.56
2931.11,902.538
2932.56,902.592
2934.01,900.981
2935.46,883.15
2936.91,881.692
2938.36,882.178
2939.81,880.792
2941.26,875.529
2942.71,871.327
2944.16,883.798
2945.61,881.024
2947.06,865.039
2948.51,864.784
2949.96,855.937
2951.41,863.666
2952.86,868.695
2954.31,864.414
2955.77,845.848
2957.22,844.709
2958.67,834.601
2960.12,851.323
2961.57,828.47
2963.02,842.531
2964.47,838.172
2965.92,841.451
2967.37,835.382
2968.82,835.196
2970.27,831.727
2971.72,831.614
2973.17,821.805
2974.62,820.33
2976.07,813.523
2977.52,809.755
2978.97,811.589
2980.42,817.743
2981.87,810.378
2983.32,811.369
2984.77,807.2
2986.22,810.785
2987.67,809.258
2989.12,821.436
2990.57,810.72
2992.02,813.307
2993.47,813.783
2994.92,814.723
2996.37,805.022
2997.82,814.838
2999.27,821.587
3000.73,801.953
3002.18,809.52
3003.63,789.218
3005.08,810.484
3006.53,812.68
3007.98,809.26
3009.43,810.52
3010.88,802.723
3012.33,794.374
3013.78,784.291
3015.23,793.52
3016.68,801.354
3018.13,809.717
3019.58,783.438
3021.03,782.957
3022.48,787.82
3023.93,796.7
3025.38,802.111
3026.83,806.773
3028.28,805.138
3029.73,810.597
3031.18,801.356
3032.63,791.686
3034.08,811.253
3035.53,791.69
3036.98,798.51
3038.43,778.894
3039.88,791.342
3041.33,824.469
3042.78,820.788
3044.23,802.838
3045.69,802.77
3047.14,797.078
3048.59,793.058
3050.04,800.337
3051.49,780.11
3052.94,799.36
3054.39,802.497
3055.84,788.04
3057.29,804.686
3058.74,809.073
3060.19,830.822
3061.64,814.131
3063.09,825.927
3064.54,818.375
3065.99,812.674
3067.44,819.189
3068.89,828.259
3070.34,827.167
3071.79,813.656
3073.24,830.13
3074.69,837.867
3076.14,844.533
3077.59,844.117
3079.04,855.299
3080.49,864.147
3081.94,863.2
3083.39,833.982
3084.84,858.101
3086.29,879.175
3087.74,858.498
3089.2,874.245
3090.65,885.64
3092.1,905.449
3093.55,894.524
3095,898.139
3096.45,898.39
3097.9,905.28
3099.35,901.046
3100.8,906.234
3102.25,928.972
3103.7,917.56
3105.15,951.856
3106.6,958.493
3108.05,958
3109.5,954.844
3110.95,969.765
3112.4,980.489
3113.85,989.825
3115.3,958.837
3116.75,986.735
3118.2,1022.22
3119.65,1014.54
3121.1,1030.81
3122.55,1047.7
3124,1042.01
3125.45,1041.78
3126.9,1060.62
3128.35,1062.71
3129.8,1050.17
3131.25,1071.27
3132.7,1072.86
3134.16,1065.54
3135.61,1073.93
3137.06,1061.12
3138.51,1068.54
3139.96,1101.42
3141.41,1105.32
3142.86,1106.39
3144.31,1108.54
3145.76,1095.49
3147.21,1106.21
3148.66,1138.99
3150.11,1129.07
3151.56,1116.42
3153.01,1118.15
3154.46,1126.51
3155.91,1111.54
3157.36,1138.34
3158.81,1131.48
3160.26,1144.75
3161.71,1139.6
3163.16,1132.2
3164.61,1144.99
3166.06,1135.93
3167.51,1146.6
3168.96,1151.44
3170.41,1178.5
3171.86,1196.19
3173.31,1180.1
3174.76,1185.26
3176.21,1189.96
3177.67,1189.83
3179.12,1214.67
3180.57,1205.28
3182.02,1207.74
3183.47,1226.78
3184.92,1231.16
3186.37,1240.81
3187.82,1238.78
3189.27,1225.8
3190.72,1234.19
3192.17,1234.37
3193.62,1233.12
3195.07,1226.54
3196.52,1221.73
3197.97,1223.83
3199.42,1220.51
3200.87,1197.28
3202.32,1217.64
3203.77,1187.51
3205.22,1168.17
3206.67,1153.28
3208.12,1201.38
3209.57,1163.25
3211.02,1137.53
3212.47,1125.59
3213.92,1131.37
3215.37,1121.27
3216.82,1104.06
3218.27,1109.25
3219.72,1088.19
3221.17,1075.6
3222.63,1064.7
3224.08,1061.86
3225.53,1043.65
3226.98,1014.68
3228.43,1011.76
3229.88,997.439
3231.33,981.857
3232.78,957.264
3234.23,951.633
3235.68,932.439
3237.13,897.686
3238.58,926.994
3240.03,927.575
3241.48,907.127
3242.93,890.779
3244.38,882.277
3245.83,860.863
3247.28,853.006
3248.73,850.958
3250.18,862.161
3251.63,848.141
3253.08,832.363
3254.53,829.993
3255.98,810.121
3257.43,803.847
3258.88,814.116
3260.33,799.565
3261.78,816.977
3263.23,809.155
3264.68,786.988
3266.13,804.704
3267.59,821.525
3269.04,798.673
3270.49,789.049
3271.94,803.94
3273.39,782.686
3274.84,772.809
3276.29,803.743
3277.74,770.154
3279.19,774.66
3280.64,791.329
3282.09,789.391
3283.54,783.95
3284.99,768.595
3286.44,774.443
3287.89,779.553
3289.34,759.37
3290.79,772.769
3292.24,776.956
3293.69,775.215
3295.14,773.796
3296.59,772.262
3298.04,763.398
3299.49,774.066
3300.94,771.664
3302.39,789.184
3303.84,768.178
3305.29,765.351
3306.74,774.747
3308.19,769.421
3309.64,771.015
3311.09,779.108
3312.55,775.255
3314,790.174
3315.45,778.149
3316.9,771.746
3318.35,766.467
3319.8,761.467
3321.25,774.271
3322.7,763.832
3324.15,763.957
3325.6,781.425
3327.05,781.504
3328.5,762.378
3329.95,769.418
3331.4,786.517
3332.85,768.916
3334.3,768.238
3335.75,762.39
3337.2,766.876
3338.65,757.445
3340.1,774.255
3341.55,761.388
3343,762.533
3344.45,760.119
3345.9,764.806
3347.35,728.736
3348.8,766.835
3350.25,771.286
3351.7,779.197
3353.15,778.886
3354.6,770.585
3356.06,765.454
3357.51,779.587
3358.96,746.983
3360.41,754.345
3361.86,758.857
3363.31,769.886
3364.76,749.235
3366.21,761.792
3367.66,781.142
3369.11,777.727
3370.56,773.213
3372.01,775.317
3373.46,753.985
3374.91,781.042
3376.36,783.748
3377.81,773.463
3379.26,759.069
3380.71,784.26
3382.16,790.608
3383.61,778.734
3385.06,772.552
3386.51,764.429
3387.96,774.703
3389.41,793.038
3390.86,791.163
3392.31,765.105
3393.76,773.169
3395.21,780.466
3396.66,755.492
3398.11,780.142
3399.56,777.034
3401.02,777.855
3402.47,777.067
3403.92,767.688
3405.37,779.982
3406.82,761.401
3408.27,788.924
3409.72,774.824
3411.17,777.998
3412.62,763.525
3414.07,785.794
3415.52,762.809
3416.97,782.861
3418.42,781.755
3419.87,775.086
3421.32,771.224
3422.77,770.555
3424.22,779.697
3425.67,795.366
3427.12,804.004
3428.57,780.498
3430.02,784.257
3431.47,779.302
3432.92,764.907
3434.37,776.553
3435.82,787.328
3437.27,788.685
3438.72,792.958
3440.17,775.74
3441.62,780.111
3443.07,783.654
3444.52,792.17
3445.98,782.262
3447.43,759.956
3448.88,768.044
3450.33,773.357
3451.78,779.995
3453.23,794.34
3454.68,778.004
3456.13,782.523
3457.58,802.228
3459.03,782.372
3460.48,777.813
3461.93,779.582
3463.38,772.874
3464.83,788.588
3466.28,788.114
3467.73,769.595
3469.18,794.603
3470.63,787.073
3472.08,783.646
3473.53,779.245
3474.98,786.042
3476.43,763.175
3477.88,799.717
3479.33,790.13
3480.78,787.72
3482.23,796.227
3483.68,791.698
3485.13,783.93
3486.58,789.581
3488.03,778.968
3489.49,778.799
3490.94,780.168
3492.39,781.41
3493.84,793.158
3495.29,779.508
3496.74,789.647
3498.19,778.617
3499.64,806.345
3501.09,779.132
3502.54,805.195
3503.99,795.299
3505.44,781.791
3506.89,800.552
3508.34,798.162
3509.79,811.041
3511.24,806.703
3512.69,805.533
3514.14,795.288
3515.59,803.079
3517.04,828.243
3518.49,808.511
3519.94,795.194
3521.39,779.581
3522.84,815.408
3524.29,797.866
3525.74,788.552
3527.19,808.556
3528.64,799.919
3530.09,805.2
3531.54,787.124
3532.99,789.392
3534.45,798.343
3535.9,817.28
3537.35,796.668
3538.8,796.974
3540.25,783.073
3541.7,785.991
3543.15,790.412
3544.6,796.538
3546.05,819.174
3547.5,810.344
3548.95,816.968
3550.4,812.584
3551.85,812.588
3553.3,786.832
3554.75,792.894
3556.2,793.93
3557.65,808.951
3559.1,801.318
3560.55,797.105
3562,787.147
3563.45,814.799
3564.9,812.611
3566.35,797.538
3567.8,816.398
3569.25,802.076
3570.7,811.243
3572.15,813.248
3573.6,816.556
3575.05,811.806
3576.5,788.868
3577.96,786.457
3579.41,806.424
3580.86,799.987
3582.31,810.902
3583.76,817.393
3585.21,815.487
3586.66,808.774
3588.11,821.258
3589.56,804.672
3591.01,818.361
3592.46,827.761
3593.91,805.849
3595.36,808.647
3596.81,820.76
3598.26,816.407
3599.71,801.745
3601.16,813.026
3602.61,822.321
3604.06,812.124
3605.51,810.376
3606.96,808.969
3608.41,821.448
3609.86,814.361
3611.31,824.115
3612.76,805.765
3614.21,804.769
3615.66,837.352
3617.11,812.069
3618.56,821.389
3620.01,814.643
3621.46,824.196
3622.92,823.053
3624.37,823.609
3625.82,823.826
3627.27,826.777
3628.72,802.341
3630.17,814.608
3631.62,825.995
3633.07,808.312
3634.52,824.193
3635.97,825.967
3637.42,824.028
3638.87,830.811
3640.32,808.243
3641.77,841.122
3643.22,842.751
3644.67,829.766
3646.12,830.278
3647.57,832.812
3649.02,828.747
3650.47,838.447
3651.92,831.619
3653.37,839.64
3654.82,835.185
3656.27,830.954
3657.72,827.448
3659.17,839.731
3660.62,846.338
3662.07,838.428
3663.52,836.194
3664.97,840.074
3666.43,834.929
3667.88,850.26
3669.33,825.116
3670.78,829.074
3672.23,838.587
3673.68,846.777
3675.13,846.892
3676.58,850.187
3678.03,837.266
3679.48,850.327
3680.93,856.345
3682.38,837.825
3683.83,836.83
3685.28,835.351
3686.73,854.934
3688.18,848.006
3689.63,849.958
3691.08,842.085
3692.53,855.284
3693.98,845.923
3695.43,854.334
3696.88,845.572
3698.33,835.955
3699.78,836.036
3701.23,846.414
3702.68,849.924
3704.13,865.253
3705.58,849.758
3707.03,865.094
3708.48,848.757
3709.93,844.865
3711.39,854.528
3712.84,832.874
3714.29,860.413
3715.74,852.201
3717.19,854.192
3718.64,859.771
3720.09,853.558
3721.54,853.169
3722.99,853.149
3724.44,857.638
3725.89,848.052
3727.34,837.851
3728.79,840.81
3730.24,837.304
3731.69,862.807
3733.14,859.663
3734.59,862.226
3736.04,851.325
3737.49,854.277
3738.94,864.722
3740.39,879.754
3741.84,850.547
3743.29,875.862
3744.74,883.597
3746.19,859.307
3747.64,869.613
3749.09,877.773
3750.54,855.556
3751.99,859.592
3753.44,865.041
3754.89,867.06
3756.35,875.703
3757.8,871.452
3759.25,870.91
3760.7,871.623
3762.15,868.593
3763.6,858.558
3765.05,874.328
3766.5,873.797
3767.95,878.85
3769.4,875.81
3770.85,872.862
3772.3,864.977
3773.75,866.474
3775.2,872.946
3776.65,870.116
3778.1,883.419
3779.55,870.923
3781,884.774
3782.45,895.377
3783.9,879.491
3785.35,866.23
3786.8,899.368
3788.25,865.924
3789.7,882.945
3791.15,868.91
3792.6,895.7
3794.05,877.862
3795.5,866.441
3796.95,873.491
3798.4,864.104
3799.85,884.045
3801.31,884.524
3802.76,866.713
3804.21,905.636
3805.66,902.172
3807.11,902.864
3808.56,894.242
3810.01,901.949
3811.46,908.216
3812.91,906.263
3814.36,892.832
3815.81,893.529
3817.26,897.642
3818.71,896.99
3820.16,906.122
3821.61,908.333
3823.06,891.527
3824.51,886.017
3825.96,903.538
3827.41,904.328
3828.86,902.794
3830.31,911.689
3831.76,903.049
3833.21,908.609
3834.66,922.189
3836.11,920.089
3837.56,914.437
3839.01,908.238
3840.46,908.609
3841.91,900.64
3843.36,899.097
3844.82,873.702
3846.27,905.26
3847.72,916.957
3849.17,914.882
3850.62,930.527
3852.07,919.421
3853.52,914.435
3854.97,915.782
3856.42,914.618
3857.87,914.448
3859.32,923.722
3860.77,919.528
3862.22,917.927
3863.67,928.74
3865.12,926.845
3866.57,918.038
3868.02,918.312
3869.47,938.489
3870.92,917.67
3872.37,912.972
3873.82,927.504
3875.27,946.206
3876.72,956.222
3878.17,951.893
3879.62,927.286
3881.07,932.951
3882.52,932.253
3883.97,934.794
3885.42,945.256
3886.87,944.475
3888.32,952.433
3889.78,938.545
3891.23,946.792
3892.68,942.315
3894.13,940.221
3895.58,947.863
3897.03,959.694
3898.48,961.686
3899.93,968.9
3901.38,963.938
3902.83,944.596
3904.28,965.921
3905.73,968.23
3907.18,969.263
3908.63,952.089
3910.08,963.929
3911.53,960.336
3912.98,976.021
3914.43,967.885
3915.88,969.439
3917.33,958.94
3918.78,951.698
3920.23,970.836
3921.68,976.951
3923.13,990.058
3924.58,973.06
3926.03,981.373
3927.48,977.398
3928.93,1011.55
3930.38,976.505
3931.83,981.27
3933.28,985.534
3934.74,990.393
3936.19,1007.67
3937.64,996.518
3939.09,981.159
3940.54,1008.31
3941.99,997.309
3943.44,990.132
3944.89,994.73
3946.34,1004.92
3947.79,1015.69
3949.24,1008.28
3950.69,1011.62
3952.14,1017.6
3953.59,1023.05
3955.04,1026.37
3956.49,996.555
3957.94,1030.6
3959.39,1007.38
3960.84,1004.82
3962.29,1012.92
3963.74,1007.82
3965.19,999.608
3966.64,1037.87
3968.09,1014.11
3969.54,1033.29
3970.99,1009.31
3972.44,1029.23
3973.89,1025.74
3975.34,1048.5
3976.79,1043.14
3978.25,1049.93
3979.7,1047.36
3981.15,1036.57
3982.6,1042.69
3984.05,1052.35
3985.5,1057.02
3986.95,1070.93
3988.4,1053.1
3989.85,1057.75
3991.3,1053.54
3992.75,1060.35
3994.2,1073.14
3995.65,1050.6
3997.1,1103.3
3998.55,1057.97
4000,1060.24
