-0.1,4.41731
1.45033,4.41731
2.90065,4.41731
4.35098,4.41731
5.80131,4.41731
7.25163,4.41731
8.70196,18.4801
10.1523,8.10655
11.6026,6.38771
13.0529,7.09192
14.5033,7.9299
15.9536,7.18684
17.4039,2.88218
18.8542,0.246497
20.3046,0.194308
21.7549,1.71558
23.2052,3.54752
24.6555,3.33212
26.1059,2.37759
27.5562,0.674631
29.0065,0.15716
30.4569,3.25415
31.9072,1.52957
33.3575,1.42405
34.8078,1.24206
36.2582,0.678373
37.7085,1.32548
39.1588,0.181422
40.6091,1.40104
42.0595,3.91029
43.5098,6.13694
44.9601,7.00043
46.4104,6.61996
47.8608,10.2397
49.3111,17.9011
50.7614,27.0117
52.2117,67.1954
53.6621,130.599
55.1124,225.939
56.5627,354.724
58.0131,507.987
59.4634,658.14
60.9137,792.752
62.364,887.081
63.8144,929.549
65.2647,1007.43
66.715,1040.84
68.1653,1069.76
69.6157,1102.5
71.066,1133.57
72.5163,1147.21
73.9666,1143.19
75.417,1133
76.8673,1134.21
78.3176,1181.87
79.7679,1190.9
81.2183,1210.37
82.6686,1244.37
84.1189,1288.15
85.5693,1316.98
87.0196,1325.08
88.4699,1324.02
89.9202,1295.88
91.3706,1217.1
92.8209,1152.01
94.2712,1092.45
95.7215,1026.46
97.1719,966.188
98.6222,948.82
100.073,914.977
101.523,875.606
102.973,839.742
104.423,812.19
105.874,790.027
107.324,771.8
108.774,763.018
110.225,749.515
111.675,723.641
113.125,729.294
114.576,740.648
116.026,734.241
117.476,711.276
118.927,683.788
120.377,691.414
121.827,677.074
123.278,669.041
124.728,668.629
126.178,658.395
127.629,644.033
129.079,629.178
130.529,619.271
131.98,613.348
133.43,600.709
134.88,585.384
136.331,565.578
137.781,556.591
139.231,559.685
140.682,534.823
142.132,541.398
143.582,531.059
145.033,513.78
146.483,503.143
147.933,486.554
149.384,500.898
150.834,496.414
152.284,478.915
153.735,469.831
155.185,489.49
156.635,472.936
158.086,466.623
159.536,475.36
160.986,485.519
162.437,483.989
163.887,467.136
165.337,447.638
166.788,432.337
168.238,424.814
169.688,426.785
171.139,417.315
172.589,411.85
174.039,410.308
175.489,397.159
176.94,422.954
178.39,429.373
179.84,427.768
181.291,423.957
182.741,415.193
184.191,404.938
185.642,395.257
187.092,384.436
188.542,378.037
189.993,396.036
191.443,381.225
192.893,381.104
194.344,389.599
195.794,393.688
197.244,371.307
198.695,376.308
200.145,377.673
201.595,372.428
203.046,363.405
204.496,361.647
205.946,370.62
207.397,375.802
208.847,381.412
210.297,387.87
211.748,379.298
213.198,380.378
214.648,383.671
216.099,382.813
217.549,376.795
218.999,379.434
220.45,387.502
221.9,382.665
223.35,371.726
224.801,365.489
226.251,378.035
227.701,374.283
229.152,382.049
230.602,376.605
232.052,352.393
233.503,371.799
234.953,372.933
236.403,373.826
237.854,374.714
239.304,374.636
240.754,374.195
242.204,370.675
243.655,367.527
245.105,359.553
246.555,348.425
248.006,351.954
249.456,353.405
250.906,359.357
252.357,365.709
253.807,364.511
255.257,341.743
256.708,347.466
258.158,352.731
259.608,355.598
261.059,357.996
262.509,365.518
263.959,334.528
265.41,330.384
266.86,330.645
268.31,332.613
269.761,355.08
271.211,344.008
272.661,339.557
274.112,332.472
275.562,327.932
277.012,340.014
278.463,339.128
279.913,341.778
281.363,338.662
282.814,334.783
284.264,339.462
285.714,327.707
287.165,330.731
288.615,334.749
290.065,328.97
291.516,311.297
292.966,322.394
294.416,334.075
295.867,326.742
297.317,316.262
298.767,317.045
300.218,312.385
301.668,315.441
303.118,316.815
304.569,304.476
306.019,285.284
307.469,303.067
308.919,295.173
310.37,297.078
311.82,296.152
313.27,289.866
314.721,289.418
316.171,288.751
317.621,291.54
319.072,284.498
320.522,277.737
321.972,291.551
323.423,290.438
324.873,280.787
326.323,280.218
327.774,286.414
329.224,289.778
330.674,279.526
332.125,288.964
333.575,289.483
335.025,281.768
336.476,272.792
337.926,272.123
339.376,271.027
340.827,274.753
342.277,277.159
343.727,277.875
345.178,282.728
346.628,267.771
348.078,274.575
349.529,288.833
350.979,295.957
352.429,285.076
353.88,268.543
355.33,277.533
356.78,283.125
358.231,283.744
359.681,282.255
361.131,275.771
362.582,265.494
364.032,260.873
365.482,263.811
366.933,268.646
368.383,262.69
369.833,260.449
371.284,256.787
372.734,256.683
374.184,257.256
375.635,255.362
377.085,271.04
378.535,278.441
379.986,266.305
381.436,256.514
382.886,263.061
384.336,268.889
385.787,262.324
387.237,257.371
388.687,259.831
390.138,266.887
391.588,269.362
393.038,265.323
394.489,255.082
395.939,260.253
397.389,267.547
398.84,260.723
400.29,249.944
401.74,265.875
403.191,257.41
404.641,256.257
406.091,265.493
407.542,251.734
408.992,258.702
410.442,266.77
411.893,268.438
413.343,267.838
414.793,268.914
416.244,256.542
417.694,266.175
419.144,266.938
420.595,258.477
422.045,251.146
423.495,261.28
424.946,258.804
426.396,255.409
427.846,249.404
429.297,253.263
430.747,270.4
432.197,251.676
433.648,261.255
435.098,257.954
436.548,251.017
437.999,248.857
439.449,251.817
440.899,242.344
442.35,255.159
443.8,254.602
445.25,248.396
446.701,252.825
448.151,265.481
449.601,263.669
451.051,261.183
452.502,259.401
453.952,253.841
455.402,240.665
456.853,256.272
458.303,251.869
459.753,252.202
461.204,252.896
462.654,249.879
464.104,251.454
465.555,248.061
467.005,252.848
468.455,257.798
469.906,253.892
471.356,241.908
472.806,262.301
474.257,264.887
475.707,259.43
477.157,258.342
478.608,264.14
480.058,267.193
481.508,243.405
482.959,254.803
484.409,256.593
485.859,256.042
487.31,260.087
488.76,249.007
490.21,262.84
491.661,269.885
493.111,261.103
494.561,246.504
496.012,242.674
497.462,255.381
498.912,246.947
500.363,251.607
501.813,253.347
503.263,249.189
504.714,249.85
506.164,258.709
507.614,255.882
509.065,253.254
510.515,253.349
511.965,252.928
513.416,245.387
514.866,250.622
516.316,256.427
517.766,257.178
519.217,254.326
520.667,251.121
522.117,249.561
523.568,254.801
525.018,249.864
526.468,245.977
527.919,245.307
529.369,248.959
530.819,267.657
532.27,249.485
533.72,254.405
535.17,253.911
536.621,249.891
538.071,257.84
539.521,260.12
540.972,253.42
542.422,257.14
543.872,253.957
545.323,249.395
546.773,260.452
548.223,254.969
549.674,254.07
551.124,258.305
552.574,260.788
554.025,258.89
555.475,255.433
556.925,253.833
558.376,252.435
559.826,249.327
561.276,248.784
562.727,248.432
564.177,241.204
565.627,250.36
567.078,246.022
568.528,239.219
569.978,238.561
571.429,242.828
572.879,242.136
574.329,249.926
575.78,242.3
577.23,247.095
578.68,252.306
580.131,252.751
581.581,259.004
583.031,245.244
584.482,252.083
585.932,250.836
587.382,249.18
588.832,249.553
590.283,241.281
591.733,241.281
593.183,246.518
594.634,255.297
596.084,249.931
597.534,233.281
598.985,230.748
600.435,233.046
601.885,246.371
603.336,249.798
604.786,251.94
606.236,254.905
607.687,250.975
609.137,248.905
610.587,251.833
612.038,256.753
613.488,256.957
614.938,254.832
616.389,257.384
617.839,251.86
619.289,258.51
620.74,248.723
622.19,246.737
623.64,250.136
625.091,241.898
626.541,240.515
627.991,249.503
629.442,259.834
630.892,261.367
632.342,254.499
633.793,246.571
635.243,245.418
636.693,259.814
638.144,258.686
639.594,252.625
641.044,250.82
642.495,256.364
643.945,262.673
645.395,243.507
646.846,258.127
648.296,264.891
649.746,264.179
651.197,262.969
652.647,260.062
654.097,260.986
655.547,265.609
656.998,265.848
658.448,261.52
659.898,257.63
661.349,259.045
662.799,256.037
664.249,263.282
665.7,265.391
667.15,260.908
668.6,261.977
670.051,273.85
671.501,267.137
672.951,265.052
674.402,267.686
675.852,270.231
677.302,265.136
678.753,257.057
680.203,265.709
681.653,268.959
683.104,272.002
684.554,265.5
686.004,265.231
687.455,269.108
688.905,262.592
690.355,267.465
691.806,275.889
693.256,267.87
694.706,270.614
696.157,275.342
697.607,270.451
699.057,280.023
700.508,269.789
701.958,265.679
703.408,265.904
704.859,266.979
706.309,263.869
707.759,256.501
709.21,276.035
710.66,274.931
712.11,271.671
713.561,268.312
715.011,268.304
716.461,272.37
717.912,272.207
719.362,265.681
720.812,279.81
722.263,282.14
723.713,282.399
725.163,281.665
726.613,266.717
728.064,269.979
729.514,264.673
730.964,267.738
732.415,278.605
733.865,279.296
735.315,266.857
736.766,278.335
738.216,276.467
739.666,271.762
741.117,274.358
742.567,279.952
744.017,282.361
745.468,277.858
746.918,265.466
748.368,266.59
749.819,272.681
751.269,290.614
752.719,293.19
754.17,278.092
755.62,287.142
757.07,297.675
758.521,292.045
759.971,281.71
761.421,271.97
762.872,275.087
764.322,288.379
765.772,275.177
767.223,270.257
768.673,285.51
770.123,284.071
771.574,273.257
773.024,272.207
774.474,286.24
775.925,278.978
777.375,291.411
778.825,281.902
780.276,282.421
781.726,284.077
783.176,283.398
784.627,290.839
786.077,283.089
787.527,294.845
788.978,290.883
790.428,287.046
791.878,285.871
793.328,286.077
794.779,289.581
796.229,290.992
797.68,281.155
799.13,281.585
800.58,288.018
802.03,294.842
803.481,293.642
804.931,276.979
806.381,282.392
807.832,291.704
809.282,295.696
810.732,294.25
812.183,291.222
813.633,287.324
815.083,277.993
816.534,286.71
817.984,279.359
819.434,292.256
820.885,296.919
822.335,294.266
823.785,300.479
825.236,312.559
826.686,301.708
828.136,307.345
829.587,319.908
831.037,314.201
832.487,303.534
833.938,302.807
835.388,291.936
836.838,316.731
838.289,307.424
839.739,299.86
841.189,296.853
842.64,299.779
844.09,303.999
845.54,298.304
846.991,311.069
848.441,302.33
849.891,316.156
851.342,312.696
852.792,296.764
854.242,293.697
855.693,307.37
857.143,290.803
858.593,311.37
860.044,320.599
861.494,325.242
862.944,319.235
864.394,308.835
865.845,312.561
867.295,303.084
868.745,312.444
870.196,307.964
871.646,307.734
873.096,305.593
874.547,299.06
875.997,299.093
877.447,317.278
878.898,320.362
880.348,302.382
881.798,300.534
883.249,298.553
884.699,299.764
886.149,312.504
887.6,308.751
889.05,305.66
890.5,308.629
891.951,314.339
893.401,315.102
894.851,322.721
896.302,333.583
897.752,318.504
899.202,311.132
900.653,303.521
902.103,323.116
903.553,321.791
905.004,313.32
906.454,314.09
907.904,317.81
909.355,317.827
910.805,311.153
912.255,328.73
913.706,337.816
915.156,331.249
916.606,329.542
918.057,340.149
919.507,331.519
920.957,318.394
922.408,337.738
923.858,333.211
925.308,321.312
926.759,322.643
928.209,333.463
929.659,332.859
931.109,322.969
932.56,330.377
934.01,320.708
935.46,328.314
936.911,332.056
938.361,336.638
939.811,344.822
941.262,333.046
942.712,334.241
944.162,318.659
945.613,337.703
947.063,329.459
948.513,316.112
949.964,317.501
951.414,330.367
952.864,356.714
954.315,347.862
955.765,330.793
957.215,339.307
958.666,339.107
960.116,333.192
961.566,328.342
963.017,321.028
964.467,331.012
965.917,332.212
967.368,340.651
968.818,335.085
970.268,330.98
971.719,335.318
973.169,339.467
974.619,331.775
976.07,322.856
977.52,342.047
978.97,342.66
980.421,342.147
981.871,344.439
983.321,336.265
984.772,321.608
986.222,332.038
987.672,339.972
989.123,347.66
990.573,343.773
992.023,340.12
993.474,340.021
994.924,340.653
996.374,336.791
997.825,329.159
999.275,345.289
1000.73,354.306
1002.18,358.563
1003.63,359.751
1005.08,350.225
1006.53,346.915
1007.98,360.141
1009.43,364.58
1010.88,371.329
1012.33,371.175
1013.78,365.014
1015.23,359.481
1016.68,365.959
1018.13,373.285
1019.58,373.048
1021.03,378.804
1022.48,372.8
1023.93,376.421
1025.38,385.465
1026.83,386.097
1028.28,383.906
1029.73,378.777
1031.18,379.411
1032.63,398.844
1034.08,397.972
1035.53,384.194
1036.98,408.546
1038.43,407.511
1039.88,413.004
1041.33,420.748
1042.78,426.046
1044.23,433.854
1045.69,407.486
1047.14,428.546
1048.59,420.555
1050.04,419.612
1051.49,425.843
1052.94,430.645
1054.39,440.737
1055.84,452.837
1057.29,431.919
1058.74,436.523
1060.19,442.079
1061.64,444.583
1063.09,452.722
1064.54,465.208
1065.99,471.542
1067.44,473.679
1068.89,486.239
1070.34,491.039
1071.79,482.786
1073.24,482.672
1074.69,489.789
1076.14,481.028
1077.59,482.697
1079.04,504.987
1080.49,519.162
1081.94,504.527
1083.39,499.181
1084.84,512.396
1086.29,494.265
1087.74,486.816
1089.2,482.14
1090.65,484.13
1092.1,493.568
1093.55,494.849
1095,494.454
1096.45,495.428
1097.9,489.358
1099.35,487.087
1100.8,483.41
1102.25,490.862
1103.7,497.324
1105.15,490.61
1106.6,489.745
1108.05,483.071
1109.5,481.607
1110.95,494.199
1112.4,489.32
1113.85,475.994
1115.3,473.854
1116.75,480.951
1118.2,478.184
1119.65,461.397
1121.1,457.585
1122.55,464.42
1124,460.056
1125.45,463.429
1126.9,459.781
1128.35,460.59
1129.8,464.933
1131.25,458.459
1132.7,453.62
1134.16,457.498
1135.61,446.985
1137.06,447.199
1138.51,448.359
1139.96,444.411
1141.41,454.863
1142.86,460.001
1144.31,441.541
1145.76,457.349
1147.21,458.102
1148.66,460.799
1150.11,445.889
1151.56,442.968
1153.01,434.057
1154.46,437.555
1155.91,450.991
1157.36,452.585
1158.81,449.226
1160.26,438.504
1161.71,437.276
1163.16,439.848
1164.61,437.367
1166.06,440.173
1167.51,443.079
1168.96,440.382
1170.41,441.46
1171.86,453.389
1173.31,439.701
1174.76,460.821
1176.21,442.821
1177.66,449.151
1179.12,446.642
1180.57,439.444
1182.02,432.232
1183.47,434.649
1184.92,449.463
1186.37,443.783
1187.82,450.923
1189.27,440.346
1190.72,456.463
1192.17,465.623
1193.62,469.777
1195.07,468.017
1196.52,465.628
1197.97,464.19
1199.42,456.809
1200.87,468.758
1202.32,468.018
1203.77,471.96
1205.22,461.771
1206.67,462.499
1208.12,456.781
1209.57,449.462
1211.02,454.422
1212.47,467.071
1213.92,472.925
1215.37,471.007
1216.82,471.007
1218.27,469.198
1219.72,466.23
1221.17,465.74
1222.63,469.32
1224.08,466.564
1225.53,470.858
1226.98,495.963
1228.43,484.812
1229.88,463.522
1231.33,481.834
1232.78,473.427
1234.23,495.363
1235.68,492.682
1237.13,491.337
1238.58,485.616
1240.03,470.591
1241.48,480.047
1242.93,491.817
1244.38,495.355
1245.83,483.211
1247.28,488.043
1248.73,496.308
1250.18,489.432
1251.63,505.817
1253.08,528.81
1254.53,520.285
1255.98,498.51
1257.43,509.344
1258.88,531.231
1260.33,520.556
1261.78,519.474
1263.23,525.48
1264.68,528.556
1266.13,530.391
1267.59,527.399
1269.04,528.353
1270.49,542.799
1271.94,555.129
1273.39,576.799
1274.84,561.363
1276.29,571.405
1277.74,594.872
1279.19,589
1280.64,584.093
1282.09,589.42
1283.54,591.172
1284.99,598.418
1286.44,629.672
1287.89,637.92
1289.34,644.421
1290.79,653.39
1292.24,666.421
1293.69,674.286
1295.14,695.217
1296.59,725.368
1298.04,738.662
1299.49,743.172
1300.94,762.421
1302.39,781.916
1303.84,822.673
1305.29,813.191
1306.74,816.154
1308.19,871.708
1309.64,914.325
1311.09,930.532
1312.55,956.917
1314,984.644
1315.45,1007.78
1316.9,1046.22
1318.35,1082.3
1319.8,1148.4
1321.25,1177.4
1322.7,1211.52
1324.15,1267.72
1325.6,1295.73
1327.05,1326.31
1328.5,1357.3
1329.95,1373.36
1331.4,1374.29
1332.85,1384.96
1334.3,1424.8
1335.75,1414.39
1337.2,1396.35
1338.65,1375.59
1340.1,1374.23
1341.55,1377.84
1343,1326.9
1344.45,1294.95
1345.9,1282.6
1347.35,1242.94
1348.8,1198.58
1350.25,1194.3
1351.7,1167.62
1353.15,1110.75
1354.6,1067.84
1356.06,1031.54
1357.51,1013.37
1358.96,972.305
1360.41,933.518
1361.86,909.631
1363.31,869.95
1364.76,825.884
1366.21,826.57
1367.66,819.269
1369.11,785.167
1370.56,793.474
1372.01,762.712
1373.46,759.444
1374.91,746.394
1376.36,733.346
1377.81,724.729
1379.26,718.439
1380.71,704.311
1382.16,685.568
1383.61,682.792
1385.06,684.171
1386.51,694.221
1387.96,672.557
1389.41,694.443
1390.86,685.284
1392.31,668.186
1393.76,656.812
1395.21,657.595
1396.66,653.766
1398.11,651.707
1399.56,661.435
1401.02,661.964
1402.47,674.45
1403.92,680.904
1405.37,650.074
1406.82,660.709
1408.27,651.367
1409.72,655.107
1411.17,649.757
1412.62,650.382
1414.07,660.59
1415.52,661.939
1416.97,666.272
1418.42,686.895
1419.87,670.565
1421.32,687.461
1422.77,693.021
1424.22,676.305
1425.67,690.386
1427.12,686.8
1428.57,687.781
1430.02,681.705
1431.47,682.572
1432.92,690.626
1434.37,706.073
1435.82,713.444
1437.27,686.205
1438.72,706.183
1440.17,713.888
1441.62,699.423
1443.07,753.358
1444.53,742.568
1445.98,742.259
1447.43,747.06
1448.88,745.292
1450.33,744.812
1451.78,762.39
1453.23,778.45
1454.68,779.642
1456.13,797.386
1457.58,790.734
1459.03,811.876
1460.48,807.552
1461.93,818.733
1463.38,816.19
1464.83,821.719
1466.28,855.306
1467.73,878.474
1469.18,878.233
1470.63,873.613
1472.08,886.047
1473.53,906.608
1474.98,910.676
1476.43,915.297
1477.88,929.132
1479.33,970.958
1480.78,958.963
1482.23,962.081
1483.68,1017.76
1485.13,1023.52
1486.58,1042.68
1488.03,1066.83
1489.49,1063.7
1490.94,1089.24
1492.39,1133.04
1493.84,1147.59
1495.29,1196.35
1496.74,1180.39
1498.19,1187.6
1499.64,1264.91
1501.09,1286.37
1502.54,1318.54
1503.99,1354.18
1505.44,1387.63
1506.89,1428.46
1508.34,1472.57
1509.79,1537.66
1511.24,1591.68
1512.69,1645.48
1514.14,1744.24
1515.59,1830.88
1517.04,1888.3
1518.49,1964.86
1519.94,2037.65
1521.39,2193.56
1522.84,2303.43
1524.29,2430.67
1525.74,2573.66
1527.19,2733.69
1528.64,2914.43
1530.09,3112.53
1531.54,3341.29
1532.99,3605.59
1534.45,3866.38
1535.9,4154.49
1537.35,4576.37
1538.8,4993.34
1540.25,5458.87
1541.7,5890.52
1543.15,6368.91
1544.6,6941.05
1546.05,7546.08
1547.5,8235.56
1548.95,8880.7
1550.4,9493.48
1551.85,10165.2
1553.3,10846.5
1554.75,11525.5
1556.2,12230.5
1557.65,12878
1559.1,12898.8
1560.55,12914.2
1562,12943.9
1563.45,12952.7
1564.9,12959.3
1566.35,12951.6
1567.8,12948.3
1569.25,12958.2
1570.7,12956
1572.15,12539
1573.6,11890.2
1575.05,11219.5
1576.5,10543.4
1577.96,9804.97
1579.41,9048.87
1580.86,8359.9
1582.31,7722.12
1583.76,7057.36
1585.21,6482.68
1586.66,5927.46
1588.11,5452.86
1589.56,5039.52
1591.01,4634.18
1592.46,4297
1593.91,4021.15
1595.36,3730.35
1596.81,3486.5
1598.26,3237.24
1599.71,3050.73
1601.16,2924.83
1602.61,2778.04
1604.06,2643.76
1605.51,2529.93
1606.96,2409.73
1608.41,2286.48
1609.86,2190.24
1611.31,2075.26
1612.76,2032.94
1614.21,1898.55
1615.66,1848.13
1617.11,1770.03
1618.56,1723.04
1620.01,1648.27
1621.46,1587.59
1622.92,1526.63
1624.37,1478.58
1625.82,1444.04
1627.27,1402.1
1628.72,1369.77
1630.17,1326.82
1631.62,1301.6
1633.07,1269.68
1634.52,1246.18
1635.97,1205.61
1637.42,1203.33
1638.87,1168.63
1640.32,1138.11
1641.77,1132.8
1643.22,1118.3
1644.67,1101.19
1646.12,1083.34
1647.57,1079.21
1649.02,1063.21
1650.47,1039.51
1651.92,1034.75
1653.37,1032.46
1654.82,1008.55
1656.27,994.053
1657.72,990.021
1659.17,969.854
1660.62,952.026
1662.07,956.061
1663.52,976.268
1664.97,966.395
1666.42,953.437
1667.88,945.008
1669.33,937.211
1670.78,924.521
1672.23,904.859
1673.68,909.829
1675.13,907.37
1676.58,905.542
1678.03,892.927
1679.48,881.818
1680.93,889.228
1682.38,887.42
1683.83,880.244
1685.28,870.966
1686.73,877.158
1688.18,875.2
1689.63,872.341
1691.08,864.449
1692.53,849.618
1693.98,848.271
1695.43,863.714
1696.88,873.242
1698.33,866.536
1699.78,868.747
1701.23,855.749
1702.68,858.784
1704.13,848.096
1705.58,857.001
1707.03,856.765
1708.48,837.096
1709.93,856.56
1711.39,856.213
1712.84,855.421
1714.29,851.703
1715.74,864.319
1717.19,874.191
1718.64,856.293
1720.09,857.755
1721.54,860.911
1722.99,839.342
1724.44,843.367
1725.89,867.099
1727.34,875.024
1728.79,875.132
1730.24,853.885
1731.69,839.495
1733.14,875.21
1734.59,847.079
1736.04,840.24
1737.49,861.457
1738.94,843.751
1740.39,841.134
1741.84,857.401
1743.29,842.678
1744.74,837.072
1746.19,822.739
1747.64,814.978
1749.09,827.123
1750.54,815.064
1751.99,813.257
1753.44,825.859
1754.89,815.396
1756.35,813.635
1757.8,832.864
1759.25,828.093
1760.7,817.898
1762.15,821.53
1763.6,802.23
1765.05,803.568
1766.5,816.398
1767.95,811.043
1769.4,787.519
1770.85,784.822
1772.3,778.763
1773.75,791.955
1775.2,786.557
1776.65,785.3
1778.1,786.762
1779.55,791.324
1781,786.326
1782.45,789.225
1783.9,786.075
1785.35,796.383
1786.8,799.211
1788.25,795.834
1789.7,788.154
1791.15,785.576
1792.6,796.689
1794.05,794.259
1795.5,790.137
1796.95,787.009
1798.4,791.21
1799.85,799.697
1801.31,776.715
1802.76,776.682
1804.21,760.548
1805.66,783.359
1807.11,744.79
1808.56,761.004
1810.01,768.79
1811.46,769.77
1812.91,750.567
1814.36,774.889
1815.81,790.938
1817.26,797.636
1818.71,796.853
1820.16,786.992
1821.61,779.468
1823.06,770.147
1824.51,777.146
1825.96,779.295
1827.41,771.358
1828.86,784.423
1830.31,790.821
1831.76,784.38
1833.21,791.685
1834.66,781.625
1836.11,781.361
1837.56,771.71
1839.01,795.893
1840.46,813.879
1841.91,779.712
1843.36,789.719
1844.82,802.963
1846.27,791.02
1847.72,801.856
1849.17,809.033
1850.62,801.777
1852.07,804.081
1853.52,821.997
1854.97,822.606
1856.42,807.551
1857.87,801
1859.32,824.671
1860.77,835.086
1862.22,825.051
1863.67,814.033
1865.12,818.687
1866.57,822.178
1868.02,813.038
1869.47,799.063
1870.92,792.105
1872.37,803.452
1873.82,814.072
1875.27,805.706
1876.72,795.194
1878.17,803.631
1879.62,795.831
1881.07,789.237
1882.52,779.834
1883.97,781.914
1885.42,782.707
1886.87,789.722
1888.32,786.993
1889.78,776.752
1891.23,783.697
1892.68,780.176
1894.13,786.072
1895.58,780.205
1897.03,788.225
1898.48,787.091
1899.93,768.165
1901.38,770.605
1902.83,764.717
1904.28,759.52
1905.73,764.26
1907.18,776.139
1908.63,776.061
1910.08,767.66
1911.53,755.179
1912.98,744.137
1914.43,752.212
1915.88,758.352
1917.33,745.041
1918.78,745.356
1920.23,759.581
1921.68,760.894
1923.13,759.594
1924.58,757.184
1926.03,750.03
1927.48,752.399
1928.93,761.171
1930.38,757.217
1931.83,753.953
1933.29,732.875
1934.74,755.942
1936.19,761.425
1937.64,731.921
1939.09,744.536
1940.54,736.891
1941.99,753.961
1943.44,755.805
1944.89,756.62
1946.34,758.234
1947.79,740.987
1949.24,756.978
1950.69,744.548
1952.14,764.147
1953.59,768.434
1955.04,754.137
1956.49,764.021
1957.94,759.587
1959.39,749.5
1960.84,758.464
1962.29,755.653
1963.74,762.585
1965.19,767.708
1966.64,766.921
1968.09,780.721
1969.54,788.322
1970.99,790.069
1972.44,794
1973.89,778.646
1975.34,778.859
1976.79,787.032
1978.25,785.603
1979.7,775.79
1981.15,777.085
1982.6,783.125
1984.05,774.926
1985.5,781.783
1986.95,776.222
1988.4,766.204
1989.85,786.805
1991.3,780.437
1992.75,780.936
1994.2,784.018
1995.65,789.08
1997.1,791.599
1998.55,785.298
2000,778.159
2001.45,791.949
2002.9,782.747
2004.35,776.488
2005.8,781.107
2007.25,787.622
2008.7,791.998
2010.15,793.104
2011.6,797.408
2013.05,772.091
2014.5,766.625
2015.95,777.462
2017.4,767.66
2018.85,749.59
2020.3,776.937
2021.75,779.875
2023.21,754.204
2024.66,774.053
2026.11,764.893
2027.56,775.494
2029.01,779.354
2030.46,759.516
2031.91,761.425
2033.36,749.383
2034.81,758.082
2036.26,771.921
2037.71,763.39
2039.16,764.595
2040.61,773.597
2042.06,751.97
2043.51,737.493
2044.96,748.083
2046.41,726.48
2047.86,738.36
2049.31,748.276
2050.76,738.598
2052.21,737.067
2053.66,754.939
2055.11,759.2
2056.56,742.767
2058.01,736.219
2059.46,751.629
2060.91,753.399
2062.36,743.505
2063.81,735.571
2065.26,727.047
2066.72,729.889
2068.17,741.009
2069.62,720.291
2071.07,723.554
2072.52,744.89
2073.97,743.223
2075.42,736.795
2076.87,738.414
2078.32,735.151
2079.77,721.646
2081.22,731.985
2082.67,744.857
2084.12,741.445
2085.57,724.649
2087.02,725.765
2088.47,711.708
2089.92,710.779
2091.37,717.534
2092.82,729.948
2094.27,748.325
2095.72,737.973
2097.17,731.68
2098.62,734.26
2100.07,724.041
2101.52,715.217
2102.97,722.281
2104.42,715.148
2105.87,727.304
2107.32,732.289
2108.77,735.528
2110.22,737.013
2111.68,742.673
2113.13,733.52
2114.58,728.986
2116.03,741.415
2117.48,741.88
2118.93,730.085
2120.38,743.68
2121.83,742.792
2123.28,721.199
2124.73,734.417
2126.18,743.565
2127.63,738.278
2129.08,740.99
2130.53,746.474
2131.98,751.556
2133.43,751.048
2134.88,750.986
2136.33,746.373
2137.78,752.646
2139.23,752.387
2140.68,751.288
2142.13,743.944
2143.58,742.739
2145.03,767.399
2146.48,768.794
2147.93,759.683
2149.38,749.548
2150.83,751.145
2152.28,762.574
2153.73,763.127
2155.18,753.802
2156.64,758.249
2158.09,759.17
2159.54,756.536
2160.99,765.525
2162.44,766.791
2163.89,767.575
2165.34,760.678
2166.79,765.565
2168.24,789.524
2169.69,783.081
2171.14,772.739
2172.59,773.723
2174.04,775.3
2175.49,781.303
2176.94,783.347
2178.39,777.3
2179.84,778.462
2181.29,779.382
2182.74,784.213
2184.19,782.579
2185.64,776.759
2187.09,782.116
2188.54,788.879
2189.99,789.109
2191.44,784.278
2192.89,793.568
2194.34,793.22
2195.79,793.061
2197.24,800.191
2198.69,797.656
2200.15,786.039
2201.6,787.544
2203.05,788.01
2204.5,805.228
2205.95,800.946
2207.4,804.56
2208.85,797.467
2210.3,803.484
2211.75,811.667
2213.2,814.616
2214.65,807.46
2216.1,807.542
2217.55,813.756
2219,819.018
2220.45,797.255
2221.9,816.456
2223.35,826.848
2224.8,825.285
2226.25,811.66
2227.7,797.708
2229.15,822.269
2230.6,835.015
2232.05,834.469
2233.5,814.675
2234.95,820.706
2236.4,820.849
2237.85,824.475
2239.3,805.001
2240.75,810.497
2242.2,829.204
2243.65,840.852
2245.11,819.509
2246.56,839.004
2248.01,831.54
2249.46,829.083
2250.91,845.766
2252.36,837.212
2253.81,831.382
2255.26,840.761
2256.71,827.98
2258.16,836.648
2259.61,847.705
2261.06,842.089
2262.51,821.576
2263.96,845.29
2265.41,853.414
2266.86,841.367
2268.31,825.558
2269.76,838.645
2271.21,856.577
2272.66,847.24
2274.11,845.931
2275.56,833.522
2277.01,835.581
2278.46,860.206
2279.91,860.578
2281.36,877.096
2282.81,881.689
2284.26,852.913
2285.71,852.5
2287.16,865.683
2288.61,879.384
2290.07,866.744
2291.52,852.155
2292.97,872.052
2294.42,877.134
2295.87,880.975
2297.32,883.094
2298.77,861.306
2300.22,883.174
2301.67,913.958
2303.12,912.83
2304.57,899.741
2306.02,883.697
2307.47,889.392
2308.92,886.667
2310.37,898.944
2311.82,895.309
2313.27,907.947
2314.72,889.711
2316.17,917.165
2317.62,898.728
2319.07,908.683
2320.52,924.528
2321.97,911.774
2323.42,914.745
2324.87,942.299
2326.32,922.7
2327.77,926.134
2329.22,919.339
2330.67,945.344
2332.12,949.175
2333.57,952.355
2335.03,954.778
2336.48,930.905
2337.93,929.533
2339.38,948.871
2340.83,968.27
2342.28,961.029
2343.73,970.338
2345.18,961.012
2346.63,974.373
2348.08,989.196
2349.53,990.521
2350.98,988.045
2352.43,1003.48
2353.88,997.96
2355.33,1001.85
2356.78,1004.65
2358.23,1024.03
2359.68,1013.62
2361.13,1026.84
2362.58,1055.35
2364.03,1062.04
2365.48,1041.17
2366.93,1046.65
2368.38,1071.97
2369.83,1073.32
2371.28,1067.48
2372.73,1074.65
2374.18,1107.91
2375.63,1119.98
2377.08,1126.8
2378.54,1132.52
2379.99,1132.79
2381.44,1142.62
2382.89,1176.27
2384.34,1186.95
2385.79,1178.14
2387.24,1189.9
2388.69,1215.79
2390.14,1235.14
2391.59,1257.64
2393.04,1256.64
2394.49,1262.75
2395.94,1284.67
2397.39,1274.63
2398.84,1279.19
2400.29,1338.24
2401.74,1362.89
2403.19,1368.81
2404.64,1375.1
2406.09,1378.65
2407.54,1417.44
2408.99,1403.45
2410.44,1415.11
2411.89,1410.34
2413.34,1446.61
2414.79,1463.75
2416.24,1438.05
2417.69,1472.93
2419.14,1465.22
2420.59,1478.69
2422.04,1487.78
2423.5,1480.55
2424.95,1495.3
2426.4,1506.97
2427.85,1505.19
2429.3,1485.02
2430.75,1481.66
2432.2,1466.78
2433.65,1475.4
2435.1,1481.11
2436.55,1493.59
2438,1456.01
2439.45,1465.22
2440.9,1469.65
2442.35,1464.64
2443.8,1439
2445.25,1432
2446.7,1454.05
2448.15,1435.33
2449.6,1427.38
2451.05,1435.67
2452.5,1414.57
2453.95,1424.18
2455.4,1413.46
2456.85,1401.5
2458.3,1378.81
2459.75,1345.98
2461.2,1356.37
2462.65,1357.04
2464.1,1363.81
2465.55,1374.65
2467.01,1386.38
2468.46,1351.02
2469.91,1383.95
2471.36,1380.07
2472.81,1359.38
2474.26,1348.64
2475.71,1341.58
2477.16,1374.28
2478.61,1363.56
2480.06,1354.54
2481.51,1361.52
2482.96,1337.97
2484.41,1355.86
2485.86,1348.21
2487.31,1354.54
2488.76,1353.65
2490.21,1357.86
2491.66,1347.18
2493.11,1356.72
2494.56,1386.14
2496.01,1369.53
2497.46,1374.84
2498.91,1372.38
2500.36,1398.25
2501.81,1389.68
2503.26,1384.46
2504.71,1408.51
2506.16,1419.95
2507.61,1403.56
2509.06,1417.58
2510.51,1418.27
2511.97,1410.38
2513.42,1392.49
2514.87,1436.31
2516.32,1435.26
2517.77,1426.07
2519.22,1446.09
2520.67,1450.54
2522.12,1448.09
2523.57,1473.08
2525.02,1514.87
2526.47,1526.68
2527.92,1529.91
2529.37,1532.59
2530.82,1565.18
2532.27,1577.42
2533.72,1574.81
2535.17,1588.39
2536.62,1593.29
2538.07,1627.66
2539.52,1613.24
2540.97,1647.1
2542.42,1666.03
2543.87,1668.79
2545.32,1705.62
2546.77,1698.53
2548.22,1747.26
2549.67,1789.5
2551.12,1807.4
2552.57,1819.66
2554.02,1821.66
2555.48,1831.1
2556.93,1867.74
2558.38,1911.81
2559.83,1934.85
2561.28,1958.1
2562.73,1986.61
2564.18,2058.08
2565.63,2066.58
2567.08,2120.58
2568.53,2140.78
2569.98,2237.73
2571.43,2276.69
2572.88,2308.21
2574.33,2346.44
2575.78,2402.05
2577.23,2446.19
2578.68,2496.95
2580.13,2559.29
2581.58,2591.52
2583.03,2625.37
2584.48,2715.43
2585.93,2784.6
2587.38,2843.96
2588.83,2964.81
2590.28,3005.41
2591.73,3064.66
2593.18,3183.96
2594.63,3298.46
2596.08,3374.53
2597.53,3481.61
2598.98,3624.66
2600.44,3726.06
2601.89,3828.97
2603.34,3963.02
2604.79,4102.37
2606.24,4198.56
2607.69,4360
2609.14,4501.65
2610.59,4673.69
2612.04,4801.46
2613.49,5019.01
2614.94,5128.55
2616.39,5272.85
2617.84,5531.03
2619.29,5684.02
2620.74,5882.71
2622.19,6128.58
2623.64,6330.85
2625.09,6492.44
2626.54,6690.25
2627.99,6891.23
2629.44,7128.15
2630.89,7282.86
2632.34,7494.06
2633.79,7732.73
2635.24,7947.83
2636.69,8177.6
2638.14,8338.09
2639.59,8494.23
2641.04,8709.63
2642.49,8907.31
2643.94,9040.45
2645.4,9177.94
2646.85,9276.42
2648.3,9399.57
2649.75,9473.08
2651.2,9531.33
2652.65,9566.05
2654.1,9502.66
2655.55,9522.81
2657,9567.71
2658.45,9491.09
2659.9,9469.03
2661.35,9431.83
2662.8,9341.78
2664.25,9174.68
2665.7,9032.77
2667.15,8924.34
2668.6,8768.26
2670.05,8513.48
2671.5,8282.71
2672.95,8193.56
2674.4,7901.32
2675.85,7770.07
2677.3,7518.13
2678.75,7290.1
2680.2,7079.86
2681.65,6808.55
2683.1,6625.37
2684.55,6431.82
2686,6251.1
2687.45,6023.99
2688.91,5758.96
2690.36,5561.8
2691.81,5323.25
2693.26,5122.68
2694.71,4953.07
2696.16,4782.03
2697.61,4530.78
2699.06,4444.33
2700.51,4321.74
2701.96,4165.54
2703.41,4001.6
2704.86,3843.58
2706.31,3700.9
2707.76,3576.33
2709.21,3439.99
2710.66,3295.21
2712.11,3186.75
2713.56,3097.46
2715.01,3001.35
2716.46,2987.75
2717.91,2843.27
2719.36,2777.16
2720.81,2682.12
2722.26,2568.95
2723.71,2537.89
2725.16,2488.7
2726.61,2400.64
2728.06,2348.76
2729.51,2328.51
2730.96,2235.04
2732.41,2215.23
2733.87,2159.76
2735.32,2080.13
2736.77,2056.57
2738.22,2010.26
2739.67,1992.7
2741.12,1947.12
2742.57,1917.47
2744.02,1906.22
2745.47,1817
2746.92,1822.58
2748.37,1784.3
2749.82,1775.73
2751.27,1736.6
2752.72,1700.26
2754.17,1710.74
2755.62,1656.77
2757.07,1620.37
2758.52,1622.94
2759.97,1601.62
2761.42,1585
2762.87,1587.47
2764.32,1540
2765.77,1537.87
2767.22,1538.77
2768.67,1507.11
2770.12,1489.04
2771.57,1491.56
2773.02,1465.62
2774.47,1464.07
2775.92,1447.19
2777.38,1440.44
2778.83,1426.39
2780.28,1411.7
2781.73,1393.38
2783.18,1362.16
2784.63,1398.39
2786.08,1352.74
2787.53,1359.61
2788.98,1352.31
2790.43,1333.92
2791.88,1335.44
2793.33,1327.09
2794.78,1298.56
2796.23,1316.14
2797.68,1291.64
2799.13,1314.57
2800.58,1287.25
2802.03,1277
2803.48,1259.72
2804.93,1291.77
2806.38,1279.74
2807.83,1254.86
2809.28,1248.23
2810.73,1249.8
2812.18,1231.84
2813.63,1249.36
2815.08,1229.76
2816.53,1230.82
2817.98,1227.23
2819.43,1233.06
2820.88,1227.92
2822.33,1210.17
2823.79,1195.12
2825.24,1206.16
2826.69,1211.43
2828.14,1206.91
2829.59,1191.74
2831.04,1197.82
2832.49,1172.37
2833.94,1175.69
2835.39,1192.07
2836.84,1179.41
2838.29,1151.11
2839.74,1143.92
2841.19,1151.56
2842.64,1171.46
2844.09,1166.55
2845.54,1156.3
2846.99,1128.12
2848.44,1173.39
2849.89,1158.58
2851.34,1155.73
2852.79,1160.42
2854.24,1157.16
2855.69,1150.86
2857.14,1148.89
2858.59,1150.96
2860.04,1125.95
2861.49,1172.65
2862.94,1125.32
2864.39,1136.22
2865.84,1155.36
2867.3,1159.44
2868.75,1139.67
2870.2,1137.55
2871.65,1133.7
2873.1,1127.15
2874.55,1117.58
2876,1113.95
2877.45,1139.36
2878.9,1145.1
2880.35,1108.81
2881.8,1112.92
2883.25,1132.24
2884.7,1136.39
2886.15,1132.73
2887.6,1127.08
2889.05,1133.57
2890.5,1141.53
2891.95,1125.88
2893.4,1128.52
2894.85,1120.43
2896.3,1125.06
2897.75,1124.43
2899.2,1126.36
2900.65,1128.52
2902.1,1126.47
2903.55,1108.79
2905,1115.89
2906.45,1123.9
2907.9,1114.98
2909.35,1109.37
2910.8,1103.63
2912.26,1090.39
2913.71,1101.81
2915.16,1089.79
2916.61,1096.39
2918.06,1073.5
2919.51,1101.19
2920.96,1088.05
2922.41,1102.97
2923.86,1088.29
2925.31,1079.73
2926.76,1090.49
2928.21,1084.28
2929.66,1076.51
2931.11,1067.03
2932.56,1067.09
2934.01,1065.18
2935.46,1044.1
2936.91,1042.38
2938.36,1042.96
2939.81,1041.32
2941.26,1035.09
2942.71,1030.13
2944.16,1044.87
2945.61,1041.59
2947.06,1022.69
2948.51,1022.39
2949.96,1011.93
2951.41,1021.07
2952.86,1027.01
2954.31,1021.95
2955.77,1000
2957.22,998.657
2958.67,986.707
2960.12,1006.48
2961.57,979.459
2963.02,996.082
2964.47,990.929
2965.92,994.806
2967.37,987.631
2968.82,987.411
2970.27,983.309
2971.72,983.176
2973.17,971.579
2974.62,969.835
2976.07,961.788
2977.52,957.333
2978.97,959.501
2980.42,966.777
2981.87,958.069
2983.32,959.242
2984.77,954.313
2986.22,958.55
2987.67,956.745
2989.12,971.143
2990.57,958.473
2992.02,961.532
2993.47,962.095
2994.92,963.207
2996.37,951.737
2997.82,963.342
2999.27,971.321
3000.73,948.109
3002.18,957.055
3003.63,933.053
3005.08,958.195
3006.53,960.791
3007.98,956.748
3009.43,958.237
3010.88,949.019
3012.33,939.149
3013.78,927.229
3015.23,938.139
3016.68,947.4
3018.13,957.288
3019.58,926.219
3021.03,925.651
3022.48,931.4
3023.93,941.899
3025.38,948.296
3026.83,953.807
3028.28,951.874
3029.73,958.328
3031.18,947.404
3032.63,935.971
3034.08,959.104
3035.53,935.975
3036.98,944.038
3038.43,920.848
3039.88,935.565
3041.33,974.729
3042.78,970.377
3044.23,949.156
3045.69,949.075
3047.14,942.346
3048.59,937.593
3050.04,946.199
3051.49,922.285
3052.94,945.043
3054.39,948.752
3055.84,931.66
3057.29,951.34
3058.74,956.527
3060.19,982.239
3061.64,962.507
3063.09,976.452
3064.54,967.524
3065.99,960.784
3067.44,968.487
3068.89,979.209
3070.34,977.918
3071.79,961.945
3073.24,981.421
3074.69,990.569
3076.14,998.449
3077.59,997.957
3079.04,1011.18
3080.49,1021.64
3081.94,1020.52
3083.39,985.976
3084.84,1014.49
3086.29,1039.41
3087.74,1014.96
3089.2,1033.58
3090.65,1047.05
3092.1,1070.47
3093.55,1057.55
3095,1061.83
3096.45,1062.12
3097.9,1070.27
3099.35,1065.26
3100.8,1071.4
3102.25,1098.28
3103.7,1084.79
3105.15,1125.33
3106.6,1133.18
3108.05,1132.6
3109.5,1128.86
3110.95,1146.51
3112.4,1159.18
3113.85,1170.22
3115.3,1133.59
3116.75,1166.57
3118.2,1208.52
3119.65,1199.44
3121.1,1218.67
3122.55,1238.65
3124,1231.91
3125.45,1231.64
3126.9,1253.92
3128.35,1256.39
3129.8,1241.56
3131.25,1266.51
3132.7,1268.39
3134.16,1259.73
3135.61,1269.65
3137.06,1254.51
3138.51,1263.28
3139.96,1302.16
3141.41,1306.77
3142.86,1308.03
3144.31,1310.58
3145.76,1295.15
3147.21,1307.81
3148.66,1346.57
3150.11,1334.84
3151.56,1319.89
3153.01,1321.93
3154.46,1331.82
3155.91,1314.12
3157.36,1345.8
3158.81,1337.69
3160.26,1353.39
3161.71,1347.29
3163.16,1338.54
3164.61,1353.66
3166.06,1342.95
3167.51,1355.56
3168.96,1361.29
3170.41,1393.28
3171.86,1414.2
3173.31,1395.17
3174.76,1401.28
3176.21,1406.82
3177.67,1406.68
3179.12,1436.04
3180.57,1424.94
3182.02,1427.85
3183.47,1450.36
3184.92,1455.54
3186.37,1466.94
3187.82,1464.54
3189.27,1449.2
3190.72,1459.12
3192.17,1459.33
3193.62,1457.85
3195.07,1450.07
3196.52,1444.39
3197.97,1446.87
3199.42,1442.94
3200.87,1415.49
3202.32,1439.55
3203.77,1403.93
3205.22,1381.07
3206.67,1363.47
3208.12,1420.33
3209.57,1375.25
3211.02,1344.85
3212.47,1330.73
3213.92,1337.56
3215.37,1325.62
3216.82,1305.27
3218.27,1311.41
3219.72,1286.51
3221.17,1271.63
3222.63,1258.74
3224.08,1255.39
3225.53,1233.85
3226.98,1199.6
3228.43,1196.16
3229.88,1179.22
3231.33,1160.8
3232.78,1131.73
3234.23,1125.07
3235.68,1102.38
3237.13,1061.29
3238.58,1095.94
3240.03,1096.63
3241.48,1072.45
3242.93,1053.12
3244.38,1043.07
3245.83,1017.76
3247.28,1008.47
3248.73,1006.05
3250.18,1019.29
3251.63,1002.72
3253.08,984.062
3254.53,981.259
3255.98,957.766
3257.43,950.348
3258.88,962.489
3260.33,945.286
3261.78,965.871
3263.23,956.624
3264.68,930.417
3266.13,951.361
3267.59,971.248
3269.04,944.231
3270.49,932.853
3271.94,950.458
3273.39,925.33
3274.84,913.654
3276.29,950.225
3277.74,910.514
3279.19,915.842
3280.64,935.549
3282.09,933.258
3283.54,926.825
3284.99,908.671
3286.44,915.585
3287.89,921.627
3289.34,897.765
3290.79,913.607
3292.24,918.557
3293.69,916.498
3295.14,914.821
3296.59,913.007
3298.04,902.527
3299.49,915.14
3300.94,912.3
3302.39,933.013
3303.84,908.178
3305.29,904.836
3306.74,915.944
3308.19,909.648
3309.64,911.532
3311.09,921.101
3312.55,916.545
3314,934.184
3315.45,919.967
3316.9,912.396
3318.35,906.155
3319.8,900.245
3321.25,915.382
3322.7,903.041
3324.15,903.188
3325.6,923.84
3327.05,923.933
3328.5,901.322
3329.95,909.645
3331.4,929.86
3332.85,909.051
3334.3,908.249
3335.75,901.335
3337.2,906.64
3338.65,895.489
3340.1,915.363
3341.55,900.151
3343,901.505
3344.45,898.651
3345.9,904.192
3347.35,861.548
3348.8,906.591
3350.25,911.853
3351.7,921.205
3353.15,920.838
3354.6,911.024
3356.06,904.958
3357.51,921.667
3358.96,883.121
3360.41,891.825
3361.86,897.159
3363.31,910.197
3364.76,885.783
3366.21,900.629
3367.66,923.505
3369.11,919.468
3370.56,914.131
3372.01,916.619
3373.46,891.399
3374.91,923.387
3376.36,926.586
3377.81,914.427
3379.26,897.41
3380.71,927.192
3382.16,934.696
3383.61,920.659
3385.06,913.35
3386.51,903.746
3387.96,915.892
3389.41,937.57
3390.86,935.352
3392.31,904.545
3393.76,914.079
3395.21,922.707
3396.66,893.18
3398.11,922.323
3399.56,918.648
3401.02,919.62
3402.47,918.688
3403.92,907.599
3405.37,922.134
3406.82,900.167
3408.27,932.706
3409.72,916.035
3411.17,919.788
3412.62,902.678
3414.07,929.005
3415.52,901.83
3416.97,925.537
3418.42,924.23
3419.87,916.346
3421.32,911.78
3422.77,910.989
3424.22,921.797
3425.67,940.322
3427.12,950.534
3428.57,922.744
3430.02,927.188
3431.47,921.33
3432.92,904.312
3434.37,918.08
3435.82,930.818
3437.27,932.423
3438.72,937.475
3440.17,917.118
3441.62,922.286
3443.07,926.474
3444.52,936.543
3445.98,924.829
3447.43,898.458
3448.88,908.02
3450.33,914.301
3451.78,922.149
3453.23,939.108
3454.68,919.795
3456.13,925.138
3457.58,948.434
3459.03,924.959
3460.48,919.569
3461.93,921.661
3463.38,913.73
3464.83,932.308
3466.28,931.748
3467.73,909.854
3469.18,939.42
3470.63,930.517
3472.08,926.466
3473.53,921.263
3474.98,929.299
3476.43,902.264
3477.88,945.466
3479.33,934.132
3480.78,931.282
3482.23,941.339
3483.68,935.985
3485.13,926.801
3486.58,933.482
3488.03,920.935
3489.49,920.736
3490.94,922.353
3492.39,923.822
3493.84,937.712
3495.29,921.573
3496.74,933.561
3498.19,920.52
3499.64,953.301
3501.09,921.128
3502.54,951.942
3503.99,940.243
3505.44,924.273
3506.89,946.453
3508.34,943.627
3509.79,958.853
3511.24,953.725
3512.69,952.341
3514.14,940.23
3515.59,949.441
3517.04,979.19
3518.49,955.862
3519.94,940.118
3521.39,921.66
3522.84,964.017
3524.29,943.277
3525.74,932.265
3527.19,955.916
3528.64,945.704
3530.09,951.947
3531.54,930.577
3532.99,933.259
3534.45,943.841
3535.9,966.23
3537.35,941.86
3538.8,942.223
3540.25,925.788
3541.7,929.238
3543.15,934.465
3544.6,941.707
3546.05,968.469
3547.5,958.029
3548.95,965.86
3550.4,960.678
3551.85,960.682
3553.3,930.232
3554.75,937.399
3556.2,938.624
3557.65,956.383
3559.1,947.359
3560.55,942.378
3562,930.605
3563.45,963.296
3564.9,960.71
3566.35,942.889
3567.8,965.186
3569.25,948.254
3570.7,959.092
3572.15,961.462
3573.6,965.373
3575.05,959.758
3576.5,932.64
3577.96,929.789
3579.41,953.395
3580.86,945.785
3582.31,958.689
3583.76,966.363
3585.21,964.109
3586.66,956.173
3588.11,970.932
3589.56,951.323
3591.01,967.507
3592.46,978.621
3593.91,952.715
3595.36,956.023
3596.81,970.343
3598.26,965.197
3599.71,947.864
3601.16,961.2
3602.61,972.189
3604.06,960.134
3605.51,958.067
3606.96,956.403
3608.41,971.156
3609.86,962.779
3611.31,974.309
3612.76,952.615
3614.21,951.438
3615.66,989.959
3617.11,960.069
3618.56,971.087
3620.01,963.112
3621.46,974.406
3622.92,973.055
3624.37,973.712
3625.82,973.968
3627.27,977.457
3628.72,948.568
3630.17,963.07
3631.62,976.532
3633.07,955.626
3634.52,974.402
3635.97,976.499
3637.42,974.207
3638.87,982.226
3640.32,955.545
3641.77,994.416
3643.22,996.342
3644.67,980.991
3646.12,981.596
3647.57,984.592
3649.02,979.786
3650.47,991.253
3651.92,983.181
3653.37,992.664
3654.82,987.397
3656.27,982.396
3657.72,978.25
3659.17,992.772
3660.62,1000.58
3662.07,991.231
3663.52,988.59
3664.97,993.177
3666.43,987.095
3667.88,1005.22
3669.33,975.493
3670.78,980.173
3672.23,991.42
3673.68,1001.1
3675.13,1001.24
3676.58,1005.13
3678.03,989.858
3679.48,1005.3
3680.93,1012.41
3682.38,990.518
3683.83,989.342
3685.28,987.594
3686.73,1010.75
3688.18,1002.56
3689.63,1004.86
3691.08,995.555
3692.53,1011.16
3693.98,1000.09
3695.43,1010.04
3696.88,999.678
3698.33,988.308
3699.78,988.403
3701.23,1000.67
3702.68,1004.82
3704.13,1022.95
3705.58,1004.63
3707.03,1022.76
3708.48,1003.44
3709.93,998.841
3711.39,1010.27
3712.84,984.666
3714.29,1017.22
3715.74,1007.51
3717.19,1009.87
3718.64,1016.46
3720.09,1009.12
3721.54,1008.66
3722.99,1008.64
3724.44,1013.94
3725.89,1002.61
3727.34,990.549
3728.79,994.048
3730.24,989.903
3731.69,1020.05
3733.14,1016.34
3734.59,1019.37
3736.04,1006.48
3737.49,1009.97
3738.94,1022.32
3740.39,1040.09
3741.84,1005.56
3743.29,1035.49
3744.74,1044.63
3746.19,1015.92
3747.64,1028.1
3749.09,1037.75
3750.54,1011.48
3751.99,1016.25
3753.44,1022.69
3754.89,1025.08
3756.35,1035.3
3757.8,1030.27
3759.25,1029.63
3760.7,1030.48
3762.15,1026.89
3763.6,1015.03
3765.05,1033.67
3766.5,1033.05
3767.95,1039.02
3769.4,1035.43
3770.85,1031.94
3772.3,1022.62
3773.75,1024.39
3775.2,1032.04
3776.65,1028.7
3778.1,1044.42
3779.55,1029.65
3781,1046.02
3782.45,1058.56
3783.9,1039.78
3785.35,1024.1
3786.8,1063.28
3788.25,1023.74
3789.7,1043.86
3791.15,1027.27
3792.6,1058.94
3794.05,1037.85
3795.5,1024.35
3796.95,1032.68
3798.4,1021.59
3799.85,1045.16
3801.31,1045.73
3802.76,1024.67
3804.21,1070.69
3805.66,1066.59
3807.11,1067.41
3808.56,1057.22
3810.01,1066.33
3811.46,1073.74
3812.91,1071.43
3814.36,1055.55
3815.81,1056.37
3817.26,1061.24
3818.71,1060.47
3820.16,1071.26
3821.61,1073.88
3823.06,1054.01
3824.51,1047.49
3825.96,1068.21
3827.41,1069.14
3828.86,1067.33
3830.31,1077.84
3831.76,1067.63
3833.21,1074.2
3834.66,1090.26
3836.11,1087.78
3837.56,1081.09
3839.01,1073.76
3840.46,1074.2
3841.91,1064.78
3843.36,1062.96
3844.82,1032.93
3846.27,1070.24
3847.72,1084.07
3849.17,1081.62
3850.62,1100.12
3852.07,1086.99
3853.52,1081.09
3854.97,1082.68
3856.42,1081.31
3857.87,1081.11
3859.32,1092.07
3860.77,1087.11
3862.22,1085.22
3863.67,1098
3865.12,1095.76
3866.57,1085.35
3868.02,1085.67
3869.47,1109.53
3870.92,1084.92
3872.37,1079.36
3873.82,1096.54
3875.27,1118.65
3876.72,1130.49
3878.17,1125.38
3879.62,1096.28
3881.07,1102.98
3882.52,1102.16
3883.97,1105.16
3885.42,1117.53
3886.87,1116.61
3888.32,1126.01
3889.78,1109.59
3891.23,1119.35
3892.68,1114.05
3894.13,1111.58
3895.58,1120.61
3897.03,1134.6
3898.48,1136.95
3899.93,1145.48
3901.38,1139.62
3902.83,1116.75
3904.28,1141.96
3905.73,1144.69
3907.18,1145.91
3908.63,1125.61
3910.08,1139.61
3911.53,1135.36
3912.98,1153.9
3914.43,1144.28
3915.88,1146.12
3917.33,1133.71
3918.78,1125.14
3920.23,1147.77
3921.68,1155
3923.13,1170.5
3924.58,1150.4
3926.03,1160.23
3927.48,1155.53
3928.93,1195.91
3930.38,1154.47
3931.83,1160.11
3933.28,1165.15
3934.74,1170.89
3936.19,1191.32
3937.64,1178.13
3939.09,1159.98
3940.54,1192.08
3941.99,1179.07
3943.44,1170.58
3944.89,1176.02
3946.34,1188.07
3947.79,1200.8
3949.24,1192.04
3950.69,1195.98
3952.14,1203.06
3953.59,1209.5
3955.04,1213.43
3956.49,1178.18
3957.94,1218.42
3959.39,1190.98
3960.84,1187.95
3962.29,1197.52
3963.74,1191.49
3965.19,1181.79
3966.64,1227.03
3968.09,1198.93
3969.54,1221.6
3970.99,1193.25
3972.44,1216.8
3973.89,1212.68
3975.34,1239.59
3976.79,1233.26
3978.25,1241.28
3979.7,1238.24
3981.15,1225.49
3982.6,1232.72
3984.05,1244.14
3985.5,1249.66
3986.95,1266.11
3988.4,1245.03
3989.85,1250.52
3991.3,1245.55
3992.75,1253.59
3994.2,1268.72
3995.65,1242.07
3997.1,1304.38
3998.55,1250.79
4000,1253.47
