0.7,4.11969
1.45033,4.11969
2.90065,4.11969
4.35098,4.11969
5.80131,4.11969
7.25163,4.11969
8.70196,17.235
10.1523,7.56038
11.6026,5.95734
13.0529,6.6141
14.5033,7.39563
15.9536,6.70262
17.4039,2.68799
18.8542,0.229889
20.3046,0.181216
21.7549,1.59999
23.2052,3.3085
24.6555,3.10762
26.1059,2.2174
27.5562,0.629178
29.0065,0.146571
30.4569,3.0349
31.9072,1.42652
33.3575,1.3281
34.8078,1.15838
36.2582,0.632668
37.7085,1.23617
39.1588,0.169199
40.6091,1.30664
42.0595,3.64684
43.5098,5.72347
44.9601,6.52877
46.4104,6.17394
47.8608,9.54982
49.3111,16.695
50.7614,25.1918
52.2117,62.6681
53.6621,121.8
55.1124,210.716
56.5627,330.825
58.0131,473.762
59.4634,613.798
60.9137,739.34
62.364,827.314
63.8144,866.921
65.2647,939.555
66.715,970.715
68.1653,997.687
69.6157,1028.22
71.066,1057.2
72.5163,1069.92
73.9666,1066.17
75.417,1056.67
76.8673,1057.8
78.3176,1102.25
79.7679,1110.66
81.2183,1128.82
82.6686,1160.53
84.1189,1201.36
85.5693,1228.25
87.0196,1235.8
88.4699,1234.82
89.9202,1208.57
91.3706,1135.1
92.8209,1074.39
94.2712,1018.85
95.7215,957.307
97.1719,901.091
98.6222,884.893
100.073,853.33
101.523,816.612
102.973,783.165
104.423,757.468
105.874,736.799
107.324,719.8
108.774,711.61
110.225,699.016
111.675,674.886
113.125,680.158
114.576,690.747
116.026,684.772
117.476,663.354
118.927,637.718
120.377,644.83
121.827,631.457
123.278,623.964
124.728,623.581
126.178,614.036
127.629,600.642
129.079,586.787
130.529,577.548
131.98,572.023
133.43,560.236
134.88,545.944
136.331,527.472
137.781,519.091
139.231,521.976
140.682,498.789
142.132,504.921
143.582,495.279
145.033,479.165
146.483,469.244
147.933,453.773
149.384,467.15
150.834,462.968
152.284,446.648
153.735,438.177
155.185,456.511
156.635,441.072
158.086,435.185
159.536,443.333
160.986,452.807
162.437,451.38
163.887,435.663
165.337,417.479
166.788,403.208
168.238,396.192
169.688,398.03
171.139,389.199
172.589,384.102
174.039,382.664
175.489,370.4
176.94,394.458
178.39,400.444
179.84,398.947
181.291,395.393
182.741,387.22
184.191,377.656
185.642,368.627
187.092,358.535
188.542,352.567
189.993,369.353
191.443,355.54
192.893,355.427
194.344,363.349
195.794,367.163
197.244,346.291
198.695,350.954
200.145,352.227
201.595,347.335
203.046,338.921
204.496,337.281
205.946,345.649
207.397,350.482
208.847,355.714
210.297,361.737
211.748,353.743
213.198,354.75
214.648,357.822
216.099,357.021
217.549,351.409
218.999,353.87
220.45,361.394
221.9,356.883
223.35,346.681
224.801,340.864
226.251,352.565
227.701,349.066
229.152,356.309
230.602,351.231
232.052,328.651
233.503,346.749
234.953,347.807
236.403,348.64
237.854,349.468
239.304,349.395
240.754,348.984
242.204,345.701
243.655,342.765
245.105,335.328
246.555,324.95
248.006,328.241
249.456,329.594
250.906,335.146
252.357,341.07
253.807,339.952
255.257,318.718
256.708,324.056
258.158,328.966
259.608,331.64
261.059,333.876
262.509,340.891
263.959,311.989
265.41,308.124
266.86,308.367
268.31,310.204
269.761,331.156
271.211,320.83
272.661,316.68
274.112,310.072
275.562,305.838
277.012,317.106
278.463,316.279
279.913,318.751
281.363,315.844
282.814,312.227
284.264,316.59
285.714,305.628
287.165,308.449
288.615,312.196
290.065,306.805
291.516,290.323
292.966,300.673
294.416,311.567
295.867,304.728
297.317,294.954
298.767,295.684
300.218,291.338
301.668,294.189
303.118,295.469
304.569,283.962
306.019,266.063
307.469,282.648
308.919,275.285
310.37,277.062
311.82,276.199
313.27,270.336
314.721,269.919
316.171,269.297
317.621,271.898
319.072,265.33
320.522,259.024
321.972,271.908
323.423,270.87
324.873,261.869
326.323,261.339
327.774,267.117
329.224,270.254
330.674,260.693
332.125,269.495
333.575,269.979
335.025,262.784
336.476,254.413
337.926,253.789
339.376,252.767
340.827,256.242
342.277,258.485
343.727,259.154
345.178,263.68
346.628,249.73
348.078,256.076
349.529,269.373
350.979,276.017
352.429,265.869
353.88,250.45
355.33,258.834
356.78,264.049
358.231,264.627
359.681,263.238
361.131,257.191
362.582,247.606
364.032,243.297
365.482,246.037
366.933,250.546
368.383,244.991
369.833,242.901
371.284,239.486
372.734,239.389
374.184,239.923
375.635,238.157
377.085,252.779
378.535,259.681
379.986,248.363
381.436,239.231
382.886,245.337
384.336,250.772
385.787,244.65
387.237,240.031
388.687,242.325
390.138,248.905
391.588,251.214
393.038,247.447
394.489,237.896
395.939,242.719
397.389,249.521
398.84,243.157
400.29,233.104
401.74,247.961
403.191,240.067
404.641,238.992
406.091,247.605
407.542,234.774
408.992,241.272
410.442,248.797
411.893,250.352
413.343,249.792
414.793,250.796
416.244,239.258
417.694,248.241
419.144,248.953
420.595,241.062
422.045,234.225
423.495,243.676
424.946,241.367
426.396,238.201
427.846,232.6
429.297,236.199
430.747,252.182
432.197,234.719
433.648,243.653
435.098,240.575
436.548,234.105
437.999,232.09
439.449,234.851
440.899,226.016
442.35,237.968
443.8,237.448
445.25,231.66
446.701,235.791
448.151,247.594
449.601,245.904
451.051,243.586
452.502,241.924
453.952,236.738
455.402,224.45
456.853,239.005
458.303,234.899
459.753,235.21
461.204,235.858
462.654,233.043
464.104,234.512
465.555,231.348
467.005,235.813
468.455,240.429
469.906,236.786
471.356,225.61
472.806,244.629
474.257,247.041
475.707,241.951
477.157,240.936
478.608,246.344
480.058,249.191
481.508,227.005
482.959,237.635
484.409,239.305
485.859,238.791
487.31,242.564
488.76,232.231
490.21,245.132
491.661,251.701
493.111,243.511
494.561,229.896
496.012,226.324
497.462,238.175
498.912,230.309
500.363,234.655
501.813,236.277
503.263,232.4
504.714,233.017
506.164,241.279
507.614,238.642
509.065,236.191
510.515,236.279
511.965,235.887
513.416,228.854
514.866,233.736
516.316,239.15
517.766,239.851
519.217,237.191
520.667,234.202
522.117,232.747
523.568,237.634
525.018,233.029
526.468,229.404
527.919,228.779
529.369,232.185
530.819,249.624
532.27,232.676
533.72,237.265
535.17,236.804
536.621,233.055
538.071,240.468
539.521,242.595
540.972,236.346
542.422,239.815
543.872,236.847
545.323,232.592
546.773,242.904
548.223,237.79
549.674,236.952
551.124,240.902
552.574,243.218
554.025,241.447
555.475,238.223
556.925,236.731
558.376,235.428
559.826,232.528
561.276,232.022
562.727,231.694
564.177,224.953
565.627,233.492
567.078,229.446
568.528,223.101
569.978,222.488
571.429,226.468
572.879,225.822
574.329,233.088
575.78,225.975
577.23,230.447
578.68,235.307
580.131,235.722
581.581,241.554
583.031,228.721
584.482,235.099
585.932,233.936
587.382,232.392
588.832,232.74
590.283,225.025
591.733,225.025
593.183,229.909
594.634,238.096
596.084,233.092
597.534,217.564
598.985,215.202
600.435,217.345
601.885,229.771
603.336,232.967
604.786,234.966
606.236,237.731
607.687,234.066
609.137,232.135
610.587,234.866
612.038,239.454
613.488,239.645
614.938,237.663
616.389,240.043
617.839,234.891
619.289,241.093
620.74,231.966
622.19,230.113
623.64,233.284
625.091,225.6
626.541,224.31
627.991,232.692
629.442,242.328
630.892,243.757
632.342,237.352
633.793,229.958
635.243,228.883
636.693,242.309
638.144,241.257
639.594,235.604
641.044,233.921
642.495,239.092
643.945,244.976
645.395,227.101
646.846,240.736
648.296,247.044
649.746,246.38
651.197,245.252
652.647,242.54
654.097,243.402
655.547,247.714
656.998,247.937
658.448,243.9
659.898,240.272
661.349,241.592
662.799,238.787
664.249,245.543
665.7,247.511
667.15,243.329
668.6,244.326
670.051,255.399
671.501,249.138
672.951,247.195
674.402,249.651
675.852,252.025
677.302,247.273
678.753,239.738
680.203,247.807
681.653,250.838
683.104,253.676
684.554,247.612
686.004,247.361
687.455,250.977
688.905,244.9
690.355,249.444
691.806,257.301
693.256,249.822
694.706,252.382
696.157,256.791
697.607,252.23
699.057,261.157
700.508,251.612
701.958,247.779
703.408,247.989
704.859,248.992
706.309,246.091
707.759,239.219
709.21,257.437
710.66,256.408
712.11,253.367
713.561,250.235
715.011,250.227
716.461,254.019
717.912,253.867
719.362,247.781
720.812,260.958
722.263,263.131
723.713,263.373
725.163,262.688
726.613,248.747
728.064,251.79
729.514,246.841
730.964,249.699
732.415,259.834
733.865,260.479
735.315,248.878
736.766,259.583
738.216,257.84
739.666,253.452
741.117,255.873
742.567,261.09
744.017,263.337
745.468,259.137
746.918,247.581
748.368,248.628
749.819,254.309
751.269,271.034
752.719,273.436
754.17,259.356
755.62,267.796
757.07,277.619
758.521,272.369
759.971,262.73
761.421,253.646
762.872,256.553
764.322,268.95
765.772,256.637
767.223,252.048
768.673,266.274
770.123,264.932
771.574,254.846
773.024,253.867
774.474,266.955
775.925,260.182
777.375,271.777
778.825,262.909
780.276,263.393
781.726,264.937
783.176,264.304
784.627,271.244
786.077,264.016
787.527,274.98
788.978,271.285
790.428,267.706
791.878,266.611
793.328,266.803
794.779,270.071
796.229,271.386
797.68,262.212
799.13,262.613
800.58,268.613
802.03,274.978
803.481,273.858
804.931,258.318
806.381,263.366
807.832,272.05
809.282,275.774
810.732,274.425
812.183,271.601
813.633,267.966
815.083,259.263
816.534,267.393
817.984,260.537
819.434,272.566
820.885,276.914
822.335,274.44
823.785,280.234
825.236,291.501
826.686,281.381
828.136,286.638
829.587,298.354
831.037,293.032
832.487,283.084
833.938,282.405
835.388,272.267
836.838,295.391
838.289,286.712
839.739,279.657
841.189,276.853
842.64,279.582
844.09,283.517
845.54,278.205
846.991,290.111
848.441,281.961
849.891,294.855
851.342,291.628
852.792,276.77
854.242,273.909
855.693,286.661
857.143,271.21
858.593,290.391
860.044,298.999
861.494,303.329
862.944,297.726
864.394,288.027
865.845,291.503
867.295,282.664
868.745,291.393
870.196,287.215
871.646,287
873.096,285.004
874.547,278.91
875.997,278.941
877.447,295.902
878.898,298.777
880.348,282.009
881.798,280.286
883.249,278.438
884.699,279.567
886.149,291.449
887.6,287.949
889.05,285.066
890.5,287.836
891.951,293.16
893.401,293.872
894.851,300.978
896.302,311.108
897.752,297.045
899.202,290.169
900.653,283.071
902.103,301.346
903.553,300.111
905.004,292.21
906.454,292.928
907.904,296.397
909.355,296.414
910.805,290.189
912.255,306.582
913.706,315.056
915.156,308.931
916.606,307.339
918.057,317.232
919.507,309.183
920.957,296.942
922.408,314.983
923.858,310.761
925.308,299.664
926.759,300.905
928.209,310.996
929.659,310.432
931.109,301.209
932.56,308.118
934.01,299.101
935.46,306.194
936.911,309.684
938.361,313.957
939.811,321.59
941.262,310.607
942.712,311.721
944.162,297.19
945.613,314.95
947.063,307.262
948.513,294.814
949.964,296.11
951.414,308.109
952.864,332.68
954.315,324.424
955.765,308.506
957.215,316.447
958.666,316.26
960.116,310.743
961.566,306.22
963.017,299.399
964.467,308.71
965.917,309.829
967.368,317.7
968.818,312.509
970.268,308.68
971.719,312.726
973.169,316.596
974.619,309.421
976.07,301.104
977.52,319.001
978.97,319.573
980.421,319.095
981.871,321.233
983.321,313.609
984.772,299.94
986.222,309.667
987.672,317.067
989.123,324.237
990.573,320.612
992.023,317.204
993.474,317.112
994.924,317.702
996.374,314.1
997.825,306.982
999.275,322.025
1000.73,330.435
1002.18,334.405
1003.63,335.513
1005.08,326.629
1006.53,323.542
1007.98,335.876
1009.43,340.017
1010.88,346.311
1012.33,346.167
1013.78,340.421
1015.23,335.261
1016.68,341.303
1018.13,348.135
1019.58,347.914
1021.03,353.282
1022.48,347.682
1023.93,351.06
1025.38,359.495
1026.83,360.084
1028.28,358.04
1029.73,353.257
1031.18,353.849
1032.63,371.972
1034.08,371.159
1035.53,358.309
1036.98,381.02
1038.43,380.055
1039.88,385.178
1041.33,392.4
1042.78,397.342
1044.23,404.624
1045.69,380.031
1047.14,399.672
1048.59,392.22
1050.04,391.341
1051.49,397.152
1052.94,401.631
1054.39,411.042
1055.84,422.327
1057.29,402.818
1058.74,407.112
1060.19,412.294
1061.64,414.629
1063.09,422.22
1064.54,433.865
1065.99,439.772
1067.44,441.765
1068.89,453.478
1070.34,457.955
1071.79,450.259
1073.24,450.152
1074.69,456.789
1076.14,448.619
1077.59,450.176
1079.04,470.964
1080.49,484.183
1081.94,470.535
1083.39,465.549
1084.84,477.873
1086.29,460.964
1087.74,454.017
1089.2,449.656
1090.65,451.512
1092.1,460.314
1093.55,461.508
1095,461.14
1096.45,462.048
1097.9,456.388
1099.35,454.27
1100.8,450.841
1102.25,457.79
1103.7,463.817
1105.15,457.555
1106.6,456.748
1108.05,450.525
1109.5,449.158
1110.95,460.903
1112.4,456.352
1113.85,443.924
1115.3,441.928
1116.75,448.547
1118.2,445.967
1119.65,430.311
1121.1,426.756
1122.55,433.13
1124,429.06
1125.45,432.205
1126.9,428.803
1128.35,429.557
1129.8,433.608
1131.25,427.57
1132.7,423.058
1134.16,426.674
1135.61,416.87
1137.06,417.069
1138.51,418.151
1139.96,414.469
1141.41,424.216
1142.86,429.008
1144.31,411.793
1145.76,426.535
1147.21,427.238
1148.66,429.753
1150.11,415.848
1151.56,413.123
1153.01,404.812
1154.46,408.075
1155.91,420.606
1157.36,422.092
1158.81,418.96
1160.26,408.96
1161.71,407.814
1163.16,410.213
1164.61,407.9
1166.06,410.517
1167.51,413.226
1168.96,410.712
1170.41,411.717
1171.86,422.842
1173.31,410.077
1174.76,429.773
1176.21,412.986
1177.66,418.89
1179.12,416.55
1180.57,409.836
1182.02,403.111
1183.47,405.365
1184.92,419.18
1186.37,413.883
1187.82,420.542
1189.27,410.678
1190.72,425.709
1192.17,434.252
1193.62,438.126
1195.07,436.484
1196.52,434.256
1197.97,432.916
1199.42,426.032
1200.87,437.176
1202.32,436.485
1203.77,440.162
1205.22,430.66
1206.67,431.338
1208.12,426.005
1209.57,419.179
1211.02,423.806
1212.47,435.603
1213.92,441.062
1215.37,439.273
1216.82,439.273
1218.27,437.585
1219.72,434.817
1221.17,434.361
1222.63,437.699
1224.08,435.129
1225.53,439.134
1226.98,462.548
1228.43,452.148
1229.88,432.293
1231.33,449.371
1232.78,441.53
1234.23,461.988
1235.68,459.488
1237.13,458.233
1238.58,452.897
1240.03,438.885
1241.48,447.704
1242.93,458.681
1244.38,461.981
1245.83,450.655
1247.28,455.161
1248.73,462.869
1250.18,456.457
1251.63,471.738
1253.08,493.181
1254.53,485.231
1255.98,464.923
1257.43,475.027
1258.88,495.439
1260.33,485.484
1261.78,484.475
1263.23,490.076
1264.68,492.945
1266.13,494.656
1267.59,491.865
1269.04,492.755
1270.49,506.228
1271.94,517.727
1273.39,537.938
1274.84,523.541
1276.29,532.907
1277.74,554.792
1279.19,549.317
1280.64,544.74
1282.09,549.708
1283.54,551.342
1284.99,558.1
1286.44,587.248
1287.89,594.94
1289.34,601.003
1290.79,609.368
1292.24,621.521
1293.69,628.856
1295.14,648.377
1296.59,676.497
1298.04,688.895
1299.49,693.101
1300.94,711.053
1302.39,729.235
1303.84,767.245
1305.29,758.402
1306.74,761.166
1308.19,812.977
1309.64,852.723
1311.09,867.838
1312.55,892.445
1314,918.304
1315.45,939.883
1316.9,975.734
1318.35,1009.38
1319.8,1071.02
1321.25,1098.07
1322.7,1129.9
1324.15,1182.31
1325.6,1208.43
1327.05,1236.95
1328.5,1265.85
1329.95,1280.83
1331.4,1281.7
1332.85,1291.65
1334.3,1328.8
1335.75,1319.09
1337.2,1302.27
1338.65,1282.91
1340.1,1281.64
1341.55,1285.01
1343,1237.5
1344.45,1207.7
1345.9,1196.19
1347.35,1159.2
1348.8,1117.83
1350.25,1113.83
1351.7,1088.96
1353.15,1035.91
1354.6,995.892
1356.06,962.036
1357.51,945.095
1358.96,906.797
1360.41,870.622
1361.86,848.344
1363.31,811.338
1364.76,770.24
1366.21,770.881
1367.66,764.071
1369.11,732.267
1370.56,740.014
1372.01,711.324
1373.46,708.277
1374.91,696.106
1376.36,683.937
1377.81,675.9
1379.26,670.035
1380.71,656.858
1382.16,639.378
1383.61,636.789
1385.06,638.076
1386.51,647.448
1387.96,627.244
1389.41,647.655
1390.86,639.113
1392.31,623.167
1393.76,612.56
1395.21,613.289
1396.66,609.719
1398.11,607.799
1399.56,616.871
1401.02,617.364
1402.47,629.009
1403.92,635.028
1405.37,606.275
1406.82,616.194
1408.27,607.481
1409.72,610.969
1411.17,605.98
1412.62,606.563
1414.07,616.083
1415.52,617.341
1416.97,621.382
1418.42,640.616
1419.87,625.386
1421.32,641.143
1422.77,646.329
1424.22,630.739
1425.67,643.871
1427.12,640.527
1428.57,641.442
1430.02,635.775
1431.47,636.584
1432.92,644.095
1434.37,658.502
1435.82,665.376
1437.27,639.972
1438.72,658.604
1440.17,665.79
1441.62,652.3
1443.07,702.6
1444.53,692.538
1445.98,692.25
1447.43,696.727
1448.88,695.078
1450.33,694.631
1451.78,711.024
1453.23,726.002
1454.68,727.113
1456.13,743.662
1457.58,737.459
1459.03,757.176
1460.48,753.143
1461.93,763.571
1463.38,761.199
1464.83,766.356
1466.28,797.68
1467.73,819.287
1469.18,819.062
1470.63,814.753
1472.08,826.35
1473.53,845.525
1474.98,849.32
1476.43,853.629
1477.88,866.532
1479.33,905.54
1480.78,894.353
1482.23,897.261
1483.68,949.192
1485.13,954.563
1486.58,972.427
1488.03,994.955
1489.49,992.029
1490.94,1015.86
1492.39,1056.7
1493.84,1070.28
1495.29,1115.74
1496.74,1100.86
1498.19,1107.58
1499.64,1179.68
1501.09,1199.7
1502.54,1229.71
1503.99,1262.94
1505.44,1294.14
1506.89,1332.22
1508.34,1373.35
1509.79,1434.06
1511.24,1484.44
1512.69,1534.61
1514.14,1626.73
1515.59,1707.53
1517.04,1761.07
1518.49,1832.48
1519.94,1900.37
1521.39,2045.77
1522.84,2148.24
1524.29,2266.9
1525.74,2400.26
1527.19,2549.51
1528.64,2718.07
1530.09,2902.82
1531.54,3116.17
1532.99,3362.66
1534.45,3605.89
1535.9,3874.58
1537.35,4268.04
1538.8,4656.92
1540.25,5091.08
1541.7,5493.65
1543.15,5939.81
1544.6,6473.4
1546.05,7037.66
1547.5,7680.69
1548.95,8282.36
1550.4,8853.86
1551.85,9480.37
1553.3,10115.8
1554.75,10748.9
1556.2,11406.5
1557.65,12010.3
1559.1,12029.7
1560.55,12044.1
1562,12071.8
1563.45,12080
1564.9,12086.2
1566.35,12079
1567.8,12075.9
1569.25,12085.1
1570.7,12083.1
1572.15,11694.2
1573.6,11089.1
1575.05,10463.6
1576.5,9833.03
1577.96,9144.37
1579.41,8439.2
1580.86,7796.65
1582.31,7201.85
1583.76,6581.88
1585.21,6045.91
1586.66,5528.09
1588.11,5085.48
1589.56,4699.98
1591.01,4321.95
1592.46,4007.49
1593.91,3750.23
1595.36,3479.02
1596.81,3251.59
1598.26,3019.13
1599.71,2845.18
1601.16,2727.77
1602.61,2590.87
1604.06,2465.63
1605.51,2359.48
1606.96,2247.37
1608.41,2132.43
1609.86,2042.67
1611.31,1935.44
1612.76,1895.98
1614.21,1770.64
1615.66,1723.61
1617.11,1650.77
1618.56,1606.95
1620.01,1537.22
1621.46,1480.63
1622.92,1423.78
1624.37,1378.96
1625.82,1346.75
1627.27,1307.64
1628.72,1277.48
1630.17,1237.43
1631.62,1213.9
1633.07,1184.14
1634.52,1162.22
1635.97,1124.38
1637.42,1122.26
1638.87,1089.89
1640.32,1061.43
1641.77,1056.48
1643.22,1042.95
1644.67,1027
1646.12,1010.35
1647.57,1006.5
1649.02,991.579
1650.47,969.469
1651.92,965.031
1653.37,962.898
1654.82,940.602
1656.27,927.079
1657.72,923.319
1659.17,904.511
1660.62,887.883
1662.07,891.647
1663.52,910.492
1664.97,901.284
1666.42,889.199
1667.88,881.338
1669.33,874.067
1670.78,862.232
1672.23,843.894
1673.68,848.529
1675.13,846.236
1676.58,844.532
1678.03,832.767
1679.48,822.406
1680.93,829.316
1682.38,827.63
1683.83,820.938
1685.28,812.285
1686.73,818.059
1688.18,816.233
1689.63,813.567
1691.08,806.207
1692.53,792.375
1693.98,791.119
1695.43,805.521
1696.88,814.408
1698.33,808.153
1699.78,810.215
1701.23,798.093
1702.68,800.924
1704.13,790.956
1705.58,799.261
1707.03,799.04
1708.48,780.697
1709.93,798.849
1711.39,798.526
1712.84,797.787
1714.29,794.32
1715.74,806.086
1717.19,815.292
1718.64,798.6
1720.09,799.964
1721.54,802.907
1722.99,782.791
1724.44,786.546
1725.89,808.679
1727.34,816.069
1728.79,816.17
1730.24,796.354
1731.69,782.934
1733.14,816.243
1734.59,790.007
1736.04,783.629
1737.49,803.417
1738.94,786.904
1740.39,784.463
1741.84,799.633
1743.29,785.903
1744.74,780.675
1746.19,767.307
1747.64,760.069
1749.09,771.396
1750.54,760.149
1751.99,758.464
1753.44,770.217
1754.89,760.459
1756.35,758.817
1757.8,776.75
1759.25,772.3
1760.7,762.792
1762.15,766.18
1763.6,748.18
1765.05,749.428
1766.5,761.393
1767.95,756.399
1769.4,734.46
1770.85,731.944
1772.3,726.294
1773.75,738.597
1775.2,733.563
1776.65,732.391
1778.1,733.754
1779.55,738.009
1781,733.347
1782.45,736.051
1783.9,733.113
1785.35,742.727
1786.8,745.365
1788.25,742.215
1789.7,735.052
1791.15,732.648
1792.6,743.012
1794.05,740.746
1795.5,736.902
1796.95,733.985
1798.4,737.902
1799.85,745.817
1801.31,724.384
1802.76,724.354
1804.21,709.306
1805.66,730.58
1807.11,694.61
1808.56,709.731
1810.01,716.993
1811.46,717.907
1812.91,699.998
1814.36,722.681
1815.81,737.649
1817.26,743.895
1818.71,743.165
1820.16,733.968
1821.61,726.951
1823.06,718.258
1824.51,724.786
1825.96,726.79
1827.41,719.388
1828.86,731.573
1830.31,737.54
1831.76,731.533
1833.21,738.346
1834.66,728.963
1836.11,728.717
1837.56,719.717
1839.01,742.27
1840.46,759.044
1841.91,727.179
1843.36,736.512
1844.82,748.864
1846.27,737.725
1847.72,747.831
1849.17,754.525
1850.62,747.757
1852.07,749.906
1853.52,766.615
1854.97,767.183
1856.42,753.142
1857.87,747.033
1859.32,769.109
1860.77,778.822
1862.22,769.463
1863.67,759.188
1865.12,763.528
1866.57,766.784
1868.02,758.26
1869.47,745.226
1870.92,738.737
1872.37,749.319
1873.82,759.225
1875.27,751.422
1876.72,741.618
1878.17,749.487
1879.62,742.212
1881.07,736.062
1882.52,727.293
1883.97,729.233
1885.42,729.973
1886.87,736.515
1888.32,733.969
1889.78,724.418
1891.23,730.896
1892.68,727.612
1894.13,733.11
1895.58,727.639
1897.03,735.119
1898.48,734.061
1899.93,716.41
1901.38,718.686
1902.83,713.194
1904.28,708.348
1905.73,712.768
1907.18,723.847
1908.63,723.774
1910.08,715.939
1911.53,704.299
1912.98,694.001
1914.43,701.532
1915.88,707.258
1917.33,694.844
1918.78,695.138
1920.23,708.404
1921.68,709.629
1923.13,708.417
1924.58,706.169
1926.03,699.497
1927.48,701.706
1928.93,709.887
1930.38,706.2
1931.83,703.156
1933.29,683.498
1934.74,705.01
1936.19,710.124
1937.64,682.608
1939.09,694.373
1940.54,687.243
1941.99,703.163
1943.44,704.883
1944.89,705.643
1946.34,707.148
1947.79,691.063
1949.24,705.977
1950.69,694.385
1952.14,712.663
1953.59,716.661
1955.04,703.327
1956.49,712.546
1957.94,708.41
1959.39,699.003
1960.84,707.363
1962.29,704.741
1963.74,711.206
1965.19,715.984
1966.64,715.25
1968.09,728.12
1969.54,735.209
1970.99,736.838
1972.44,740.504
1973.89,726.185
1975.34,726.384
1976.79,734.006
1978.25,732.673
1979.7,723.521
1981.15,724.729
1982.6,730.362
1984.05,722.716
1985.5,729.111
1986.95,723.925
1988.4,714.581
1989.85,733.794
1991.3,727.856
1992.75,728.32
1994.2,731.195
1995.65,735.916
1997.1,738.266
1998.55,732.389
2000,725.731
2001.45,738.592
2002.9,730.01
2004.35,724.172
2005.8,728.481
2007.25,734.556
2008.7,738.637
2010.15,739.669
2011.6,743.683
2013.05,720.072
2014.5,714.974
2015.95,725.08
2017.4,715.939
2018.85,699.086
2020.3,724.591
2021.75,727.331
2023.21,703.39
2024.66,721.902
2026.11,713.358
2027.56,723.245
2029.01,726.845
2030.46,708.344
2031.91,710.124
2033.36,698.893
2034.81,707.006
2036.26,719.913
2037.71,711.956
2039.16,713.08
2040.61,721.476
2042.06,701.306
2043.51,687.805
2044.96,697.681
2046.41,677.534
2047.86,688.613
2049.31,697.861
2050.76,688.835
2052.21,687.407
2053.66,704.075
2055.11,708.049
2056.56,692.723
2058.01,686.616
2059.46,700.988
2060.91,702.639
2062.36,693.412
2063.81,686.012
2065.26,678.063
2066.72,680.713
2068.17,691.084
2069.62,671.762
2071.07,674.805
2072.52,694.704
2073.97,693.149
2075.42,687.154
2076.87,688.664
2078.32,685.621
2079.77,673.025
2081.22,682.668
2082.67,694.673
2084.12,691.49
2085.57,675.826
2087.02,676.867
2088.47,663.757
2089.92,662.89
2091.37,669.19
2092.82,680.768
2094.27,697.907
2095.72,688.252
2097.17,682.384
2098.62,684.789
2100.07,675.259
2101.52,667.03
2102.97,673.618
2104.42,666.965
2105.87,678.302
2107.32,682.951
2108.77,685.972
2110.22,687.357
2111.68,692.636
2113.13,684.1
2114.58,679.871
2116.03,691.463
2117.48,691.896
2118.93,680.895
2120.38,693.575
2121.83,692.746
2123.28,672.609
2124.73,684.936
2126.18,693.467
2127.63,688.536
2129.08,691.066
2130.53,696.181
2131.98,700.92
2133.43,700.446
2134.88,700.389
2136.33,696.086
2137.78,701.936
2139.23,701.695
2140.68,700.67
2142.13,693.821
2143.58,692.697
2145.03,715.695
2146.48,716.997
2147.93,708.5
2149.38,699.047
2150.83,700.536
2152.28,711.196
2153.73,711.711
2155.18,703.015
2156.64,707.162
2158.09,708.021
2159.54,705.564
2160.99,713.948
2162.44,715.129
2163.89,715.86
2165.34,709.428
2166.79,713.985
2168.24,736.33
2169.69,730.321
2171.14,720.676
2172.59,721.594
2174.04,723.065
2175.49,728.663
2176.94,730.569
2178.39,724.929
2179.84,726.013
2181.29,726.871
2182.74,731.377
2184.19,729.853
2185.64,724.425
2187.09,729.421
2188.54,735.729
2189.99,735.943
2191.44,731.437
2192.89,740.102
2194.34,739.777
2195.79,739.629
2197.24,746.278
2198.69,743.914
2200.15,733.08
2201.6,734.484
2203.05,734.918
2204.5,750.976
2205.95,746.982
2207.4,750.353
2208.85,743.738
2210.3,749.349
2211.75,756.981
2213.2,759.732
2214.65,753.057
2216.1,753.134
2217.55,758.93
2219,763.837
2220.45,743.54
2221.9,761.447
2223.35,771.139
2224.8,769.682
2226.25,756.975
2227.7,743.963
2229.15,766.869
2230.6,778.756
2232.05,778.247
2233.5,759.787
2234.95,765.411
2236.4,765.545
2237.85,768.926
2239.3,750.764
2240.75,755.89
2242.2,773.337
2243.65,784.199
2245.11,764.295
2246.56,782.476
2248.01,775.516
2249.46,773.224
2250.91,788.783
2252.36,780.805
2253.81,775.368
2255.26,784.115
2256.71,772.195
2258.16,780.279
2259.61,790.591
2261.06,785.353
2262.51,766.222
2263.96,788.339
2265.41,795.915
2266.86,784.68
2268.31,769.936
2269.76,782.142
2271.21,798.866
2272.66,790.157
2274.11,788.937
2275.56,777.364
2277.01,779.284
2278.46,802.25
2279.91,802.597
2281.36,818.002
2282.81,822.286
2284.26,795.448
2285.71,795.063
2287.16,807.358
2288.61,820.136
2290.07,808.347
2291.52,794.741
2292.97,813.298
2294.42,818.038
2295.87,821.62
2297.32,823.595
2298.77,803.276
2300.22,823.67
2301.67,852.38
2303.12,851.328
2304.57,839.121
2306.02,824.158
2307.47,829.469
2308.92,826.928
2310.37,838.378
2311.82,834.988
2313.27,846.774
2314.72,829.767
2316.17,855.371
2317.62,838.177
2319.07,847.461
2320.52,862.238
2321.97,850.344
2323.42,853.114
2324.87,878.811
2326.32,860.533
2327.77,863.736
2329.22,857.399
2330.67,881.651
2332.12,885.225
2333.57,888.19
2335.03,890.45
2336.48,868.186
2337.93,866.906
2339.38,884.941
2340.83,903.033
2342.28,896.28
2343.73,904.961
2345.18,896.264
2346.63,908.725
2348.08,922.549
2349.53,923.785
2350.98,921.476
2352.43,935.872
2353.88,930.722
2355.33,934.352
2356.78,936.966
2358.23,955.039
2359.68,945.329
2361.13,957.658
2362.58,984.249
2364.03,990.486
2365.48,971.021
2366.93,976.129
2368.38,999.751
2369.83,1001.01
2371.28,995.557
2372.73,1002.25
2374.18,1033.27
2375.63,1044.53
2377.08,1050.88
2378.54,1056.21
2379.99,1056.47
2381.44,1065.64
2382.89,1097.02
2384.34,1106.98
2385.79,1098.77
2387.24,1109.73
2388.69,1133.88
2390.14,1151.92
2391.59,1172.91
2393.04,1171.98
2394.49,1177.67
2395.94,1198.12
2397.39,1188.76
2398.84,1193.01
2400.29,1248.08
2401.74,1271.07
2403.19,1276.59
2404.64,1282.45
2406.09,1285.77
2407.54,1321.94
2408.99,1308.89
2410.44,1319.77
2411.89,1315.31
2413.34,1349.14
2414.79,1365.13
2416.24,1341.16
2417.69,1373.69
2419.14,1366.5
2420.59,1379.06
2422.04,1387.54
2423.5,1380.79
2424.95,1394.56
2426.4,1405.44
2427.85,1403.77
2429.3,1384.97
2430.75,1381.83
2432.2,1367.95
2433.65,1375.99
2435.1,1381.32
2436.55,1392.96
2438,1357.91
2439.45,1366.5
2440.9,1370.63
2442.35,1365.96
2443.8,1342.05
2445.25,1335.52
2446.7,1356.08
2448.15,1338.62
2449.6,1331.21
2451.05,1338.94
2452.5,1319.27
2453.95,1328.23
2455.4,1318.23
2456.85,1307.07
2458.3,1285.91
2459.75,1255.29
2461.2,1264.98
2462.65,1265.61
2464.1,1271.92
2465.55,1282.03
2467.01,1292.97
2468.46,1259.99
2469.91,1290.7
2471.36,1287.09
2472.81,1267.79
2474.26,1257.78
2475.71,1251.19
2477.16,1281.69
2478.61,1271.69
2480.06,1263.28
2481.51,1269.79
2482.96,1247.82
2484.41,1264.51
2485.86,1257.38
2487.31,1263.28
2488.76,1262.45
2490.21,1266.38
2491.66,1256.41
2493.11,1265.31
2494.56,1292.74
2496.01,1277.26
2497.46,1282.21
2498.91,1279.92
2500.36,1304.04
2501.81,1296.05
2503.26,1291.18
2504.71,1313.61
2506.16,1324.28
2507.61,1308.99
2509.06,1322.07
2510.51,1322.71
2511.97,1315.36
2513.42,1298.67
2514.87,1339.54
2516.32,1338.56
2517.77,1329.99
2519.22,1348.66
2520.67,1352.81
2522.12,1350.53
2523.57,1373.84
2525.02,1412.81
2526.47,1423.82
2527.92,1426.84
2529.37,1429.33
2530.82,1459.73
2532.27,1471.14
2533.72,1468.71
2535.17,1481.38
2536.62,1485.94
2538.07,1518
2539.52,1504.55
2540.97,1536.13
2542.42,1553.78
2543.87,1556.36
2545.32,1590.7
2546.77,1584.09
2548.22,1629.54
2549.67,1668.93
2551.12,1685.63
2552.57,1697.06
2554.02,1698.93
2555.48,1707.73
2556.93,1741.9
2558.38,1783.01
2559.83,1804.49
2561.28,1826.17
2562.73,1852.77
2564.18,1919.42
2565.63,1927.34
2567.08,1977.7
2568.53,1996.55
2569.98,2086.97
2571.43,2123.3
2572.88,2152.69
2574.33,2188.35
2575.78,2240.21
2577.23,2281.38
2578.68,2328.72
2580.13,2386.86
2581.58,2416.91
2583.03,2448.48
2584.48,2532.48
2585.93,2596.98
2587.38,2652.35
2588.83,2765.06
2590.28,2802.92
2591.73,2858.18
2593.18,2969.44
2594.63,3076.22
2596.08,3147.17
2597.53,3247.04
2598.98,3380.45
2600.44,3475.02
2601.89,3570.99
2603.34,3696.01
2604.79,3825.97
2606.24,3915.69
2607.69,4066.25
2609.14,4198.35
2610.59,4358.8
2612.04,4477.96
2613.49,4680.85
2614.94,4783.01
2616.39,4917.6
2617.84,5158.38
2619.29,5301.06
2620.74,5486.36
2622.19,5715.67
2623.64,5904.31
2625.09,6055.02
2626.54,6239.5
2627.99,6426.94
2629.44,6647.89
2630.89,6792.18
2632.34,6989.15
2633.79,7211.74
2635.24,7412.35
2636.69,7626.64
2638.14,7776.32
2639.59,7921.94
2641.04,8122.82
2642.49,8307.18
2643.94,8431.35
2645.4,8559.58
2646.85,8651.43
2648.3,8766.27
2649.75,8834.83
2651.2,8889.16
2652.65,8921.54
2654.1,8862.42
2655.55,8881.21
2657,8923.09
2658.45,8851.63
2659.9,8831.06
2661.35,8796.37
2662.8,8712.38
2664.25,8556.54
2665.7,8424.19
2667.15,8323.07
2668.6,8177.5
2670.05,7939.89
2671.5,7724.66
2672.95,7641.52
2674.4,7368.98
2675.85,7246.56
2677.3,7011.59
2678.75,6798.94
2680.2,6602.85
2681.65,6349.82
2683.1,6178.99
2684.55,5998.48
2686,5829.93
2687.45,5618.12
2688.91,5370.95
2690.36,5187.07
2691.81,4964.59
2693.26,4777.54
2694.71,4619.35
2696.16,4459.84
2697.61,4225.52
2699.06,4144.9
2700.51,4030.56
2701.96,3884.89
2703.41,3731.99
2704.86,3584.62
2706.31,3451.55
2707.76,3335.37
2709.21,3208.22
2710.66,3073.2
2712.11,2972.04
2713.56,2888.77
2715.01,2799.13
2716.46,2786.45
2717.91,2651.71
2719.36,2590.05
2720.81,2501.41
2722.26,2395.86
2723.71,2366.9
2725.16,2321.02
2726.61,2238.9
2728.06,2190.51
2729.51,2171.63
2730.96,2084.45
2732.41,2065.98
2733.87,2014.25
2735.32,1939.98
2736.77,1918.01
2738.22,1874.82
2739.67,1858.44
2741.12,1815.93
2742.57,1788.28
2744.02,1777.79
2745.47,1694.58
2746.92,1699.78
2748.37,1664.08
2749.82,1656.09
2751.27,1619.59
2752.72,1585.7
2754.17,1595.48
2755.62,1545.14
2757.07,1511.2
2758.52,1513.59
2759.97,1493.71
2761.42,1478.21
2762.87,1480.51
2764.32,1436.25
2765.77,1434.26
2767.22,1435.1
2768.67,1405.57
2770.12,1388.72
2771.57,1391.07
2773.02,1366.88
2774.47,1365.43
2775.92,1349.69
2777.38,1343.39
2778.83,1330.29
2780.28,1316.59
2781.73,1299.5
2783.18,1270.38
2784.63,1304.18
2786.08,1261.6
2787.53,1268.01
2788.98,1261.2
2790.43,1244.05
2791.88,1245.46
2793.33,1237.68
2794.78,1211.07
2796.23,1227.47
2797.68,1204.61
2799.13,1226
2800.58,1200.52
2802.03,1190.96
2803.48,1174.85
2804.93,1204.74
2806.38,1193.52
2807.83,1170.31
2809.28,1164.13
2810.73,1165.59
2812.18,1148.84
2813.63,1165.18
2815.08,1146.9
2816.53,1147.9
2817.98,1144.54
2819.43,1149.98
2820.88,1145.19
2822.33,1128.63
2823.79,1114.6
2825.24,1124.9
2826.69,1129.81
2828.14,1125.6
2829.59,1111.44
2831.04,1117.12
2832.49,1093.38
2833.94,1096.48
2835.39,1111.75
2836.84,1099.95
2838.29,1073.55
2839.74,1066.85
2841.19,1073.97
2842.64,1092.54
2844.09,1087.95
2845.54,1078.39
2846.99,1052.11
2848.44,1094.33
2849.89,1080.52
2851.34,1077.86
2852.79,1082.23
2854.24,1079.19
2855.69,1073.32
2857.14,1071.49
2858.59,1073.42
2860.04,1050.09
2861.49,1093.65
2862.94,1049.5
2864.39,1059.66
2865.84,1077.52
2867.3,1081.32
2868.75,1062.89
2870.2,1060.91
2871.65,1057.31
2873.1,1051.21
2874.55,1042.29
2876,1038.9
2877.45,1062.6
2878.9,1067.95
2880.35,1034.11
2881.8,1037.94
2883.25,1055.96
2884.7,1059.83
2886.15,1056.41
2887.6,1051.14
2889.05,1057.2
2890.5,1064.62
2891.95,1050.03
2893.4,1052.49
2894.85,1044.95
2896.3,1049.26
2897.75,1048.67
2899.2,1050.47
2900.65,1052.49
2902.1,1050.57
2903.55,1034.09
2905,1040.71
2906.45,1048.18
2907.9,1039.86
2909.35,1034.63
2910.8,1029.27
2912.26,1016.93
2913.71,1027.58
2915.16,1016.37
2916.61,1022.52
2918.06,1001.17
2919.51,1027
2920.96,1014.74
2922.41,1028.66
2923.86,1014.97
2925.31,1006.98
2926.76,1017.01
2928.21,1011.23
2929.66,1003.98
2931.11,995.135
2932.56,995.195
2934.01,993.418
2935.46,973.758
2936.91,972.15
2938.36,972.686
2939.81,971.158
2941.26,965.355
2942.71,960.722
2944.16,974.472
2945.61,971.414
2947.06,953.788
2948.51,953.508
2949.96,943.753
2951.41,952.275
2952.86,957.82
2954.31,953.1
2955.77,932.628
2957.22,931.373
2958.67,920.228
2960.12,938.665
2961.57,913.468
2963.02,928.972
2964.47,924.165
2965.92,927.781
2967.37,921.089
2968.82,920.884
2970.27,917.059
2971.72,916.935
2973.17,906.119
2974.62,904.492
2976.07,896.988
2977.52,892.833
2978.97,894.855
2980.42,901.64
2981.87,893.52
2983.32,894.613
2984.77,890.016
2986.22,893.968
2987.67,892.285
2989.12,905.713
2990.57,893.896
2992.02,896.749
2993.47,897.274
2994.92,898.311
2996.37,887.614
2997.82,898.437
2999.27,905.879
3000.73,884.23
3002.18,892.574
3003.63,870.189
3005.08,893.637
3006.53,896.058
3007.98,892.287
3009.43,893.676
3010.88,885.079
3012.33,875.874
3013.78,864.757
3015.23,874.932
3016.68,883.57
3018.13,892.791
3019.58,863.815
3021.03,863.286
3022.48,868.648
3023.93,878.439
3025.38,884.405
3026.83,889.545
3028.28,887.742
3029.73,893.761
3031.18,883.573
3032.63,872.91
3034.08,894.485
3035.53,872.914
3036.98,880.434
3038.43,858.806
3039.88,872.531
3041.33,909.057
3042.78,904.998
3044.23,885.206
3045.69,885.131
3047.14,878.855
3048.59,874.423
3050.04,882.449
3051.49,860.146
3052.94,881.371
3054.39,884.83
3055.84,868.89
3057.29,887.244
3058.74,892.081
3060.19,916.061
3061.64,897.658
3063.09,910.664
3064.54,902.337
3065.99,896.052
3067.44,903.235
3068.89,913.235
3070.34,912.031
3071.79,897.135
3073.24,915.298
3074.69,923.83
3076.14,931.179
3077.59,930.72
3079.04,943.05
3080.49,952.805
3081.94,951.761
3083.39,919.546
3084.84,946.139
3086.29,969.375
3087.74,946.576
3089.2,963.939
3090.65,976.503
3092.1,998.345
3093.55,986.299
3095,990.285
3096.45,990.561
3097.9,998.158
3099.35,993.49
3100.8,999.21
3102.25,1024.28
3103.7,1011.7
3105.15,1049.51
3106.6,1056.83
3108.05,1056.29
3109.5,1052.81
3110.95,1069.26
3112.4,1081.08
3113.85,1091.38
3115.3,1057.21
3116.75,1087.97
3118.2,1127.09
3119.65,1118.63
3121.1,1136.57
3122.55,1155.2
3124,1148.91
3125.45,1148.66
3126.9,1169.44
3128.35,1171.74
3129.8,1157.91
3131.25,1181.18
3132.7,1182.94
3134.16,1174.86
3135.61,1184.11
3137.06,1169.98
3138.51,1178.16
3139.96,1214.42
3141.41,1218.73
3142.86,1219.91
3144.31,1222.28
3145.76,1207.89
3147.21,1219.7
3148.66,1255.85
3150.11,1244.91
3151.56,1230.96
3153.01,1232.87
3154.46,1242.08
3155.91,1225.58
3157.36,1255.13
3158.81,1247.57
3160.26,1262.2
3161.71,1256.52
3163.16,1248.36
3164.61,1262.46
3166.06,1252.47
3167.51,1264.23
3168.96,1269.57
3170.41,1299.41
3171.86,1318.92
3173.31,1301.17
3174.76,1306.87
3176.21,1312.04
3177.67,1311.91
3179.12,1339.29
3180.57,1328.93
3182.02,1331.65
3183.47,1352.64
3184.92,1357.48
3186.37,1368.11
3187.82,1365.87
3189.27,1351.56
3190.72,1360.81
3192.17,1361.01
3193.62,1359.63
3195.07,1352.38
3196.52,1347.08
3197.97,1349.39
3199.42,1345.72
3200.87,1320.12
3202.32,1342.56
3203.77,1309.34
3205.22,1288.02
3206.67,1271.6
3208.12,1324.63
3209.57,1282.59
3211.02,1254.24
3212.47,1241.07
3213.92,1247.44
3215.37,1236.31
3216.82,1217.33
3218.27,1223.06
3219.72,1199.83
3221.17,1185.95
3222.63,1173.94
3224.08,1170.81
3225.53,1150.72
3226.98,1118.78
3228.43,1115.57
3229.88,1099.77
3231.33,1082.59
3232.78,1055.48
3234.23,1049.27
3235.68,1028.1
3237.13,989.785
3238.58,1022.1
3240.03,1022.74
3241.48,1000.2
3242.93,982.17
3244.38,972.795
3245.83,949.184
3247.28,940.521
3248.73,938.263
3250.18,950.615
3251.63,935.157
3253.08,917.761
3254.53,915.147
3255.98,893.237
3257.43,886.319
3258.88,897.642
3260.33,881.598
3261.78,900.796
3263.23,892.171
3264.68,867.73
3266.13,887.263
3267.59,905.81
3269.04,880.614
3270.49,870.002
3271.94,886.422
3273.39,862.986
3274.84,852.097
3276.29,886.204
3277.74,849.169
3279.19,854.137
3280.64,872.517
3282.09,870.38
3283.54,864.38
3284.99,847.45
3286.44,853.898
3287.89,859.533
3289.34,837.279
3290.79,852.053
3292.24,856.669
3293.69,854.749
3295.14,853.185
3296.59,851.493
3298.04,841.72
3299.49,853.482
3300.94,850.834
3302.39,870.151
3303.84,846.99
3305.29,843.873
3306.74,854.233
3308.19,848.361
3309.64,850.118
3311.09,859.042
3312.55,854.793
3314,871.243
3315.45,857.985
3316.9,850.924
3318.35,845.103
3319.8,839.591
3321.25,853.708
3322.7,842.199
3324.15,842.336
3325.6,861.597
3327.05,861.684
3328.5,840.596
3329.95,848.358
3331.4,867.211
3332.85,847.804
3334.3,847.056
3335.75,840.608
3337.2,845.555
3338.65,835.156
3340.1,853.691
3341.55,839.504
3343,840.766
3344.45,838.105
3345.9,843.272
3347.35,803.502
3348.8,845.51
3350.25,850.417
3351.7,859.139
3353.15,858.797
3354.6,849.644
3356.06,843.987
3357.51,859.57
3358.96,823.621
3360.41,831.738
3361.86,836.713
3363.31,848.873
3364.76,826.104
3366.21,839.949
3367.66,861.284
3369.11,857.519
3370.56,852.541
3372.01,854.862
3373.46,831.341
3374.91,861.174
3376.36,864.157
3377.81,852.817
3379.26,836.947
3380.71,864.723
3382.16,871.721
3383.61,858.629
3385.06,851.813
3386.51,842.857
3387.96,854.184
3389.41,874.401
3390.86,872.333
3392.31,843.602
3393.76,852.493
3395.21,860.539
3396.66,833.003
3398.11,860.181
3399.56,856.754
3401.02,857.661
3402.47,856.791
3403.92,846.45
3405.37,860.006
3406.82,839.518
3408.27,869.865
3409.72,854.318
3411.17,857.818
3412.62,841.86
3414.07,866.413
3415.52,841.07
3416.97,863.179
3418.42,861.96
3419.87,854.607
3421.32,850.349
3422.77,849.611
3424.22,859.691
3425.67,876.968
3427.12,886.492
3428.57,860.574
3430.02,864.719
3431.47,859.255
3432.92,843.384
3434.37,856.225
3435.82,868.105
3437.27,869.601
3438.72,874.313
3440.17,855.328
3441.62,860.147
3443.07,864.054
3444.52,873.444
3445.98,862.519
3447.43,837.925
3448.88,846.842
3450.33,852.7
3451.78,860.019
3453.23,875.836
3454.68,857.824
3456.13,862.807
3457.58,884.533
3459.03,862.64
3460.48,857.613
3461.93,859.564
3463.38,852.167
3464.83,869.494
3466.28,868.972
3467.73,848.553
3469.18,876.127
3470.63,867.823
3472.08,864.045
3473.53,859.193
3474.98,866.687
3476.43,841.474
3477.88,881.765
3479.33,871.195
3480.78,868.537
3482.23,877.916
3483.68,872.923
3485.13,864.358
3486.58,870.589
3488.03,858.887
3489.49,858.701
3490.94,860.21
3492.39,861.58
3493.84,874.534
3495.29,859.482
3496.74,870.662
3498.19,858.5
3499.64,889.073
3501.09,859.068
3502.54,887.805
3503.99,876.894
3505.44,862
3506.89,882.686
3508.34,880.05
3509.79,894.251
3511.24,889.468
3512.69,888.178
3514.14,876.882
3515.59,885.472
3517.04,913.217
3518.49,891.461
3519.94,876.778
3521.39,859.563
3522.84,899.066
3524.29,879.724
3525.74,869.454
3527.19,891.511
3528.64,881.988
3530.09,887.81
3531.54,867.88
3532.99,870.381
3534.45,880.25
3535.9,901.13
3537.35,878.403
3538.8,878.741
3540.25,863.413
3541.7,866.631
3543.15,871.506
3544.6,878.26
3546.05,903.219
3547.5,893.482
3548.95,900.785
3550.4,895.952
3551.85,895.956
3553.3,867.558
3554.75,874.242
3556.2,875.384
3557.65,891.946
3559.1,883.531
3560.55,878.885
3562,867.905
3563.45,898.394
3564.9,895.982
3566.35,879.362
3567.8,900.157
3569.25,884.366
3570.7,894.473
3572.15,896.684
3573.6,900.332
3575.05,895.094
3576.5,869.803
3577.96,867.145
3579.41,889.16
3580.86,882.063
3582.31,894.098
3583.76,901.254
3585.21,899.152
3586.66,891.751
3588.11,905.516
3589.56,887.228
3591.01,902.322
3592.46,912.687
3593.91,888.526
3595.36,891.611
3596.81,904.967
3598.26,900.167
3599.71,884.002
3601.16,896.44
3602.61,906.688
3604.06,895.445
3605.51,893.518
3606.96,891.966
3608.41,905.725
3609.86,897.912
3611.31,908.666
3612.76,888.433
3614.21,887.335
3615.66,923.261
3617.11,895.385
3618.56,905.66
3620.01,898.222
3621.46,908.756
3622.92,907.496
3624.37,908.108
3625.82,908.347
3627.27,911.601
3628.72,884.658
3630.17,898.183
3631.62,910.739
3633.07,891.241
3634.52,908.752
3635.97,910.708
3637.42,908.57
3638.87,916.049
3640.32,891.165
3641.77,927.418
3643.22,929.214
3644.67,914.897
3646.12,915.461
3647.57,918.256
3649.02,913.774
3650.47,924.468
3651.92,916.94
3653.37,925.784
3654.82,920.872
3656.27,916.207
3657.72,912.341
3659.17,925.884
3660.62,933.169
3662.07,924.447
3663.52,921.984
3664.97,926.262
3666.43,920.589
3667.88,937.493
3669.33,909.77
3670.78,914.134
3672.23,924.623
3673.68,933.653
3675.13,933.78
3676.58,937.413
3678.03,923.167
3679.48,937.567
3680.93,944.202
3682.38,923.782
3683.83,922.685
3685.28,921.055
3686.73,942.648
3688.18,935.008
3689.63,937.161
3691.08,928.48
3692.53,943.033
3693.98,932.712
3695.43,941.986
3696.88,932.325
3698.33,921.721
3699.78,921.81
3701.23,933.253
3702.68,937.123
3704.13,954.024
3705.58,936.94
3707.03,953.849
3708.48,935.837
3709.93,931.545
3711.39,942.199
3712.84,918.324
3714.29,948.688
3715.74,939.633
3717.19,941.829
3718.64,947.98
3720.09,941.13
3721.54,940.701
3722.99,940.679
3724.44,945.629
3725.89,935.059
3727.34,923.811
3728.79,927.074
3730.24,923.209
3731.69,951.327
3733.14,947.861
3734.59,950.687
3736.04,938.667
3737.49,941.923
3738.94,953.44
3740.39,970.014
3741.84,937.809
3743.29,965.723
3744.74,974.251
3746.19,947.468
3747.64,958.832
3749.09,967.83
3750.54,943.333
3751.99,947.783
3753.44,953.791
3754.89,956.018
3756.35,965.547
3757.8,960.86
3759.25,960.263
3760.7,961.049
3762.15,957.707
3763.6,946.643
3765.05,964.03
3766.5,963.445
3767.95,969.016
3769.4,965.665
3770.85,962.415
3772.3,953.721
3773.75,955.371
3775.2,962.507
3776.65,959.387
3778.1,974.054
3779.55,960.277
3781,975.548
3782.45,987.239
3783.9,969.723
3785.35,955.102
3786.8,991.64
3788.25,954.764
3789.7,973.532
3791.15,958.057
3792.6,987.596
3794.05,967.927
3795.5,955.334
3796.95,963.108
3798.4,952.758
3799.85,974.744
3801.31,975.273
3802.76,955.635
3804.21,998.551
3805.66,994.731
3807.11,995.495
3808.56,985.988
3810.01,994.486
3811.46,1001.4
3812.91,999.242
3814.36,984.433
3815.81,985.202
3817.26,989.737
3818.71,989.018
3820.16,999.087
3821.61,1001.52
3823.06,982.995
3824.51,976.919
3825.96,996.238
3827.41,997.109
3828.86,995.418
3830.31,1005.22
3831.76,995.699
3833.21,1001.83
3834.66,1016.8
3836.11,1014.49
3837.56,1008.26
3839.01,1001.42
3840.46,1001.83
3841.91,993.042
3843.36,991.341
3844.82,963.341
3846.27,998.136
3847.72,1011.03
3849.17,1008.75
3850.62,1026
3852.07,1013.75
3853.52,1008.25
3854.97,1009.74
3856.42,1008.45
3857.87,1008.27
3859.32,1018.49
3860.77,1013.87
3862.22,1012.1
3863.67,1024.02
3865.12,1021.94
3866.57,1012.23
3868.02,1012.53
3869.47,1034.77
3870.92,1011.82
3872.37,1006.64
3873.82,1022.66
3875.27,1043.28
3876.72,1054.33
3878.17,1049.55
3879.62,1022.42
3881.07,1028.67
3882.52,1027.9
3883.97,1030.7
3885.42,1042.24
3886.87,1041.37
3888.32,1050.15
3889.78,1034.84
3891.23,1043.93
3892.68,1038.99
3894.13,1036.68
3895.58,1045.11
3897.03,1058.15
3898.48,1060.35
3899.93,1068.31
3901.38,1062.83
3902.83,1041.51
3904.28,1065.02
3905.73,1067.57
3907.18,1068.71
3908.63,1049.77
3910.08,1062.82
3911.53,1058.86
3912.98,1076.16
3914.43,1067.19
3915.88,1068.9
3917.33,1057.32
3918.78,1049.34
3920.23,1070.44
3921.68,1077.18
3923.13,1091.63
3924.58,1072.89
3926.03,1082.06
3927.48,1077.68
3928.93,1115.33
3930.38,1076.69
3931.83,1081.95
3933.28,1086.65
3934.74,1092
3936.19,1111.05
3937.64,1098.76
3939.09,1081.82
3940.54,1111.76
3941.99,1099.63
3943.44,1091.72
3944.89,1096.79
3946.34,1108.02
3947.79,1119.9
3949.24,1111.73
3950.69,1115.4
3952.14,1122
3953.59,1128.01
3955.04,1131.67
3956.49,1098.8
3957.94,1136.33
3959.39,1110.73
3960.84,1107.91
3962.29,1116.84
3963.74,1111.22
3965.19,1102.16
3966.64,1144.36
3968.09,1118.15
3969.54,1139.3
3970.99,1112.86
3972.44,1134.82
3973.89,1130.97
3975.34,1156.08
3976.79,1150.17
3978.25,1157.65
3979.7,1154.82
3981.15,1142.92
3982.6,1149.66
3984.05,1160.32
3985.5,1165.47
3986.95,1180.8
3988.4,1161.15
3989.85,1166.27
3991.3,1161.63
3992.75,1169.13
3994.2,1183.24
3995.65,1158.39
3997.1,1216.5
3998.55,1166.52
4000,1169.02
