-20,226.575
-18.5482,232.449
-17.0964,227.755
-15.6446,222.917
-14.1928,230.205
-12.7411,236.172
-11.2893,238.969
-9.83749,241.489
-8.3857,251.383
-6.93391,268.359
-5.48212,418.949
-4.03034,262.998
-2.57855,262.998
-1.12676,262.998
0.325027,262.998
1.77681,262.998
3.2286,262.998
4.68039,262.998
6.13218,262.998
7.58397,262.998
9.03575,289.776
10.4875,277.677
11.9393,279.373
13.3911,283.468
14.8429,282.447
16.2947,278.121
17.7465,273.238
19.1983,261.452
20.6501,252.574
22.1018,246.447
23.5536,241.549
25.0054,236.588
26.4572,233.109
27.909,230.31
29.3608,228.404
30.8126,225.35
32.2644,224.958
33.7161,222.672
35.1679,221.732
36.6197,222.655
38.0715,225.764
39.5233,225.835
40.9751,226.925
42.4269,229.778
43.8787,232.578
45.3304,239.289
46.7822,245.861
48.234,265.245
49.6858,308.121
51.1376,380.017
52.5894,495.853
54.0412,671.002
55.493,910.509
56.9447,1199.89
58.3965,1506.96
59.8483,1810.36
61.3001,2019.42
62.7519,2179.43
64.2037,2325.18
65.6555,2395.88
67.1073,2466.78
68.559,2506.68
70.0108,2537.65
71.4626,2609.35
72.9144,2656.41
74.3662,2686.51
75.818,2716.66
77.2698,2766.15
78.7216,2867.38
80.1733,2942.37
81.6251,3010.96
83.0769,3046.68
84.5287,3063.9
85.9805,3082.46
87.4323,3030.99
88.8841,2948.22
90.3359,2869.92
91.7877,2770.69
93.2394,2668.77
94.6912,2538.8
96.143,2445.94
97.5948,2366.14
99.0466,2244.12
100.498,2201.47
101.95,2115.34
103.402,2049.99
104.854,2008.42
106.306,1988.35
107.757,1968.11
109.209,1955.64
110.661,1931.31
112.113,1894.31
113.564,1877.41
115.016,1863.6
116.468,1832.2
117.92,1803.87
119.372,1785.03
120.823,1757.36
122.275,1706.16
123.727,1663.37
125.179,1625.16
126.631,1609.62
128.082,1610.47
129.534,1555.53
130.986,1530.37
132.438,1518.32
133.889,1487.64
135.341,1466.1
136.793,1455.94
138.245,1431.58
139.697,1411.41
141.148,1383.46
142.6,1378.06
144.052,1350.33
145.504,1324.17
146.956,1310.48
148.407,1304.01
149.859,1305.17
151.311,1275.48
152.763,1251.58
154.215,1249.95
155.666,1250.32
157.118,1228.2
158.57,1262.48
160.022,1271.85
161.473,1265.09
162.925,1272.01
164.377,1314.62
165.829,1329.64
167.281,1339.96
168.732,1354.48
170.184,1335.22
171.636,1284.63
173.088,1245.86
174.54,1209.13
175.991,1164.25
177.443,1151.69
178.895,1141.03
180.347,1143.59
181.798,1129.74
183.25,1113.81
184.702,1105.68
186.154,1104.32
187.606,1095.48
189.057,1085.38
190.509,1076.49
191.961,1065.94
193.413,1093.33
194.865,1087.02
196.316,1075.31
197.768,1062.73
199.22,1076.5
200.672,1062.23
202.124,1064.03
203.575,1067.69
205.027,1047.48
206.479,1053.36
207.931,1057.49
209.382,1067.81
210.834,1063.7
212.286,1044.22
213.738,1040.62
215.19,1059.55
216.641,1059.13
218.093,1059.41
219.545,1055.86
220.997,1037.21
222.449,1032.89
223.9,1027.43
225.352,1037.24
226.804,1043.29
228.256,1029.67
229.707,1024.85
231.159,1034.22
232.611,1041.89
234.063,1044.52
235.515,1060.55
236.966,1032.4
238.418,1034.8
239.87,1045.94
241.322,1039.76
242.774,1023.82
244.225,1017.89
245.677,1022.94
247.129,1022.41
248.581,1019.21
250.033,995.716
251.484,1013.85
252.936,1007.25
254.388,996.295
255.84,994.455
257.291,1020.5
258.743,1018.3
260.195,992.63
261.647,997.22
263.099,998.911
264.55,966.935
266.002,959.772
267.454,974.578
268.906,980.5
270.358,974.36
271.809,976.24
273.261,979.877
274.713,963.631
276.165,968.798
277.616,963.759
279.068,938.438
280.52,934.163
281.972,954.415
283.424,943.62
284.875,934.351
286.327,929.686
287.779,938.32
289.231,940.422
290.683,927.279
292.134,912.616
293.586,905.408
295.038,919.263
296.49,907.383
297.941,891.444
299.393,906.222
300.845,905.331
302.297,868.665
303.749,869.632
305.2,870.708
306.652,873.3
308.104,870.888
309.556,865.26
311.008,859.157
312.459,862.452
313.911,849.931
315.363,856.164
316.815,871.244
318.267,835.221
319.718,829.323
321.17,832.772
322.622,833.541
324.074,837.533
325.525,833.227
326.977,834.958
328.429,828.011
329.881,835.602
331.333,840.475
332.784,825.77
334.236,831.763
335.688,811.425
337.14,820.279
338.592,817.658
340.043,796.977
341.495,805.922
342.947,837.756
344.399,816.144
345.85,803.252
347.302,813.634
348.754,827.101
350.206,824.063
351.658,822.729
353.109,810.782
354.561,803.647
356.013,804.485
357.465,789.815
358.917,798.972
360.368,809.221
361.82,806.069
363.272,794.343
364.724,788.132
366.176,793.196
367.627,800.271
369.079,798.174
370.531,796.571
371.983,811.72
373.434,796.876
374.886,796.678
376.338,791.113
377.79,787.963
379.242,794.379
380.693,801.133
382.145,784.347
383.597,773.21
385.049,764.638
386.501,769.402
387.952,778.848
389.404,783.52
390.856,781.635
392.308,781.698
393.759,784.902
395.211,784.92
396.663,788.302
398.115,773.09
399.567,785.672
401.018,790.837
402.47,783.938
403.922,778.95
405.374,795.134
406.826,780.482
408.277,789.919
409.729,793.137
411.181,778.798
412.633,786.089
414.085,787.861
415.536,774.133
416.988,765.578
418.44,771.788
419.892,787.988
421.343,787.253
422.795,784.915
424.247,774.777
425.699,763.833
427.151,762.276
428.602,786.568
430.054,786.772
431.506,786.911
432.958,776.397
434.41,772.134
435.861,789.084
437.313,770.486
438.765,780.576
440.217,783.629
441.668,774.429
443.12,767.173
444.572,788.249
446.024,783.844
447.476,777.655
448.927,775.128
450.379,769.408
451.831,767.616
453.283,751.63
454.735,756.544
456.186,757.575
457.638,762.397
459.09,769.633
460.542,763.752
461.993,724.087
463.445,753.499
464.897,761.976
466.349,761.555
467.801,762.086
469.252,750.72
470.704,770.358
472.156,766.094
473.608,766.124
475.06,765.879
476.511,762.545
477.963,757.479
479.415,760.155
480.867,770.085
482.319,759.139
483.77,748.784
485.222,760.316
486.674,777.135
488.126,754.95
489.577,759.872
491.029,770.208
492.481,768.775
493.933,754.771
495.385,744.77
496.836,760.475
498.288,762.193
499.74,760.098
501.192,759.358
502.644,744.631
504.095,746.768
505.547,745.517
506.999,751.308
508.451,757.457
509.902,760.043
511.354,753.129
512.806,741.532
514.258,744.523
515.71,763.453
517.161,772.383
518.613,759.376
520.065,733.988
521.517,738.558
522.969,742.266
524.42,742.869
525.872,741.366
527.324,742.911
528.776,752.944
530.228,753.46
531.679,763.717
533.131,762.863
534.583,752.802
536.035,752.848
537.486,736.026
538.938,717.362
540.39,732.811
541.842,744.828
543.294,743.557
544.745,747.657
546.197,751.599
547.649,749.664
549.101,745.948
550.553,746.281
552.004,746.782
553.456,752.128
554.908,750.07
556.36,750.185
557.811,749.605
559.263,759.545
560.715,754.406
562.167,738.12
563.619,751.268
565.07,746.308
566.522,743.608
567.974,733.844
569.426,730.987
570.878,749.271
572.329,727.519
573.781,753.899
575.233,760.577
576.685,753.468
578.137,745.702
579.588,745.599
581.04,739.76
582.492,736.844
583.944,746.063
585.395,747.596
586.847,739.805
588.299,733.678
589.751,738.636
591.203,759.121
592.654,741.7
594.106,730.49
595.558,740.534
597.01,737.134
598.462,738.01
599.913,736.443
601.365,753.181
602.817,755.923
604.269,748.384
605.72,755.734
607.172,754.442
608.624,731.44
610.076,741.976
611.528,745.044
612.979,743.056
614.431,741.89
615.883,750.195
617.335,749.504
618.787,755.691
620.238,756.53
621.69,744.43
623.142,741.438
624.594,757.838
626.046,741.328
627.497,742.21
628.949,750.879
630.401,748.884
631.853,735.488
633.304,745.118
634.756,759.45
636.208,746.014
637.66,760.667
639.112,769.934
640.563,761.352
642.015,763.319
643.467,771.882
644.919,756.778
646.371,752.625
647.822,755.105
649.274,762.15
650.726,765.437
652.178,791.583
653.629,774.458
655.081,779.759
656.533,775.043
657.985,767.771
659.437,766.501
660.888,783.126
662.34,771.931
663.792,772.335
665.244,768.496
666.696,765.038
668.147,770.843
669.599,773.327
671.051,768.285
672.503,768.739
673.954,775.474
675.406,776.028
676.858,774.727
678.31,777.732
679.762,773.781
681.213,784.823
682.665,783.708
684.117,783.36
685.569,776.954
687.021,767.577
688.472,779.895
689.924,767.44
691.376,771.969
692.828,762.99
694.28,762.666
695.731,774.565
697.183,768.262
698.635,762.271
700.087,773.753
701.538,781.75
702.99,778.744
704.442,783.163
705.894,790.149
707.346,779.098
708.797,794.804
710.249,780.565
711.701,794.672
713.153,803.375
714.605,799.282
716.056,793.61
717.508,779.311
718.96,788.181
720.412,776.805
721.863,784.385
723.315,795.016
724.767,797.649
726.219,792.398
727.671,780.369
729.122,785.586
730.574,790.99
732.026,785.286
733.478,777.276
734.93,781.694
736.381,784.762
737.833,790.232
739.285,796.291
740.737,792.864
742.189,796.405
743.64,804.152
745.092,796.45
746.544,771.322
747.996,782.4
749.447,805.559
750.899,798.793
752.351,783.297
753.803,778.728
755.255,780.867
756.706,783.991
758.158,774.365
759.61,782.427
761.062,791.62
762.514,789.924
763.965,790.213
765.417,805.282
766.869,795.317
768.321,774.704
769.772,790.213
771.224,789.399
772.676,785.799
774.128,812.65
775.58,786.653
777.031,796.399
778.483,785.01
779.935,800.217
781.387,809.062
782.839,803.454
784.29,816.982
785.742,818.055
787.194,793.44
788.646,798.898
790.098,806.653
791.549,797.253
793.001,801.709
794.453,800.856
795.905,808.571
797.356,801.878
798.808,800.666
800.26,799.687
801.712,803.398
803.164,814.908
804.615,827.639
806.067,800.137
807.519,809.607
808.971,814.556
810.423,812.789
811.874,812.689
813.326,820.149
814.778,797.183
816.23,818.088
817.681,810.802
819.133,825.161
820.585,842.231
822.037,833.568
823.489,821.691
824.94,820.064
826.392,820.974
827.844,831.079
829.296,837.236
830.748,821.753
832.199,809.777
833.651,810.761
835.103,846.635
836.555,835.873
838.007,840.756
839.458,854.931
840.91,853.343
842.362,836.447
843.814,831.468
845.265,827.488
846.717,830.731
848.169,840.68
849.621,871.36
851.073,860.435
852.524,850.411
853.976,865.05
855.428,861.664
856.88,868.842
858.332,869.285
859.783,868.079
861.235,856.636
862.687,869.959
864.139,875.471
865.59,873.24
867.042,878.037
868.494,847.34
869.946,841.989
871.398,843.776
872.849,858.966
874.301,860.87
875.753,856.785
877.205,856.095
878.657,860.865
880.108,847.081
881.56,850.416
883.012,849.639
884.464,851.615
885.915,847.783
887.367,842.525
888.819,851.403
890.271,846.207
891.723,851.955
893.174,869.039
894.626,877.174
896.078,883.076
897.53,878.545
898.982,867.69
900.433,861.87
901.885,854.113
903.337,870.965
904.789,880.821
906.241,882.559
907.692,885.341
909.144,878.533
910.596,883.302
912.048,875.738
913.499,891.149
914.951,885.821
916.403,879.696
917.855,867.512
919.307,852.997
920.758,870.971
922.21,896.076
923.662,887.982
925.114,891.6
926.566,889.234
928.017,889.402
929.469,906.203
930.921,898.395
932.373,892.642
933.824,860.8
935.276,892.363
936.728,907.108
938.18,898.818
939.632,904.214
941.083,903.864
942.535,890.229
943.987,895.579
945.439,912.176
946.891,899.644
948.342,890.861
949.794,894.04
951.246,895.687
952.698,902.365
954.15,919.028
955.601,896.075
957.053,886.146
958.505,894.336
959.957,898.463
961.408,890.617
962.86,887.225
964.312,917.423
965.764,919.068
967.216,909.513
968.667,895.154
970.119,910.447
971.571,904.854
973.023,905.668
974.475,913.736
975.926,900.288
977.378,907.718
978.83,906.101
980.282,912.058
981.733,911.559
983.185,920.612
984.637,918.588
986.089,912.018
987.541,910.536
988.992,928.322
990.444,919.954
991.896,937.748
993.348,919.156
994.8,926.757
996.251,937.095
997.703,922.85
999.155,946.479
1000.61,927.602
1002.06,934.423
1003.51,940.335
1004.96,936.857
1006.41,929.34
1007.87,937.226
1009.32,949.446
1010.77,952.467
1012.22,960.241
1013.67,958.9
1015.12,949.926
1016.58,957.627
1018.03,949.189
1019.48,950.977
1020.93,971.502
1022.38,983.585
1023.84,992.911
1025.29,999.487
1026.74,990.136
1028.19,993.207
1029.64,1006.26
1031.09,1009.2
1032.55,995.922
1034,1007.46
1035.45,1018.56
1036.9,1025.02
1038.35,1040.3
1039.8,1040.56
1041.26,1044.64
1042.71,1064.91
1044.16,1072.33
1045.61,1041.79
1047.06,1046.36
1048.52,1062.12
1049.97,1073.9
1051.42,1080.99
1052.87,1093.42
1054.32,1087.54
1055.77,1091.67
1057.23,1113.05
1058.68,1124.02
1060.13,1139.12
1061.58,1127.91
1063.03,1136.34
1064.49,1155.1
1065.94,1163.61
1067.39,1144.19
1068.84,1139.72
1070.29,1179.32
1071.74,1186.37
1073.2,1189.14
1074.65,1201.83
1076.1,1213.42
1077.55,1222.23
1079,1211.42
1080.46,1205.62
1081.91,1214.63
1083.36,1207.51
1084.81,1252.24
1086.26,1256.95
1087.71,1266.3
1089.17,1252.46
1090.62,1212.74
1092.07,1234.24
1093.52,1258.85
1094.97,1235.83
1096.42,1225.47
1097.88,1243.17
1099.33,1216.49
1100.78,1213.59
1102.23,1219.84
1103.68,1219.68
1105.14,1203.29
1106.59,1200.95
1108.04,1206.5
1109.49,1197.12
1110.94,1200.66
1112.39,1174.82
1113.85,1183.78
1115.3,1179.83
1116.75,1178.01
1118.2,1177.26
1119.65,1165.21
1121.11,1161.54
1122.56,1152.09
1124.01,1161.6
1125.46,1162.03
1126.91,1146.65
1128.36,1149.6
1129.82,1147.09
1131.27,1133.69
1132.72,1136.33
1134.17,1117.88
1135.62,1132.46
1137.07,1116.81
1138.53,1111.36
1139.98,1130.52
1141.43,1131.28
1142.88,1107.76
1144.33,1112.81
1145.79,1127.61
1147.24,1142.34
1148.69,1119.72
1150.14,1108.94
1151.59,1123.44
1153.04,1098.92
1154.5,1100.63
1155.95,1110.91
1157.4,1120.37
1158.85,1119.75
1160.3,1116.38
1161.76,1115.71
1163.21,1109.22
1164.66,1107.47
1166.11,1096.97
1167.56,1112.91
1169.01,1117.36
1170.47,1125.85
1171.92,1131.16
1173.37,1121.77
1174.82,1144.44
1176.27,1127.55
1177.72,1127.45
1179.18,1160.38
1180.63,1132.25
1182.08,1130.33
1183.53,1145.47
1184.98,1141.81
1186.44,1138.9
1187.89,1133.41
1189.34,1136.12
1190.79,1139.33
1192.24,1124.27
1193.69,1150.56
1195.15,1162.62
1196.6,1154.91
1198.05,1141.65
1199.5,1148.06
1200.95,1167.74
1202.41,1169.03
1203.86,1162.65
1205.31,1159.54
1206.76,1190.61
1208.21,1184.09
1209.66,1170.14
1211.12,1157.11
1212.57,1170.82
1214.02,1169.71
1215.47,1151.15
1216.92,1168.9
1218.37,1178.98
1219.83,1180.53
1221.28,1185.3
1222.73,1185.17
1224.18,1181.12
1225.63,1194.37
1227.09,1199.01
1228.54,1183.98
1229.99,1171.15
1231.44,1187.86
1232.89,1171.43
1234.34,1202.75
1235.8,1199.68
1237.25,1192.52
1238.7,1175.8
1240.15,1198.11
1241.6,1226.55
1243.06,1217.34
1244.51,1215.5
1245.96,1223.71
1247.41,1261.8
1248.86,1243.77
1250.31,1224.3
1251.77,1250.18
1253.22,1264.15
1254.67,1264.93
1256.12,1258.69
1257.57,1262.7
1259.02,1281.97
1260.48,1293.4
1261.93,1327.35
1263.38,1308.98
1264.83,1328.53
1266.28,1331.59
1267.74,1354.98
1269.19,1364.87
1270.64,1370.54
1272.09,1400.51
1273.54,1437.2
1274.99,1440.65
1276.45,1436.47
1277.9,1423.62
1279.35,1458.92
1280.8,1501.62
1282.25,1508.43
1283.71,1521.45
1285.16,1524.41
1286.61,1535.32
1288.06,1575.85
1289.51,1604.75
1290.96,1607.4
1292.42,1650.45
1293.87,1709.06
1295.32,1722.88
1296.77,1780.21
1298.22,1830.06
1299.67,1863.5
1301.13,1888.53
1302.58,1941.79
1304.03,2009.49
1305.48,2046.8
1306.93,2102.05
1308.39,2182.47
1309.84,2256.56
1311.29,2330.75
1312.74,2425.17
1314.19,2549.53
1315.64,2654.24
1317.1,2747.72
1318.55,2842.31
1320,2934.43
1321.45,3050.64
1322.9,3204.41
1324.36,3278.92
1325.81,3399.62
1327.26,3501.63
1328.71,3607.19
1330.16,3689.3
1331.61,3751.35
1333.07,3803.14
1334.52,3875
1335.97,3914.66
1337.42,3855.91
1338.87,3859.22
1340.33,3796.83
1341.78,3731.11
1343.23,3673.67
1344.68,3573.1
1346.13,3500.15
1347.58,3401.64
1349.04,3255.9
1350.49,3120.32
1351.94,2998.07
1353.39,2850.3
1354.84,2735.83
1356.29,2677.92
1357.75,2565.56
1359.2,2466.57
1360.65,2399.97
1362.1,2284.19
1363.55,2187.75
1365.01,2123.28
1366.46,2063.16
1367.91,2006.65
1369.36,1966.63
1370.81,1926.08
1372.26,1886.4
1373.72,1851.46
1375.17,1821.3
1376.62,1750.89
1378.07,1735.62
1379.52,1703.54
1380.98,1687.98
1382.43,1680.84
1383.88,1652.49
1385.33,1614.46
1386.78,1614.72
1388.23,1618.58
1389.69,1582.37
1391.14,1572.84
1392.59,1611.96
1394.04,1617.67
1395.49,1565.13
1396.94,1562.63
1398.4,1540.31
1399.85,1542.74
1401.3,1550.03
1402.75,1534.38
1404.2,1528.28
1405.66,1525.3
1407.11,1544.82
1408.56,1562.49
1410.01,1548.01
1411.46,1554.43
1412.91,1520.73
1414.37,1543.19
1415.82,1546.62
1417.27,1535.89
1418.72,1527.04
1420.17,1529.2
1421.63,1544.11
1423.08,1535.46
1424.53,1553.44
1425.98,1530.45
1427.43,1540.73
1428.88,1537.84
1430.34,1576.17
1431.79,1584.27
1433.24,1579.49
1434.69,1589.34
1436.14,1601.63
1437.59,1622.26
1439.05,1614.81
1440.5,1615.74
1441.95,1642.91
1443.4,1658.94
1444.85,1658
1446.31,1625.25
1447.76,1651.51
1449.21,1668.38
1450.66,1687.49
1452.11,1682.06
1453.56,1679.83
1455.02,1694.9
1456.47,1721.12
1457.92,1739.84
1459.37,1761.65
1460.82,1754.38
1462.28,1762.28
1463.73,1832.17
1465.18,1848.13
1466.63,1856.93
1468.08,1850.57
1469.53,1860.64
1470.99,1872.3
1472.44,1887.13
1473.89,1930.59
1475.34,1968.01
1476.79,1976.15
1478.24,2006.01
1479.7,2006.47
1481.15,2076.97
1482.6,2073.63
1484.05,2115.12
1485.5,2140.98
1486.96,2148.88
1488.41,2183.96
1489.86,2230.72
1491.31,2251.42
1492.76,2296.61
1494.21,2341.72
1495.67,2388.98
1497.12,2417.53
1498.57,2473.94
1500.02,2507.95
1501.47,2588.83
1502.93,2605.62
1504.38,2682.29
1505.83,2761.16
1507.28,2862.16
1508.73,2939.18
1510.18,3026.07
1511.64,3113.36
1513.09,3215.68
1514.54,3345.89
1515.99,3465.3
1517.44,3586.36
1518.89,3677.03
1520.35,3825.14
1521.8,3971.16
1523.25,4191.99
1524.7,4387.47
1526.15,4686.79
1527.61,4899.65
1529.06,5234.2
1530.51,5584.33
1531.96,5980.85
1533.41,6438.14
1534.86,6875.61
1536.32,7405.04
1537.77,8067.74
1539.22,8795.13
1540.67,9621.87
1542.12,10473.9
1543.58,11425.1
1545.03,12445.7
1546.48,13561.4
1547.93,14787.3
1549.38,16078.1
1550.83,17440.8
1552.29,18909.1
1553.74,20375.4
1555.19,21771
1556.64,23194.6
1558.09,24680.2
1559.54,25987.8
1561,27326.8
1562.45,28419.7
1563.9,29218.3
1565.35,29683
1566.8,29941.1
1568.26,29701
1569.71,29207.8
1571.16,28552.8
1572.61,27527.7
1574.06,26199.9
1575.51,24614.1
1576.97,23011.6
1578.42,21383.6
1579.87,19783.3
1581.32,18197.8
1582.77,16655.9
1584.23,15259
1585.68,13809.6
1587.13,12570
1588.58,11554.1
1590.03,10551.5
1591.48,9653.32
1592.94,8965.93
1594.39,8384.25
1595.84,7781.34
1597.29,7304.94
1598.74,6841.14
1600.2,6436.64
1601.65,6151.43
1603.1,5864.1
1604.55,5557.57
1606,5324.83
1607.45,5080.3
1608.91,4831.77
1610.36,4599.19
1611.81,4345.4
1613.26,4236.92
1614.71,4031.15
1616.16,3867.31
1617.62,3669.19
1619.07,3513.13
1620.52,3394.81
1621.97,3244.96
1623.42,3101.4
1624.88,3018.61
1626.33,2924.46
1627.78,2814.83
1629.23,2685.42
1630.68,2604.79
1632.13,2560.95
1633.59,2509.55
1635.04,2430.68
1636.49,2373.51
1637.94,2324.02
1639.39,2278.74
1640.85,2240.01
1642.3,2232.66
1643.75,2175.45
1645.2,2114.88
1646.65,2090.78
1648.1,2056.25
1649.56,1997.22
1651.01,1969.04
1652.46,1950.76
1653.91,1910.36
1655.36,1880.33
1656.81,1867.64
1658.27,1855.68
1659.72,1846.05
1661.17,1817.7
1662.62,1769.48
1664.07,1759.28
1665.53,1729.21
1666.98,1730.6
1668.43,1729.11
1669.88,1681.99
1671.33,1661.2
1672.78,1647.04
1674.24,1628.18
1675.69,1619.83
1677.14,1593.23
1678.59,1590.34
1680.04,1586.53
1681.5,1579.46
1682.95,1554.33
1684.4,1542.64
1685.85,1519.88
1687.3,1530.1
1688.75,1500.61
1690.21,1499.46
1691.66,1477.98
1693.11,1477.56
1694.56,1461.06
1696.01,1450.15
1697.46,1454.19
1698.92,1448.43
1700.37,1450.97
1701.82,1451.05
1703.27,1437.25
1704.72,1429.07
1706.18,1429.21
1707.63,1432.97
1709.08,1422.17
1710.53,1405.94
1711.98,1413.24
1713.43,1419.62
1714.89,1410.92
1716.34,1387.5
1717.79,1373.06
1719.24,1361.89
1720.69,1379.62
1722.15,1377.67
1723.6,1393.17
1725.05,1372.07
1726.5,1365.5
1727.95,1364.78
1729.4,1363.49
1730.86,1386.56
1732.31,1380.22
1733.76,1368.79
1735.21,1363.14
1736.66,1362.47
1738.11,1354.39
1739.57,1359.8
1741.02,1341.32
1742.47,1344.92
1743.92,1350.66
1745.37,1340.25
1746.83,1343.18
1748.28,1334.64
1749.73,1321.81
1751.18,1347.59
1752.63,1315.69
1754.08,1282.73
1755.54,1305.01
1756.99,1324.64
1758.44,1310.44
1759.89,1276.42
1761.34,1290.55
1762.8,1304.74
1764.25,1295.21
1765.7,1286.03
1767.15,1289.93
1768.6,1272.7
1770.05,1251.11
1771.51,1259.82
1772.96,1264.99
1774.41,1253.07
1775.86,1264.14
1777.31,1253.75
1778.76,1237.27
1780.22,1249.01
1781.67,1234.76
1783.12,1224.56
1784.57,1216.3
1786.02,1196.41
1787.48,1239.57
1788.93,1189.41
1790.38,1218.15
1791.83,1208.86
1793.28,1221.4
1794.73,1201.03
1796.19,1198.57
1797.64,1206.01
1799.09,1196.46
1800.54,1188.78
1801.99,1205.72
1803.45,1203.49
1804.9,1174.27
1806.35,1172.4
1807.8,1179.22
1809.25,1173.31
1810.7,1193.13
1812.16,1189.82
1813.61,1169.4
1815.06,1168.5
1816.51,1165.6
1817.96,1156.42
1819.41,1167.89
1820.87,1185.79
1822.32,1188.07
1823.77,1192.55
1825.22,1205.62
1826.67,1202.49
1828.13,1198.97
1829.58,1228.71
1831.03,1178.23
1832.48,1172.16
1833.93,1173.44
1835.38,1183.37
1836.84,1175.72
1838.29,1203.2
1839.74,1208.01
1841.19,1212.56
1842.64,1220.23
1844.1,1206.01
1845.55,1210.29
1847,1222.52
1848.45,1237.39
1849.9,1264.91
1851.35,1269.8
1852.81,1255.17
1854.26,1243.59
1855.71,1247.1
1857.16,1252.14
1858.61,1249.58
1860.07,1246.94
1861.52,1260.44
1862.97,1263.56
1864.42,1257.03
1865.87,1259.11
1867.32,1262.01
1868.78,1264.09
1870.23,1257.57
1871.68,1274.56
1873.13,1246.48
1874.58,1253.54
1876.03,1241.69
1877.49,1226.87
1878.94,1222.22
1880.39,1206.63
1881.84,1208.12
1883.29,1223.32
1884.75,1240.82
1886.2,1189.31
1887.65,1208.32
1889.1,1221.1
1890.55,1201.32
1892,1193.84
1893.46,1193.97
1894.91,1184.59
1896.36,1170.54
1897.81,1151.6
1899.26,1134.84
1900.72,1157.6
1902.17,1166.31
1903.62,1154.18
1905.07,1153.32
1906.52,1143.06
1907.97,1145.62
1909.43,1134.6
1910.88,1142.55
1912.33,1132.15
1913.78,1129.16
1915.23,1127.61
1916.68,1116.66
1918.14,1098.43
1919.59,1107.65
1921.04,1119.68
1922.49,1121.66
1923.94,1139.84
1925.4,1128.43
1926.85,1108.93
1928.3,1079.89
1929.75,1118.41
1931.2,1115.83
1932.65,1104.57
1934.11,1123.15
1935.56,1126.16
1937.01,1114
1938.46,1097.94
1939.91,1083.15
1941.37,1094.54
1942.82,1116.73
1944.27,1130
1945.72,1132.1
1947.17,1122.16
1948.62,1127.06
1950.08,1126.73
1951.53,1109.03
1952.98,1135.56
1954.43,1130.31
1955.88,1123.85
1957.33,1126.34
1958.79,1123.77
1960.24,1123.42
1961.69,1124.21
1963.14,1134.63
1964.59,1134.45
1966.05,1119.83
1967.5,1124.98
1968.95,1146.46
1970.4,1137.43
1971.85,1123.94
1973.3,1119.61
1974.76,1115.98
1976.21,1119.01
1977.66,1144.23
1979.11,1162.19
1980.56,1158.12
1982.02,1146.59
1983.47,1146.73
1984.92,1153.98
1986.37,1147.34
1987.82,1170.11
1989.27,1164.16
1990.73,1158.35
1992.18,1167.82
1993.63,1165.81
1995.08,1153.75
1996.53,1180.51
1997.98,1170.01
1999.44,1175.48
2000.89,1171.86
2002.34,1148.19
2003.79,1188.79
2005.24,1177.03
2006.7,1156.12
2008.15,1152.31
2009.6,1145.66
2011.05,1130.87
2012.5,1146.04
2013.95,1144.9
2015.41,1100.29
2016.86,1190.6
2018.31,1133.86
2019.76,1115.14
2021.21,1145.71
2022.67,1135.05
2024.12,1126.06
2025.57,1124.88
2027.02,1142.02
2028.47,1132.77
2029.92,1189.48
2031.38,1135.91
2032.83,1120.01
2034.28,1098.34
2035.73,1100.47
2037.18,1116.16
2038.63,1083.64
2040.09,1094.59
2041.54,1102.17
2042.99,1088.89
2044.44,1083.5
2045.89,1090.47
2047.35,1078.24
2048.8,1089.06
2050.25,1069.33
2051.7,1062.3
2053.15,1061.79
2054.6,1058.79
2056.06,1060.1
2057.51,1067.43
2058.96,1065.37
2060.41,1040.02
2061.86,1042.74
2063.32,1045.03
2064.77,1072.24
2066.22,1056.87
2067.67,1048.53
2069.12,1055.29
2070.57,1050.92
2072.03,1041.83
2073.48,1036.41
2074.93,1024.21
2076.38,1025.01
2077.83,1026.18
2079.28,1030.18
2080.74,1024.7
2082.19,1031.3
2083.64,1027.03
2085.09,1020.85
2086.54,1028.64
2088,1035.42
2089.45,1029.99
2090.9,1027.24
2092.35,1026.26
2093.8,1021.4
2095.25,1013.09
2096.71,1017.47
2098.16,1017.37
2099.61,1018.29
2101.06,1008.13
2102.51,1010.88
2103.97,1034.18
2105.42,1048.24
2106.87,1032.13
2108.32,1028.4
2109.77,1021.81
2111.22,1013.96
2112.68,1031.66
2114.13,1048.98
2115.58,1026.67
2117.03,1025.72
2118.48,1056.38
2119.94,1057.31
2121.39,1043.65
2122.84,1034.56
2124.29,1039.21
2125.74,1051.77
2127.19,1054.95
2128.65,1024.16
2130.1,1036.75
2131.55,1063.69
2133,1046.1
2134.45,1037.12
2135.9,1051.51
2137.36,1038.33
2138.81,1030.87
2140.26,1045.61
2141.71,1065.21
2143.16,1044.98
2144.62,1055.82
2146.07,1056.46
2147.52,1052.26
2148.97,1063.66
2150.42,1060.05
2151.87,1069.43
2153.33,1081.13
2154.78,1067.58
2156.23,1063.61
2157.68,1066.73
2159.13,1074.79
2160.58,1077.02
2162.04,1079.4
2163.49,1065.78
2164.94,1061.05
2166.39,1070.36
2167.84,1084.88
2169.3,1077.69
2170.75,1067.33
2172.2,1064.14
2173.65,1089.01
2175.1,1084.29
2176.55,1075.87
2178.01,1088.78
2179.46,1091.46
2180.91,1075.58
2182.36,1076.82
2183.81,1082.7
2185.27,1080.95
2186.72,1114.72
2188.17,1122.88
2189.62,1121.5
2191.07,1113.27
2192.52,1087.05
2193.98,1102.07
2195.43,1078.45
2196.88,1090.3
2198.33,1123.92
2199.78,1118.17
2201.24,1144.74
2202.69,1112.79
2204.14,1108.18
2205.59,1114.49
2207.04,1127.68
2208.49,1096.21
2209.95,1104.47
2211.4,1125.04
2212.85,1096.45
2214.3,1113.2
2215.75,1073.88
2217.2,1096
2218.66,1111.89
2220.11,1100.44
2221.56,1120.55
2223.01,1122.12
2224.46,1115
2225.92,1086.34
2227.37,1086.34
2228.82,1090.92
2230.27,1125.14
2231.72,1128.37
2233.17,1108.47
2234.63,1134.02
2236.08,1126.41
2237.53,1106.34
2238.98,1125.91
2240.43,1129.59
2241.89,1140.45
2243.34,1135.19
2244.79,1134.55
2246.24,1149.54
2247.69,1153.01
2249.14,1145.68
2250.6,1141.55
2252.05,1136.29
2253.5,1142.96
2254.95,1139.24
2256.4,1129.81
2257.85,1154.48
2259.31,1171.06
2260.76,1148.81
2262.21,1152.86
2263.66,1149.1
2265.11,1153.17
2266.57,1167.48
2268.02,1162.41
2269.47,1156.37
2270.92,1153.69
2272.37,1144.74
2273.82,1174.62
2275.28,1161.82
2276.73,1154.27
2278.18,1158.52
2279.63,1159.78
2281.08,1175.21
2282.54,1185.93
2283.99,1177.3
2285.44,1208.9
2286.89,1200.87
2288.34,1197.6
2289.79,1204.92
2291.25,1210.44
2292.7,1201.05
2294.15,1190.11
2295.6,1206.5
2297.05,1197.95
2298.5,1213.87
2299.96,1225.56
2301.41,1238.71
2302.86,1212.51
2304.31,1193.88
2305.76,1254.58
2307.22,1259.77
2308.67,1233.14
2310.12,1225.88
2311.57,1222.77
2313.02,1260.64
2314.47,1280.08
2315.93,1248.02
2317.38,1249.5
2318.83,1264.95
2320.28,1229.2
2321.73,1237.71
2323.19,1261.45
2324.64,1280.24
2326.09,1284.87
2327.54,1288.78
2328.99,1277.82
2330.44,1282.6
2331.9,1290.86
2333.35,1290.13
2334.8,1302.87
2336.25,1306.89
2337.7,1310.25
2339.16,1306.83
2340.61,1307.02
2342.06,1328.97
2343.51,1338.24
2344.96,1336.31
2346.41,1351.11
2347.87,1332.99
2349.32,1341.49
2350.77,1377.44
2352.22,1383.23
2353.67,1387.46
2355.12,1389.97
2356.58,1392.67
2358.03,1382.91
2359.48,1409.02
2360.93,1380.86
2362.38,1401.19
2363.84,1418.1
2365.29,1421.54
2366.74,1419.09
2368.19,1439.02
2369.64,1467.52
2371.09,1490.64
2372.55,1515.24
2374,1516.83
2375.45,1546.62
2376.9,1546.25
2378.35,1557.89
2379.8,1594.71
2381.26,1591.42
2382.71,1603.23
2384.16,1605.93
2385.61,1629.03
2387.06,1650.77
2388.52,1644.01
2389.97,1700.75
2391.42,1728.18
2392.87,1757.89
2394.32,1781.6
2395.77,1831.49
2397.23,1808.31
2398.68,1819.97
2400.13,1874.87
2401.58,1917.08
2403.03,1957.87
2404.49,1966
2405.94,1998.04
2407.39,2046.02
2408.84,2066.93
2410.29,2094.73
2411.74,2115.82
2413.2,2142.12
2414.65,2159.23
2416.1,2223.26
2417.55,2263.53
2419,2261.58
2420.46,2264.92
2421.91,2274.94
2423.36,2245.43
2424.81,2265.36
2426.26,2328.57
2427.71,2317.95
2429.17,2324
2430.62,2375.14
2432.07,2347.3
2433.52,2352.66
2434.97,2292.79
2436.42,2311.72
2437.88,2337.26
2439.33,2311.86
2440.78,2304.59
2442.23,2277.25
2443.68,2254.97
2445.14,2274.63
2446.59,2245.36
2448.04,2256.75
2449.49,2254.97
2450.94,2230.73
2452.39,2195.48
2453.85,2189.54
2455.3,2171.61
2456.75,2161.65
2458.2,2146.17
2459.65,2136.38
2461.1,2121.07
2462.56,2100.28
2464.01,2111.94
2465.46,2092.11
2466.91,2050.47
2468.36,2066.43
2469.82,2026.73
2471.27,2084.95
2472.72,2075.42
2474.17,2036.91
2475.62,2019.41
2477.07,1999.54
2478.53,1992.22
2479.98,1975.05
2481.43,1983.03
2482.88,2021.37
2484.33,2023.31
2485.79,2025.91
2487.24,1989.51
2488.69,1988.89
2490.14,1983.76
2491.59,2007.34
2493.04,2003.1
2494.5,2001.39
2495.95,1982.47
2497.4,2008.45
2498.85,1989.01
2500.3,2021.49
2501.76,2035.47
2503.21,2027.12
2504.66,2055.93
2506.11,2036.72
2507.56,2020.28
2509.01,2008.28
2510.47,2074.46
2511.92,2056.79
2513.37,2057.49
2514.82,2096.69
2516.27,2105.77
2517.72,2120.34
2519.18,2113.53
2520.63,2095.5
2522.08,2122.79
2523.53,2149.48
2524.98,2165.37
2526.44,2142.11
2527.89,2169.05
2529.34,2204.01
2530.79,2239.56
2532.24,2252.09
2533.69,2258.07
2535.15,2288.28
2536.6,2279.36
2538.05,2368.39
2539.5,2343.83
2540.95,2367.02
2542.41,2393.53
2543.86,2426.56
2545.31,2453.4
2546.76,2477.18
2548.21,2461.56
2549.66,2505.48
2551.12,2545.91
2552.57,2617.01
2554.02,2657.08
2555.47,2661.98
2556.92,2686.27
2558.37,2721.17
2559.83,2774.39
2561.28,2800.92
2562.73,2829.04
2564.18,2929.54
2565.63,2992.81
2567.09,3013.01
2568.54,3058.15
2569.99,3108.11
2571.44,3173.14
2572.89,3212.1
2574.34,3278.79
2575.8,3290.78
2577.25,3448.11
2578.7,3552.02
2580.15,3604.98
2581.6,3663.75
2583.06,3732.95
2584.51,3811.81
2585.96,3926.86
2587.41,4068.28
2588.86,4162.79
2590.31,4253.17
2591.77,4339.43
2593.22,4499.91
2594.67,4615.36
2596.12,4752.27
2597.57,4933.71
2599.02,5075.6
2600.48,5223
2601.93,5389.42
2603.38,5556.91
2604.83,5789.33
2606.28,5968.73
2607.74,6219.46
2609.19,6384.84
2610.64,6639.47
2612.09,6823.74
2613.54,7116.19
2614.99,7405.12
2616.45,7698.21
2617.9,8012.72
2619.35,8332.72
2620.8,8634.07
2622.25,8996.52
2623.71,9348.25
2625.16,9756.27
2626.61,10122.9
2628.06,10486.1
2629.51,10994.3
2630.96,11359.9
2632.42,11872.3
2633.87,12278.4
2635.32,12731.1
2636.77,13170.1
2638.22,13668.1
2639.68,14089.8
2641.13,14440.2
2642.58,14853.4
2644.03,15319.6
2645.48,15708
2646.93,16173.8
2648.39,16401.6
2649.84,16836.2
2651.29,17135.7
2652.74,17366.6
2654.19,17571.3
2655.64,17879.2
2657.1,17980.3
2658.55,18101.1
2660,18214.2
2661.45,18182
2662.9,18059.6
2664.36,17961.9
2665.81,17857.6
2667.26,17618.4
2668.71,17497.5
2670.16,17311.7
2671.61,17065.4
2673.07,16658.2
2674.52,16302.7
2675.97,15783.9
2677.42,15440.6
2678.87,15005
2680.32,14628.8
2681.78,14133.8
2683.23,13638.3
2684.68,13159.1
2686.13,12718.1
2687.58,12209.3
2689.04,11831.2
2690.49,11331
2691.94,10910.8
2693.39,10448.4
2694.84,9999.62
2696.29,9590.8
2697.75,9176.35
2699.2,8850.09
2700.65,8471.03
2702.1,8076.36
2703.55,7734.71
2705.01,7381.73
2706.46,7137.06
2707.91,6811.77
2709.36,6553.69
2710.81,6267.89
2712.26,5980.32
2713.72,5797.84
2715.17,5595.94
2716.62,5370.86
2718.07,5128.99
2719.52,4977.88
2720.98,4819.45
2722.43,4618.11
2723.88,4473.55
2725.33,4344.67
2726.78,4180.99
2728.23,4030.75
2729.69,3969.68
2731.14,3815.5
2732.59,3695.9
2734.04,3617.28
2735.49,3518.86
2736.94,3409.15
2738.4,3326.23
2739.85,3239.94
2741.3,3125.37
2742.75,3091.11
2744.2,3069.23
2745.66,2932.69
2747.11,2869.77
2748.56,2820.62
2750.01,2784.76
2751.46,2742.75
2752.91,2707.7
2754.37,2631.8
2755.82,2591.26
2757.27,2539.64
2758.72,2505.64
2760.17,2413.61
2761.63,2411.22
2763.08,2386.34
2764.53,2320.03
2765.98,2325.28
2767.43,2289.83
2768.88,2217.58
2770.34,2221.86
2771.79,2175.39
2773.24,2139.08
2774.69,2112.06
2776.14,2094.14
2777.59,2117.11
2779.05,2050.04
2780.5,2032.42
2781.95,2022.51
2783.4,2031.83
2784.85,2010.22
2786.31,1969.78
2787.76,1940.37
2789.21,1939.17
2790.66,1912.74
2792.11,1891.05
2793.56,1859.28
2795.02,1856.18
2796.47,1850.08
2797.92,1847.7
2799.37,1824.41
2800.82,1825.06
2802.28,1821.25
2803.73,1781.11
2805.18,1769.97
2806.63,1772.34
2808.08,1750.24
2809.53,1716.66
2810.99,1726.72
2812.44,1723.39
2813.89,1680.18
2815.34,1686.23
2816.79,1664.97
2818.24,1679.75
2819.7,1678.12
2821.15,1664.95
2822.6,1644.38
2824.05,1635.51
2825.5,1630.8
2826.96,1645.24
2828.41,1625.19
2829.86,1638.65
2831.31,1590.72
2832.76,1574.43
2834.21,1592
2835.67,1601.24
2837.12,1598.21
2838.57,1596.73
2840.02,1557.51
2841.47,1581.3
2842.93,1530.94
2844.38,1550.08
2845.83,1537.55
2847.28,1522.17
2848.73,1513.86
2850.18,1535.26
2851.64,1530.01
2853.09,1537.18
2854.54,1529.19
2855.99,1517.17
2857.44,1497.37
2858.9,1528.84
2860.35,1509.32
2861.8,1498.24
2863.25,1520.25
2864.7,1500.31
2866.15,1505.11
2867.61,1517.75
2869.06,1529.28
2870.51,1520.45
2871.96,1577.45
2873.41,1535.11
2874.86,1535.07
2876.32,1500.56
2877.77,1516.04
2879.22,1506.01
2880.67,1523.39
2882.12,1545.71
2883.58,1542.3
2885.03,1538.2
2886.48,1529.26
2887.93,1492.4
2889.38,1514.64
2890.83,1502.64
2892.29,1549.19
2893.74,1528.51
2895.19,1508
2896.64,1503.02
2898.09,1503.31
2899.54,1508.04
2901,1492.93
2902.45,1494.13
2903.9,1549.73
2905.35,1495.84
2906.8,1522.01
2908.26,1523.33
2909.71,1517.55
2911.16,1495.75
2912.61,1483.46
2914.06,1466.27
2915.51,1477.75
2916.97,1462.26
2918.42,1477.4
2919.87,1467.95
2921.32,1472.84
2922.77,1452.68
2924.23,1442.42
2925.68,1427.09
2927.13,1428.56
2928.58,1453.06
2930.03,1421.07
2931.48,1419.92
2932.94,1383.58
2934.39,1399.61
2935.84,1389.4
2937.29,1380.47
2938.74,1358.89
2940.2,1365.61
2941.65,1339.32
2943.1,1305.97
2944.55,1312.15
2946,1317.73
2947.45,1280.2
2948.91,1263.81
2950.36,1275.66
2951.81,1287.22
2953.26,1247.41
2954.71,1256.43
2956.16,1270.46
2957.62,1247.8
2959.07,1227.73
2960.52,1235.93
2961.97,1212.79
2963.42,1210.54
2964.88,1176.4
2966.33,1179.58
2967.78,1201.87
2969.23,1185.92
2970.68,1173.73
2972.13,1179.21
2973.59,1154.84
2975.04,1149.04
2976.49,1160.75
2977.94,1153.76
2979.39,1144.88
2980.84,1139.69
2982.3,1142.42
2983.75,1123.65
2985.2,1118.74
2986.65,1100.82
2988.1,1122.35
2989.56,1123.17
2991.01,1119.72
2992.46,1126.5
2993.91,1113.5
2995.36,1102.62
2996.81,1088.88
2998.27,1094.47
2999.72,1098.61
3001.17,1078.24
3002.62,1075.19
3004.07,1068.1
3005.53,1097.84
3006.98,1088.87
3008.43,1076.02
3009.88,1077.74
3011.33,1073.33
3012.78,1076.8
3014.24,1076.61
3015.69,1043.81
3017.14,1065.19
3018.59,1057.62
3020.04,1049.51
3021.5,1065.33
3022.95,1057.64
3024.4,1055.5
3025.85,1067.12
3027.3,1064
3028.75,1045.89
3030.21,1086.92
3031.66,1040.94
3033.11,1059.62
3034.56,1069
3036.01,1049.11
3037.46,1050.69
3038.92,1055.87
3040.37,1041.34
3041.82,1054.12
3043.27,1067.09
3044.72,1036.06
3046.18,1046.67
3047.63,1052.66
3049.08,1056.73
3050.53,1059.33
3051.98,1058.16
3053.43,1053.13
3054.89,1052.85
3056.34,1055.07
3057.79,1056.26
3059.24,1073.11
3060.69,1068.42
3062.15,1065.55
3063.6,1063.69
3065.05,1069.68
3066.5,1081.62
3067.95,1071.93
3069.4,1058.36
3070.86,1068.68
3072.31,1074.66
3073.76,1075.6
3075.21,1103.56
3076.66,1074.14
3078.11,1108.4
3079.57,1106.24
3081.02,1106.92
3082.47,1106.64
3083.92,1120.14
3085.37,1123.49
3086.83,1142.87
3088.28,1128.07
3089.73,1131.23
3091.18,1131.59
3092.63,1155.96
3094.08,1181.84
3095.54,1178.13
3096.99,1184.24
3098.44,1220.67
3099.89,1209.63
3101.34,1209.4
3102.8,1252.76
3104.25,1278.22
3105.7,1292.21
3107.15,1311.66
3108.6,1304.78
3110.05,1312.09
3111.51,1327.85
3112.96,1344.38
3114.41,1397.96
3115.86,1389.56
3117.31,1399.41
3118.76,1381.39
3120.22,1426.78
3121.67,1448.71
3123.12,1447.69
3124.57,1472.08
3126.02,1505.87
3127.48,1498.98
3128.93,1573.82
3130.38,1556.93
3131.83,1546.31
3133.28,1556.07
3134.73,1584.84
3136.19,1570.73
3137.64,1578.19
3139.09,1561.44
3140.54,1607.17
3141.99,1614.3
3143.45,1623.7
3144.9,1607.62
3146.35,1623.36
3147.8,1636.9
3149.25,1662.66
3150.7,1642.54
3152.16,1684.6
3153.61,1672.46
3155.06,1642.29
3156.51,1654.57
3157.96,1662.25
3159.42,1681.88
3160.87,1636.24
3162.32,1672.14
3163.77,1679.36
3165.22,1676.14
3166.67,1698.81
3168.13,1701.86
3169.58,1675.27
3171.03,1661.16
3172.48,1693.74
3173.93,1690.78
3175.38,1720.41
3176.84,1752.62
3178.29,1750.98
3179.74,1783.96
3181.19,1786.54
3182.64,1804.88
3184.1,1850.32
3185.55,1823.72
3187,1856.52
3188.45,1867.39
3189.9,1861.51
3191.35,1905.59
3192.81,1893.56
3194.26,1895.12
3195.71,1922.87
3197.16,1924.53
3198.61,1906.88
3200.06,1958.91
3201.52,1950.91
3202.97,1955.28
3204.42,1916.83
3205.87,1935.08
3207.32,1943.18
3208.78,1912.63
3210.23,1938.09
3211.68,1861.72
3213.13,1813.95
3214.58,1802.13
3216.03,1768.42
3217.49,1758.19
3218.94,1722.19
3220.39,1691.07
3221.84,1652.9
3223.29,1627.06
3224.75,1562.81
3226.2,1533.18
3227.65,1519.11
3229.1,1479.45
3230.55,1438.9
3232,1414.74
3233.46,1375.29
3234.91,1341.46
3236.36,1319.16
3237.81,1321.92
3239.26,1252.64
3240.72,1208.29
3242.17,1199.09
3243.62,1198.75
3245.07,1171.11
3246.52,1141.06
3247.97,1104.1
3249.43,1131.14
3250.88,1075.19
3252.33,1051.3
3253.78,1044.44
3255.23,1032.76
3256.68,1015
3258.14,1047.77
3259.59,1017.11
3261.04,1002.05
3262.49,984.053
3263.94,983.052
3265.4,966.887
3266.85,942.948
3268.3,970.898
3269.75,968.862
3271.2,945.503
3272.65,952.539
3274.11,939.925
3275.56,936.143
3277.01,931.603
3278.46,927.105
3279.91,914.724
3281.37,915.882
3282.82,928.715
3284.27,934.716
3285.72,892.042
3287.17,909.735
3288.62,905.137
3290.08,899.232
3291.53,891.159
3292.98,875.879
3294.43,903.254
3295.88,886.285
3297.33,895.565
3298.79,894.618
3300.24,910.932
3301.69,894.545
3303.14,895.249
3304.59,881.834
3306.05,932.074
3307.5,895.35
3308.95,887.832
3310.4,890.716
3311.85,880.391
3313.3,879.902
3314.76,874.331
3316.21,888.305
3317.66,883.144
3319.11,868.239
3320.56,881.49
3322.02,871.001
3323.47,875.857
3324.92,881.666
3326.37,886.811
3327.82,886.445
3329.27,880.512
3330.73,874.97
3332.18,881.161
3333.63,889.165
3335.08,857.978
3336.53,853.778
3337.98,887.572
3339.44,863.668
3340.89,864.65
3342.34,871.395
3343.79,879.969
3345.24,871.186
3346.7,866.431
3348.15,859.76
3349.6,866.043
3351.05,869.608
3352.5,847.984
3353.95,873.244
3355.41,858.974
3356.86,834.561
3358.31,852.266
3359.76,877.45
3361.21,864.697
3362.67,871.128
3364.12,855.775
3365.57,861.508
3367.02,866.96
3368.47,851.416
3369.92,862.472
3371.38,872.647
3372.83,862.667
3374.28,833.308
3375.73,842.834
3377.18,861.331
3378.63,866.877
3380.09,873.516
3381.54,842.119
3382.99,841.599
3384.44,841.328
3385.89,835.654
3387.35,854.19
3388.8,838.865
3390.25,847.541
3391.7,837.733
3393.15,834.375
3394.6,844.249
3396.06,852.286
3397.51,856.569
3398.96,864.612
3400.41,844.603
3401.86,840.808
3403.32,849.43
3404.77,854.628
3406.22,870.745
3407.67,836.805
3409.12,845.779
3410.57,838.457
3412.03,832.343
3413.48,818.788
3414.93,855.115
3416.38,852.54
3417.83,840.713
3419.28,838.541
3420.74,869.301
3422.19,835.729
3423.64,858.303
3425.09,845.772
3426.54,833.375
3428,814.097
3429.45,845.256
3430.9,850.061
3432.35,855.404
3433.8,856.078
3435.25,826.828
3436.71,830.668
3438.16,830.631
3439.61,853.452
3441.06,848.91
3442.51,830.726
3443.97,823.051
3445.42,815.725
3446.87,846.214
3448.32,827.064
3449.77,821.412
3451.22,826.288
3452.68,856.302
3454.13,814.366
3455.58,817.43
3457.03,849.478
3458.48,832.88
3459.94,834.402
3461.39,820.449
3462.84,832.63
3464.29,837.918
3465.74,835.108
3467.19,835.423
3468.65,811.347
3470.1,842.457
3471.55,832.349
3473,814.53
3474.45,799.281
3475.9,835.987
3477.36,850.746
3478.81,855.227
3480.26,845.567
3481.71,816.386
3483.16,832.966
3484.62,803.204
3486.07,841.006
3487.52,823.294
3488.97,808.827
3490.42,828.318
3491.87,833.326
3493.33,842.023
3494.78,827.47
3496.23,827.595
3497.68,830.048
3499.13,828.88
3500.58,838.143
3502.04,851.704
3503.49,827.544
3504.94,812.256
3506.39,804.866
3507.84,835.09
3509.3,857.088
3510.75,859.88
3512.2,825.083
3513.65,827
3515.1,839.314
3516.55,830.201
3518.01,840.61
3519.46,833.72
3520.91,829.65
3522.36,827.841
3523.81,831.405
3525.27,832.313
3526.72,817.956
3528.17,837.268
3529.62,824.057
3531.07,835.072
3532.52,842.9
3533.98,837.954
3535.43,847.122
3536.88,836.015
3538.33,810.493
3539.78,831.253
3541.24,836.813
3542.69,820.202
3544.14,838.166
3545.59,841.962
3547.04,828.611
3548.49,821.376
3549.95,835.131
3551.4,822.338
3552.85,812.331
3554.3,815.739
3555.75,839.588
3557.2,846.6
3558.66,823.519
3560.11,818.634
3561.56,825.436
3563.01,826.653
3564.46,830.563
3565.92,830.466
3567.37,825.076
3568.82,827.668
3570.27,828.886
3571.72,813.652
3573.17,820.6
3574.63,833.454
3576.08,830.063
3577.53,845.46
3578.98,802.07
3580.43,819.214
3581.89,814.689
3583.34,816.452
3584.79,807.286
3586.24,835.948
3587.69,816.482
3589.14,833.629
3590.6,835.028
3592.05,818.324
3593.5,819.922
3594.95,814.644
3596.4,807.443
3597.85,808.1
3599.31,830.024
3600.76,832.91
3602.21,811.433
3603.66,831.77
3605.11,794.408
3606.57,830.759
3608.02,828.411
3609.47,822.562
3610.92,827.41
3612.37,846.133
3613.82,820.005
3615.28,823.673
3616.73,809.687
3618.18,846.482
3619.63,808.199
3621.08,835.113
3622.54,827.858
3623.99,833.961
3625.44,839.472
3626.89,831.636
3628.34,812.71
3629.79,817.328
3631.25,819.694
3632.7,826.711
3634.15,819.485
3635.6,815.179
3637.05,808.957
3638.5,826.007
3639.96,819.552
3641.41,828.177
3642.86,823.182
3644.31,811.843
3645.76,827.335
3647.22,819.708
3648.67,819.84
3650.12,809.176
3651.57,813.67
3653.02,802.55
3654.47,825.495
3655.93,851.448
3657.38,826.886
3658.83,833.906
3660.28,826.184
3661.73,825.97
3663.19,814.878
3664.64,833.806
3666.09,801.489
3667.54,822.682
3668.99,826.584
3670.44,842.432
3671.9,825.623
3673.35,818.288
3674.8,845.394
3676.25,836.288
3677.7,807.33
3679.16,825.421
3680.61,826.189
3682.06,841.817
3683.51,826.574
3684.96,832.635
3686.41,832.368
3687.87,824.846
3689.32,835.294
3690.77,811.318
3692.22,837.767
3693.67,819.91
3695.12,824.988
3696.58,830.697
3698.03,836.995
3699.48,837.449
3700.93,836.872
3702.38,825.139
3703.84,844.315
3705.29,831.435
3706.74,814.866
3708.19,831.984
3709.64,861.696
3711.09,845.613
3712.55,838.961
3714,823.135
3715.45,827.802
3716.9,833.484
3718.35,840.168
3719.8,847.36
3721.26,833.189
3722.71,819.337
3724.16,832.909
3725.61,843.443
3727.06,843.085
3728.52,832.324
3729.97,828.651
3731.42,842.951
3732.87,838.723
3734.32,833.584
3735.77,855.942
3737.23,852.441
3738.68,840.386
3740.13,817.18
3741.58,848.82
3743.03,824.024
3744.49,828.474
3745.94,859.471
3747.39,841.419
3748.84,847.983
3750.29,856.306
3751.74,835.613
3753.2,836.748
3754.65,836.687
3756.1,821.087
3757.55,840.988
3759,832.649
3760.46,845.767
3761.91,851.516
3763.36,855.147
3764.81,857.227
3766.26,861.276
3767.71,828.867
3769.17,839.717
3770.62,854.546
3772.07,822.662
3773.52,831.351
3774.97,844.567
3776.42,827.946
3777.88,841.386
3779.33,843.505
3780.78,859.271
3782.23,860.548
3783.68,862.335
3785.14,876.931
3786.59,845.294
3788.04,838.512
3789.49,829.083
3790.94,856.919
3792.39,857.426
3793.85,850.536
3795.3,861.406
3796.75,865.405
3798.2,859.033
3799.65,852.81
3801.1,855.032
3802.56,816.379
3804.01,864.348
3805.46,853.847
3806.91,850.894
3808.36,872.566
3809.82,865.89
3811.27,852.2
3812.72,848.504
3814.17,851.644
3815.62,877.007
3817.07,868.929
3818.53,868.2
3819.98,898.188
3821.43,845.715
3822.88,847.021
3824.33,847.649
3825.79,866.995
3827.24,905.201
3828.69,902.294
3830.14,853.331
3831.59,879.694
3833.04,854.922
3834.5,862.533
3835.95,866.724
3837.4,875.955
3838.85,867.176
3840.3,865.676
3841.76,909.203
3843.21,837.829
3844.66,862.037
3846.11,863.122
3847.56,847.405
3849.01,903.595
3850.47,845.662
3851.92,873.299
3853.37,842.356
3854.82,853.963
3856.27,880.195
3857.72,881.015
3859.18,891.852
3860.63,888.997
3862.08,855.271
3863.53,880.754
3864.98,890.576
3866.44,914.573
3867.89,876.495
3869.34,868.382
3870.79,885.997
3872.24,889.394
3873.69,878.998
3875.15,889.245
3876.6,864.631
3878.05,874.996
3879.5,898.324
3880.95,872.34
3882.41,884.312
3883.86,897.661
3885.31,882.719
3886.76,878.825
3888.21,891.291
3889.66,894.118
3891.12,887.979
3892.57,915.907
3894.02,913.138
3895.47,918.771
3896.92,907.304
3898.37,906.595
3899.83,900.859
3901.28,890.263
3902.73,911.071
3904.18,901.394
3905.63,920.926
3907.09,911.933
3908.54,914.268
3909.99,934.194
3911.44,923.003
3912.89,925.422
3914.34,924.078
3915.8,897.482
3917.25,916.251
3918.7,950.48
3920.15,939.811
3921.6,963.767
3923.06,940.327
3924.51,912.685
3925.96,953.076
3927.41,946.502
3928.86,936.667
3930.31,979.57
3931.77,957.678
3933.22,961.607
3934.67,964.884
3936.12,961.167
3937.57,965.451
3939.02,968.926
3940.48,960.875
3941.93,951.072
3943.38,958.41
3944.83,970.354
3946.28,966.277
3947.74,969.622
3949.19,966.761
3950.64,974.859
3952.09,957.692
3953.54,949.919
3954.99,981.748
3956.45,976.045
3957.9,967.576
3959.35,1014.49
3960.8,980.188
3962.25,992.137
3963.71,979.522
3965.16,983.503
3966.61,995.721
3968.06,993.882
3969.51,1000.94
3970.96,986.052
3972.42,998.691
3973.87,1001.58
3975.32,1011.01
3976.77,1001.96
3978.22,1010.66
3979.68,1008.12
3981.13,1003.93
3982.58,1028.87
3984.03,1015.68
3985.48,1042.26
3986.93,1007.03
3988.39,1032.23
3989.84,1059.53
3991.29,1032.36
3992.74,1028.53
3994.19,1019.98
3995.64,1042.8
3997.1,1043.08
3998.55,1050.62
4000,1048.16
