-20,151.974
-18.5482,155.914
-17.0964,152.764
-15.6446,149.52
-14.1928,154.408
-12.7411,158.41
-11.2893,160.287
-9.83749,161.977
-8.3857,168.613
-6.93391,179.999
-5.48212,281.006
-4.03034,176.403
-2.57855,176.403
-1.12676,176.403
0.325027,176.403
1.77681,176.403
3.2286,176.403
4.68039,176.403
6.13218,176.403
7.58397,176.403
9.03575,194.365
10.4875,186.249
11.9393,187.387
13.3911,190.134
14.8429,189.449
16.2947,186.547
17.7465,183.272
19.1983,175.367
20.6501,169.412
22.1018,165.302
23.5536,162.017
25.0054,158.69
26.4572,156.356
27.909,154.478
29.3608,153.2
30.8126,151.152
32.2644,150.889
33.7161,149.355
35.1679,148.725
36.6197,149.344
38.0715,151.43
39.5233,151.477
40.9751,152.208
42.4269,154.122
43.8787,156
45.3304,160.501
46.7822,164.909
48.234,177.911
49.6858,206.67
51.1376,254.893
52.5894,332.589
54.0412,450.069
55.493,610.716
56.9447,804.816
58.3965,1010.78
59.8483,1214.28
61.3001,1354.51
62.7519,1461.83
64.2037,1559.59
65.6555,1607.01
67.1073,1654.57
68.559,1681.33
70.0108,1702.1
71.4626,1750.2
72.9144,1781.76
74.3662,1801.95
75.818,1822.18
77.2698,1855.37
78.7216,1923.27
80.1733,1973.57
81.6251,2019.58
83.0769,2043.54
84.5287,2055.09
85.9805,2067.53
87.4323,2033.01
88.8841,1977.49
90.3359,1924.98
91.7877,1858.41
93.2394,1790.05
94.6912,1702.88
96.143,1640.59
97.5948,1587.07
99.0466,1505.23
100.498,1476.62
101.95,1418.85
103.402,1375.02
104.854,1347.13
106.306,1333.67
107.757,1320.09
109.209,1311.73
110.661,1295.41
112.113,1270.59
113.564,1259.25
115.016,1249.99
116.468,1228.93
117.92,1209.93
119.372,1197.3
120.823,1178.73
122.275,1144.39
123.727,1115.69
125.179,1090.06
126.631,1079.64
128.082,1080.21
129.534,1043.36
130.986,1026.48
132.438,1018.4
133.889,997.823
135.341,983.374
136.793,976.562
138.245,960.221
139.697,946.69
141.148,927.941
142.6,924.324
144.052,905.725
145.504,888.174
146.956,878.992
148.407,874.655
149.859,875.43
151.311,855.516
152.763,839.484
154.215,838.392
155.666,838.641
157.118,823.807
158.57,846.799
160.022,853.083
161.473,848.548
162.925,853.189
164.377,881.771
165.829,891.846
167.281,898.764
168.732,908.504
170.184,895.587
171.636,861.658
173.088,835.65
174.54,811.014
175.991,780.912
177.443,772.487
178.895,765.334
180.347,767.052
181.798,757.765
183.25,747.081
184.702,741.622
186.154,740.714
187.606,734.784
189.057,728.012
190.509,722.048
191.961,714.97
193.413,733.339
194.865,729.106
196.316,721.257
197.768,712.814
199.22,722.056
200.672,712.479
202.124,713.691
203.575,716.145
205.027,702.585
206.479,706.535
207.931,709.302
209.382,716.222
210.834,713.47
212.286,700.404
213.738,697.984
215.19,710.687
216.641,710.404
218.093,710.592
219.545,708.211
220.997,695.697
222.449,692.805
223.9,689.139
225.352,695.719
226.804,699.777
228.256,690.644
229.707,687.408
231.159,693.697
232.611,698.84
234.063,700.601
235.515,711.358
236.966,692.475
238.418,694.086
239.87,701.557
241.322,697.408
242.774,686.721
244.225,682.742
245.677,686.13
247.129,685.775
248.581,683.629
250.033,667.868
251.484,680.029
252.936,675.608
254.388,668.256
255.84,667.022
257.291,684.492
258.743,683.018
260.195,665.798
261.647,668.877
263.099,670.011
264.55,648.564
266.002,643.759
267.454,653.69
268.906,657.662
270.358,653.544
271.809,654.804
273.261,657.244
274.713,646.347
276.165,649.813
277.616,646.433
279.068,629.449
280.52,626.582
281.972,640.166
283.424,632.925
284.875,626.708
286.327,623.579
287.779,629.37
289.231,630.78
290.683,621.965
292.134,612.129
293.586,607.294
295.038,616.587
296.49,608.62
297.941,597.928
299.393,607.84
300.845,607.243
302.297,582.65
303.749,583.298
305.2,584.02
306.652,585.758
308.104,584.14
309.556,580.366
311.008,576.273
312.459,578.482
313.911,570.084
315.363,574.265
316.815,584.379
318.267,560.217
319.718,556.261
321.17,558.575
322.622,559.091
324.074,561.768
325.525,558.88
326.977,560.041
328.429,555.381
329.881,560.473
331.333,563.742
332.784,553.878
334.236,557.898
335.688,544.257
337.14,550.195
338.592,548.437
340.043,534.565
341.495,540.565
342.947,561.918
344.399,547.421
345.85,538.774
347.302,545.738
348.754,554.771
350.206,552.733
351.658,551.839
353.109,543.825
354.561,539.04
356.013,539.601
357.465,529.762
358.917,535.904
360.368,542.778
361.82,540.664
363.272,532.798
364.724,528.633
366.176,532.029
367.627,536.775
369.079,535.369
370.531,534.293
371.983,544.454
373.434,534.498
374.886,534.365
376.338,530.632
377.79,528.52
379.242,532.823
380.693,537.353
382.145,526.094
383.597,518.624
385.049,512.874
386.501,516.07
387.952,522.406
389.404,525.539
390.856,524.275
392.308,524.317
393.759,526.466
395.211,526.478
396.663,528.747
398.115,518.544
399.567,526.983
401.018,530.447
402.47,525.82
403.922,522.474
405.374,533.33
406.826,523.502
408.277,529.832
409.729,531.99
411.181,522.372
412.633,527.263
414.085,528.451
415.536,519.243
416.988,513.505
418.44,517.67
419.892,528.536
421.343,528.043
422.795,526.475
424.247,519.675
425.699,512.334
427.151,511.29
428.602,527.584
430.054,527.72
431.506,527.813
432.958,520.761
434.41,517.903
435.861,529.271
437.313,516.797
438.765,523.565
440.217,525.612
441.668,519.442
443.12,514.575
444.572,528.711
446.024,525.757
447.476,521.605
448.927,519.911
450.379,516.074
451.831,514.872
453.283,504.149
454.735,507.446
456.186,508.137
457.638,511.371
459.09,516.224
460.542,512.28
461.993,485.675
463.445,505.403
464.897,511.089
466.349,510.806
467.801,511.162
469.252,503.539
470.704,516.711
472.156,513.851
473.608,513.871
475.06,513.707
476.511,511.47
477.963,508.072
479.415,509.867
480.867,516.528
482.319,509.186
483.77,502.241
485.222,509.976
486.674,521.256
488.126,506.376
489.577,509.678
491.029,516.61
492.481,515.649
493.933,506.256
495.385,499.548
496.836,510.082
498.288,511.234
499.74,509.829
501.192,509.333
502.644,499.455
504.095,500.888
505.547,500.049
506.999,503.934
508.451,508.058
509.902,509.792
511.354,505.155
512.806,497.377
514.258,499.382
515.71,512.08
517.161,518.07
518.613,509.345
520.065,492.316
521.517,495.381
522.969,497.869
524.42,498.273
525.872,497.265
527.324,498.301
528.776,505.03
530.228,505.377
531.679,512.257
533.131,511.684
534.583,504.936
536.035,504.967
537.486,493.683
538.938,481.164
540.39,491.527
541.842,499.587
543.294,498.735
544.745,501.485
546.197,504.128
547.649,502.831
549.101,500.338
550.553,500.562
552.004,500.897
553.456,504.483
554.908,503.103
556.36,503.18
557.811,502.791
559.263,509.458
560.715,506.011
562.167,495.088
563.619,503.906
565.07,500.58
566.522,498.769
567.974,492.22
569.426,490.303
570.878,502.567
572.329,487.977
573.781,505.671
575.233,510.151
576.685,505.382
578.137,500.173
579.588,500.104
581.04,496.188
582.492,494.232
583.944,500.415
585.395,501.443
586.847,496.218
588.299,492.108
589.751,495.433
591.203,509.174
592.654,497.489
594.106,489.97
595.558,496.707
597.01,494.427
598.462,495.014
599.913,493.963
601.365,505.19
602.817,507.029
604.269,501.972
605.72,506.902
607.172,506.036
608.624,490.607
610.076,497.674
611.528,499.732
612.979,498.398
614.431,497.617
615.883,503.187
617.335,502.723
618.787,506.873
620.238,507.436
621.69,499.32
623.142,497.313
624.594,508.313
626.046,497.239
627.497,497.831
628.949,503.646
630.401,502.308
631.853,493.322
633.304,499.782
634.756,509.394
636.208,500.382
637.66,510.211
639.112,516.427
640.563,510.671
642.015,511.99
643.467,517.733
644.919,507.603
646.371,504.817
647.822,506.48
649.274,511.205
650.726,513.41
652.178,530.948
653.629,519.461
655.081,523.017
656.533,519.854
657.985,514.976
659.437,514.124
660.888,525.275
662.34,517.766
663.792,518.037
665.244,515.462
666.696,513.143
668.147,517.036
669.599,518.702
671.051,515.32
672.503,515.625
673.954,520.143
675.406,520.514
676.858,519.642
678.31,521.657
679.762,519.007
681.213,526.413
682.665,525.666
684.117,525.432
685.569,521.135
687.021,514.846
688.472,523.108
689.924,514.754
691.376,517.792
692.828,511.769
694.28,511.552
695.731,519.533
697.183,515.305
698.635,511.287
700.087,518.988
701.538,524.352
702.99,522.336
704.442,525.3
705.894,529.986
707.346,522.574
708.797,533.108
710.249,523.558
711.701,533.019
713.153,538.857
714.605,536.111
716.056,532.307
717.508,522.716
718.96,528.666
720.412,521.036
721.863,526.12
723.315,533.25
724.767,535.016
726.219,531.494
727.671,523.426
729.122,526.925
730.574,530.55
732.026,526.724
733.478,521.351
734.93,524.315
736.381,526.372
737.833,530.041
739.285,534.106
740.737,531.806
742.189,534.182
743.64,539.378
745.092,534.212
746.544,517.358
747.996,524.788
749.447,540.322
750.899,535.783
752.351,525.39
753.803,522.325
755.255,523.76
756.706,525.856
758.158,519.399
759.61,524.806
761.062,530.972
762.514,529.835
763.965,530.028
765.417,540.136
766.869,533.452
768.321,519.626
769.772,530.028
771.224,529.482
772.676,527.068
774.128,545.078
775.58,527.641
777.031,534.178
778.483,526.539
779.935,536.739
781.387,542.671
782.839,538.91
784.29,547.984
785.742,548.704
787.194,532.193
788.646,535.854
790.098,541.055
791.549,534.751
793.001,537.739
794.453,537.167
795.905,542.342
797.356,537.853
798.808,537.04
800.26,536.383
801.712,538.872
803.164,546.593
804.615,555.132
806.067,536.685
807.519,543.037
808.971,546.356
810.423,545.171
811.874,545.104
813.326,550.108
814.778,534.704
816.23,548.725
817.681,543.839
819.133,553.47
820.585,564.919
822.037,559.109
823.489,551.142
824.94,550.051
826.392,550.661
827.844,557.439
829.296,561.569
830.748,551.184
832.199,543.151
833.651,543.811
835.103,567.874
836.555,560.654
838.007,563.93
839.458,573.438
840.91,572.373
842.362,561.04
843.814,557.7
845.265,555.031
846.717,557.206
848.169,563.879
849.621,584.458
851.073,577.129
852.524,570.406
853.976,580.225
855.428,577.954
856.88,582.768
858.332,583.065
859.783,582.256
861.235,574.581
862.687,583.518
864.139,587.214
865.59,585.718
867.042,588.936
868.494,568.346
869.946,564.757
871.398,565.955
872.849,576.144
874.301,577.421
875.753,574.681
877.205,574.218
878.657,577.418
880.108,568.173
881.56,570.409
883.012,569.888
884.464,571.214
885.915,568.643
887.367,565.116
888.819,571.071
890.271,567.586
891.723,571.441
893.174,582.9
894.626,588.357
896.078,592.316
897.53,589.277
898.982,581.996
900.433,578.092
901.885,572.889
903.337,584.193
904.789,590.803
906.241,591.969
907.692,593.835
909.144,589.269
910.596,592.467
912.048,587.394
913.499,597.73
914.951,594.157
916.403,590.049
917.855,581.877
919.307,572.141
920.758,584.196
922.21,601.035
923.662,595.606
925.114,598.033
926.566,596.446
928.017,596.559
929.469,607.828
930.921,602.591
932.373,598.732
933.824,577.374
935.276,598.545
936.728,608.435
938.18,602.875
939.632,606.494
941.083,606.259
942.535,597.114
943.987,600.702
945.439,611.834
946.891,603.428
948.342,597.537
949.794,599.67
951.246,600.775
952.698,605.253
954.15,616.43
955.601,601.035
957.053,594.375
958.505,599.868
959.957,602.637
961.408,597.374
962.86,595.099
964.312,615.354
965.764,616.457
967.216,610.048
968.667,600.417
970.119,610.675
971.571,606.923
973.023,607.469
974.475,612.881
975.926,603.86
977.378,608.844
978.83,607.76
980.282,611.755
981.733,611.42
983.185,617.493
984.637,616.135
986.089,611.729
987.541,610.734
988.992,622.664
990.444,617.052
991.896,628.986
993.348,616.516
994.8,621.615
996.251,628.548
997.703,618.994
999.155,634.843
1000.61,622.181
1002.06,626.757
1003.51,630.721
1004.96,628.389
1006.41,623.347
1007.87,628.636
1009.32,636.833
1010.77,638.859
1012.22,644.074
1013.67,643.174
1015.12,637.154
1016.58,642.32
1018.03,636.661
1019.48,637.86
1020.93,651.627
1022.38,659.731
1023.84,665.986
1025.29,670.397
1026.74,664.125
1028.19,666.185
1029.64,674.941
1031.09,676.915
1032.55,668.006
1034,675.746
1035.45,683.19
1036.9,687.523
1038.35,697.775
1039.8,697.949
1041.26,700.681
1042.71,714.276
1044.16,719.257
1045.61,698.774
1047.06,701.837
1048.52,712.405
1049.97,720.308
1051.42,725.068
1052.87,733.404
1054.32,729.46
1055.77,732.227
1057.23,746.569
1058.68,753.925
1060.13,764.056
1061.58,756.537
1063.03,762.188
1064.49,774.776
1065.94,780.484
1067.39,767.456
1068.84,764.459
1070.29,791.019
1071.74,795.746
1073.2,797.607
1074.65,806.119
1076.1,813.893
1077.55,819.799
1079,812.547
1080.46,808.657
1081.91,814.706
1083.36,809.928
1084.81,839.931
1086.26,843.089
1087.71,849.361
1089.17,840.08
1090.62,813.434
1092.07,827.858
1093.52,844.361
1094.97,828.925
1096.42,821.97
1097.88,833.845
1099.33,815.953
1100.78,814.005
1102.23,818.198
1103.68,818.093
1105.14,807.099
1106.59,805.524
1108.04,809.252
1109.49,802.955
1110.94,805.331
1112.39,788.003
1113.85,794.009
1115.3,791.36
1116.75,790.138
1118.2,789.635
1119.65,781.557
1121.11,779.094
1122.56,772.754
1124.01,779.132
1125.46,779.423
1126.91,769.106
1128.36,771.085
1129.82,769.398
1131.27,760.414
1132.72,762.182
1134.17,749.806
1135.62,759.589
1137.07,749.087
1138.53,745.433
1139.98,758.286
1141.43,758.795
1142.88,743.022
1144.33,746.41
1145.79,756.338
1147.24,766.215
1148.69,751.041
1150.14,743.811
1151.59,753.54
1153.04,737.088
1154.5,738.24
1155.95,745.137
1157.4,751.477
1158.85,751.064
1160.3,748.803
1161.76,748.354
1163.21,744.001
1164.66,742.826
1166.11,735.78
1167.56,746.475
1169.01,749.459
1170.47,755.153
1171.92,758.714
1173.37,752.415
1174.82,767.623
1176.27,756.295
1177.72,756.227
1179.18,778.313
1180.63,759.446
1182.08,758.162
1183.53,768.312
1184.98,765.861
1186.44,763.907
1187.89,760.228
1189.34,762.046
1190.79,764.198
1192.24,754.092
1193.69,771.73
1195.15,779.82
1196.6,774.646
1198.05,765.75
1199.5,770.049
1200.95,783.251
1202.41,784.114
1203.86,779.839
1205.31,777.754
1206.76,798.594
1208.21,794.22
1209.66,784.864
1211.12,776.123
1212.57,785.317
1214.02,784.573
1215.47,772.127
1216.92,784.027
1218.37,790.789
1219.83,791.831
1221.28,795.033
1222.73,794.946
1224.18,792.228
1225.63,801.112
1227.09,804.227
1228.54,794.145
1229.99,785.54
1231.44,796.745
1232.89,785.727
1234.34,806.733
1235.8,804.674
1237.25,799.872
1238.7,788.655
1240.15,803.625
1241.6,822.696
1243.06,816.523
1244.51,815.289
1245.96,820.792
1247.41,846.34
1248.86,834.248
1250.31,821.189
1251.77,838.548
1253.22,847.916
1254.67,848.443
1256.12,844.255
1257.57,846.948
1259.02,859.871
1260.48,867.539
1261.93,890.308
1263.38,877.987
1264.83,891.102
1266.28,893.155
1267.74,908.839
1269.19,915.477
1270.64,919.28
1272.09,939.382
1273.54,963.993
1274.99,966.301
1276.45,963.503
1277.9,954.879
1279.35,978.56
1280.8,1007.2
1282.25,1011.76
1283.71,1020.5
1285.16,1022.48
1286.61,1029.81
1288.06,1056.98
1289.51,1076.37
1290.96,1078.15
1292.42,1107.03
1293.87,1146.34
1295.32,1155.61
1296.77,1194.06
1298.22,1227.5
1299.67,1249.92
1301.13,1266.72
1302.58,1302.44
1304.03,1347.85
1305.48,1372.88
1306.93,1409.93
1308.39,1463.88
1309.84,1513.57
1311.29,1563.33
1312.74,1626.66
1314.19,1710.08
1315.64,1780.31
1317.1,1843.01
1318.55,1906.45
1320,1968.24
1321.45,2046.19
1322.9,2149.33
1324.36,2199.31
1325.81,2280.27
1327.26,2348.69
1328.71,2419.49
1330.16,2474.57
1331.61,2516.18
1333.07,2550.93
1334.52,2599.13
1335.97,2625.72
1337.42,2586.32
1338.87,2588.54
1340.33,2546.69
1341.78,2502.61
1343.23,2464.08
1344.68,2396.63
1346.13,2347.69
1347.58,2281.62
1349.04,2183.86
1350.49,2092.93
1351.94,2010.93
1353.39,1911.81
1354.84,1835.04
1356.29,1796.19
1357.75,1720.83
1359.2,1654.43
1360.65,1609.76
1362.1,1532.1
1363.55,1467.41
1365.01,1424.17
1366.46,1383.84
1367.91,1345.94
1369.36,1319.1
1370.81,1291.9
1372.26,1265.29
1373.72,1241.85
1375.17,1221.62
1376.62,1174.4
1378.07,1164.15
1379.52,1142.64
1380.98,1132.2
1382.43,1127.41
1383.88,1108.39
1385.33,1082.89
1386.78,1083.06
1388.23,1085.65
1389.69,1061.36
1391.14,1054.97
1392.59,1081.21
1394.04,1085.04
1395.49,1049.79
1396.94,1048.12
1398.4,1033.15
1399.85,1034.78
1401.3,1039.67
1402.75,1029.17
1404.2,1025.08
1405.66,1023.08
1407.11,1036.18
1408.56,1048.03
1410.01,1038.32
1411.46,1042.62
1412.91,1020.02
1414.37,1035.08
1415.82,1037.38
1417.27,1030.18
1418.72,1024.25
1420.17,1025.7
1421.63,1035.7
1423.08,1029.9
1424.53,1041.96
1425.98,1026.54
1427.43,1033.43
1428.88,1031.49
1430.34,1057.2
1431.79,1062.64
1433.24,1059.43
1434.69,1066.04
1436.14,1074.28
1437.59,1088.12
1439.05,1083.12
1440.5,1083.74
1441.95,1101.97
1443.4,1112.72
1444.85,1112.09
1446.31,1090.12
1447.76,1107.73
1449.21,1119.05
1450.66,1131.87
1452.11,1128.23
1453.56,1126.73
1455.02,1136.84
1456.47,1154.43
1457.92,1166.98
1459.37,1181.61
1460.82,1176.73
1462.28,1182.03
1463.73,1228.91
1465.18,1239.62
1466.63,1245.52
1468.08,1241.26
1469.53,1248.01
1470.99,1255.83
1472.44,1265.78
1473.89,1294.93
1475.34,1320.02
1476.79,1325.49
1478.24,1345.52
1479.7,1345.83
1481.15,1393.11
1482.6,1390.87
1484.05,1418.7
1485.5,1436.04
1486.96,1441.34
1488.41,1464.87
1489.86,1496.24
1491.31,1510.12
1492.76,1540.43
1494.21,1570.69
1495.67,1602.39
1497.12,1621.54
1498.57,1659.38
1500.02,1682.19
1501.47,1736.44
1502.93,1747.7
1504.38,1799.12
1505.83,1852.02
1507.28,1919.77
1508.73,1971.43
1510.18,2029.71
1511.64,2088.26
1513.09,2156.89
1514.54,2244.23
1515.99,2324.32
1517.44,2405.52
1518.89,2466.33
1520.35,2565.68
1521.8,2663.62
1523.25,2811.74
1524.7,2942.86
1526.15,3143.62
1527.61,3286.4
1529.06,3510.79
1530.51,3745.64
1531.96,4011.61
1533.41,4318.33
1534.86,4611.76
1536.32,4966.87
1537.77,5411.36
1539.22,5899.26
1540.67,6453.79
1542.12,7025.3
1543.58,7663.26
1545.03,8347.82
1546.48,9096.21
1547.93,9918.43
1549.38,10784.3
1550.83,11698.3
1552.29,12683.1
1553.74,13666.6
1555.19,14602.7
1556.64,15557.6
1558.09,16554
1559.54,17431.1
1561,18329.2
1562.45,19062.3
1563.9,19597.9
1565.35,19909.6
1566.8,20082.7
1568.26,19921.7
1569.71,19590.9
1571.16,19151.6
1572.61,18464
1574.06,17573.4
1575.51,16509.7
1576.97,15434.9
1578.42,14342.9
1579.87,13269.5
1581.32,12206
1582.77,11171.8
1584.23,10234.8
1585.68,9262.66
1587.13,8431.2
1588.58,7749.81
1590.03,7077.36
1591.48,6474.88
1592.94,6013.82
1594.39,5623.67
1595.84,5219.27
1597.29,4899.73
1598.74,4588.64
1600.2,4317.32
1601.65,4126.02
1603.1,3933.29
1604.55,3727.69
1606,3571.59
1607.45,3407.57
1608.91,3240.87
1610.36,3084.87
1611.81,2914.64
1613.26,2841.88
1614.71,2703.86
1616.16,2593.96
1617.62,2461.08
1619.07,2356.4
1620.52,2277.04
1621.97,2176.53
1623.42,2080.24
1624.88,2024.71
1626.33,1961.56
1627.78,1888.03
1629.23,1801.22
1630.68,1747.14
1632.13,1717.73
1633.59,1683.26
1635.04,1630.35
1636.49,1592.01
1637.94,1558.82
1639.39,1528.45
1640.85,1502.46
1642.3,1497.54
1643.75,1459.17
1645.2,1418.54
1646.65,1402.38
1648.1,1379.21
1649.56,1339.62
1651.01,1320.72
1652.46,1308.45
1653.91,1281.36
1655.36,1261.22
1656.81,1252.7
1658.27,1244.68
1659.72,1238.22
1661.17,1219.21
1662.62,1186.87
1664.07,1180.02
1665.53,1159.85
1666.98,1160.78
1668.43,1159.79
1669.88,1128.18
1671.33,1114.24
1672.78,1104.74
1674.24,1092.09
1675.69,1086.48
1677.14,1068.64
1678.59,1066.71
1680.04,1064.15
1681.5,1059.41
1682.95,1042.55
1684.4,1034.71
1685.85,1019.44
1687.3,1026.3
1688.75,1006.52
1690.21,1005.75
1691.66,991.34
1693.11,991.061
1694.56,979.993
1696.01,972.678
1697.46,975.383
1698.92,971.525
1700.37,973.224
1701.82,973.28
1703.27,964.024
1704.72,958.533
1706.18,958.633
1707.63,961.151
1709.08,953.905
1710.53,943.023
1711.98,947.918
1713.43,952.199
1714.89,946.361
1716.34,930.652
1717.79,920.968
1719.24,913.474
1720.69,925.367
1722.15,924.058
1723.6,934.456
1725.05,920.304
1726.5,915.899
1727.95,915.416
1729.4,914.547
1730.86,930.026
1732.31,925.77
1733.76,918.102
1735.21,914.317
1736.66,913.864
1738.11,908.448
1739.57,912.072
1741.02,899.682
1742.47,902.095
1743.92,905.942
1745.37,898.962
1746.83,900.929
1748.28,895.196
1749.73,886.591
1751.18,903.882
1752.63,882.484
1754.08,860.38
1755.54,875.325
1756.99,888.49
1758.44,878.967
1759.89,856.148
1761.34,865.628
1762.8,875.145
1764.25,868.749
1765.7,862.594
1767.15,865.206
1768.6,853.654
1770.05,839.174
1771.51,845.012
1772.96,848.48
1774.41,840.483
1775.86,847.909
1777.31,840.942
1778.76,829.887
1780.22,837.76
1781.67,828.206
1783.12,821.362
1784.57,815.822
1786.02,802.484
1787.48,831.432
1788.93,797.787
1790.38,817.063
1791.83,810.834
1793.28,819.247
1794.73,805.58
1796.19,803.929
1797.64,808.923
1799.09,802.515
1800.54,797.365
1801.99,808.725
1803.45,807.23
1804.9,787.631
1806.35,786.378
1807.8,790.95
1809.25,786.986
1810.7,800.281
1812.16,798.06
1813.61,784.368
1815.06,783.76
1816.51,781.818
1817.96,775.657
1819.41,783.351
1820.87,795.355
1822.32,796.888
1823.77,799.89
1825.22,808.657
1826.67,806.56
1828.13,804.202
1829.58,824.148
1831.03,790.287
1832.48,786.217
1833.93,787.073
1835.38,793.736
1836.84,788.605
1838.29,807.037
1839.74,810.263
1841.19,813.316
1842.64,818.459
1844.1,808.923
1845.55,811.79
1847,819.998
1848.45,829.967
1849.9,848.431
1851.35,851.706
1852.81,841.892
1854.26,834.124
1855.71,836.482
1857.16,839.863
1858.61,838.144
1860.07,836.376
1861.52,845.428
1862.97,847.525
1864.42,843.145
1865.87,844.535
1867.32,846.482
1868.78,847.878
1870.23,843.505
1871.68,854.901
1873.13,836.066
1874.58,840.8
1876.03,832.852
1877.49,822.913
1878.94,819.793
1880.39,809.339
1881.84,810.338
1883.29,820.531
1884.75,832.269
1886.2,797.719
1887.65,810.468
1889.1,819.042
1890.55,805.778
1892,800.759
1893.46,800.846
1894.91,794.555
1896.36,785.131
1897.81,772.425
1899.26,761.183
1900.72,776.451
1902.17,782.29
1903.62,774.156
1905.07,773.579
1906.52,766.699
1907.97,768.417
1909.43,761.022
1910.88,766.358
1912.33,759.378
1913.78,757.374
1915.23,756.332
1916.68,748.993
1918.14,736.76
1919.59,742.947
1921.04,751.018
1922.49,752.344
1923.94,764.54
1925.4,756.884
1926.85,743.804
1928.3,724.328
1929.75,750.166
1931.2,748.43
1932.65,740.879
1934.11,753.342
1935.56,755.364
1937.01,747.203
1938.46,736.432
1939.91,726.515
1941.37,734.154
1942.82,749.034
1944.27,757.939
1945.72,759.347
1947.17,752.68
1948.62,755.966
1950.08,755.742
1951.53,743.87
1952.98,761.667
1954.43,758.144
1955.88,753.813
1957.33,755.482
1958.79,753.757
1960.24,753.522
1961.69,754.055
1963.14,761.041
1964.59,760.923
1966.05,751.113
1967.5,754.57
1968.95,768.976
1970.4,762.92
1971.85,753.875
1973.3,750.97
1974.76,748.536
1976.21,750.567
1977.66,767.48
1979.11,779.529
1980.56,776.799
1982.02,769.063
1983.47,769.162
1984.92,774.02
1986.37,769.571
1987.82,784.839
1989.27,780.85
1990.73,776.954
1992.18,783.307
1993.63,781.955
1995.08,773.871
1996.53,791.819
1997.98,784.771
1999.44,788.444
2000.89,786.018
2002.34,770.136
2003.79,797.371
2005.24,789.48
2006.7,775.459
2008.15,772.903
2009.6,768.442
2011.05,758.522
2012.5,768.696
2013.95,767.933
2015.41,738.009
2016.86,798.587
2018.31,760.526
2019.76,747.968
2021.21,768.473
2022.67,761.326
2024.12,755.296
2025.57,754.502
2027.02,765.998
2028.47,759.794
2029.92,797.831
2031.38,761.903
2032.83,751.236
2034.28,736.7
2035.73,738.13
2037.18,748.656
2038.63,726.844
2040.09,734.188
2041.54,739.274
2042.99,730.366
2044.44,726.751
2045.89,731.422
2047.35,723.221
2048.8,730.477
2050.25,717.244
2051.7,712.53
2053.15,712.189
2054.6,710.177
2056.06,711.052
2057.51,715.971
2058.96,714.588
2060.41,697.584
2061.86,699.408
2063.32,700.947
2064.77,719.196
2066.22,708.888
2067.67,703.292
2069.12,707.828
2070.57,704.894
2072.03,698.796
2073.48,695.162
2074.93,686.981
2076.38,687.52
2077.83,688.304
2079.28,690.987
2080.74,687.307
2082.19,691.738
2083.64,688.872
2085.09,684.728
2086.54,689.954
2088,694.498
2089.45,690.86
2090.9,689.011
2092.35,688.353
2093.8,685.095
2095.25,679.523
2096.71,682.459
2098.16,682.391
2099.61,683.01
2101.06,676.198
2102.51,678.038
2103.97,693.665
2105.42,703.095
2106.87,692.293
2108.32,689.793
2109.77,685.369
2111.22,680.102
2112.68,691.976
2114.13,703.591
2115.58,688.629
2117.03,687.995
2118.48,708.558
2119.94,709.185
2121.39,700.019
2122.84,693.919
2124.29,697.044
2125.74,705.466
2127.19,707.601
2128.65,686.947
2130.1,695.388
2131.55,713.459
2133,701.662
2134.45,695.641
2135.9,705.291
2137.36,696.454
2138.81,691.445
2140.26,701.336
2141.71,714.48
2143.16,700.912
2144.62,708.18
2146.07,708.611
2147.52,705.795
2148.97,713.444
2150.42,711.02
2151.87,717.31
2153.33,725.156
2154.78,716.068
2156.23,713.405
2157.68,715.497
2159.13,720.903
2160.58,722.4
2162.04,724
2163.49,714.86
2164.94,711.693
2166.39,717.934
2167.84,727.671
2169.3,722.852
2170.75,715.904
2172.2,713.76
2173.65,730.443
2175.1,727.281
2176.55,721.631
2178.01,730.289
2179.46,732.09
2180.91,721.434
2182.36,722.27
2183.81,726.215
2185.27,725.04
2186.72,747.688
2188.17,753.16
2189.62,752.235
2191.07,746.714
2192.52,729.13
2193.98,739.202
2195.43,723.363
2196.88,731.308
2198.33,753.863
2199.78,750.002
2201.24,767.828
2202.69,746.394
2204.14,743.301
2205.59,747.533
2207.04,756.381
2208.49,735.274
2209.95,740.811
2211.4,754.613
2212.85,735.433
2214.3,746.67
2215.75,720.296
2217.2,735.131
2218.66,745.79
2220.11,738.111
2221.56,751.6
2223.01,752.655
2224.46,747.878
2225.92,728.651
2227.37,728.653
2228.82,731.727
2230.27,754.675
2231.72,756.847
2233.17,743.498
2234.63,760.637
2236.08,755.531
2237.53,742.068
2238.98,755.196
2240.43,757.666
2241.89,764.949
2243.34,761.419
2244.79,760.991
2246.24,771.042
2247.69,773.374
2249.14,768.455
2250.6,765.688
2252.05,762.157
2253.5,766.631
2254.95,764.137
2256.4,757.809
2257.85,774.361
2259.31,785.478
2260.76,770.558
2262.21,773.269
2263.66,770.75
2265.11,773.48
2266.57,783.077
2268.02,779.678
2269.47,775.626
2270.92,773.827
2272.37,767.822
2273.82,787.867
2275.28,779.281
2276.73,774.218
2278.18,777.066
2279.63,777.916
2281.08,788.264
2282.54,795.454
2283.99,789.666
2285.44,810.859
2286.89,805.474
2288.34,803.278
2289.79,808.191
2291.25,811.889
2292.7,805.592
2294.15,798.259
2295.6,809.252
2297.05,803.513
2298.5,814.191
2299.96,822.033
2301.41,830.855
2302.86,813.279
2304.31,800.784
2305.76,841.501
2307.22,844.981
2308.67,827.12
2310.12,822.25
2311.57,820.165
2313.02,845.564
2314.47,858.605
2315.93,837.096
2317.38,838.089
2318.83,848.456
2320.28,824.477
2321.73,830.185
2323.19,846.104
2324.64,858.711
2326.09,861.813
2327.54,864.437
2328.99,857.085
2330.44,860.293
2331.9,865.833
2333.35,865.343
2334.8,873.886
2336.25,876.584
2337.7,878.836
2339.16,876.547
2340.61,876.671
2342.06,891.393
2343.51,897.61
2344.96,896.32
2346.41,906.246
2347.87,894.092
2349.32,899.794
2350.77,923.909
2352.22,927.792
2353.67,930.628
2355.12,932.309
2356.58,934.121
2358.03,927.575
2359.48,945.089
2360.93,926.198
2362.38,939.834
2363.84,951.182
2365.29,953.483
2366.74,951.845
2368.19,965.209
2369.64,984.33
2371.09,999.834
2372.55,1016.34
2374,1017.4
2375.45,1037.38
2376.9,1037.13
2378.35,1044.94
2379.8,1069.63
2381.26,1067.43
2382.71,1075.35
2384.16,1077.17
2385.61,1092.66
2387.06,1107.24
2388.52,1102.71
2389.97,1140.76
2391.42,1159.16
2392.87,1179.09
2394.32,1194.99
2395.77,1228.46
2397.23,1212.91
2398.68,1220.73
2400.13,1257.55
2401.58,1285.86
2403.03,1313.22
2404.49,1318.68
2405.94,1340.17
2407.39,1372.35
2408.84,1386.38
2410.29,1405.02
2411.74,1419.17
2413.2,1436.81
2414.65,1448.29
2416.1,1491.23
2417.55,1518.24
2419,1516.93
2420.46,1519.17
2421.91,1525.9
2423.36,1506.1
2424.81,1519.47
2426.26,1561.87
2427.71,1554.75
2429.17,1558.8
2430.62,1593.11
2432.07,1574.43
2433.52,1578.02
2434.97,1537.87
2436.42,1550.56
2437.88,1567.69
2439.33,1550.66
2440.78,1545.78
2442.23,1527.45
2443.68,1512.5
2445.14,1525.69
2446.59,1506.06
2448.04,1513.69
2449.49,1512.5
2450.94,1496.24
2452.39,1472.6
2453.85,1468.62
2455.3,1456.59
2456.75,1449.91
2458.2,1439.53
2459.65,1432.96
2461.1,1422.69
2462.56,1408.75
2464.01,1416.56
2465.46,1403.26
2466.91,1375.34
2468.36,1386.04
2469.82,1359.41
2471.27,1398.46
2472.72,1392.07
2474.17,1366.24
2475.62,1354.51
2477.07,1341.17
2478.53,1336.27
2479.98,1324.75
2481.43,1330.1
2482.88,1355.81
2484.33,1357.12
2485.79,1358.86
2487.24,1334.45
2488.69,1334.03
2490.14,1330.59
2491.59,1346.41
2493.04,1343.56
2494.5,1342.41
2495.95,1329.73
2497.4,1347.15
2498.85,1334.11
2500.3,1355.89
2501.76,1365.28
2503.21,1359.67
2504.66,1379
2506.11,1366.11
2507.56,1355.09
2509.01,1347.04
2510.47,1391.43
2511.92,1379.58
2513.37,1380.04
2514.82,1406.33
2516.27,1412.43
2517.72,1422.2
2519.18,1417.63
2520.63,1405.54
2522.08,1423.84
2523.53,1441.75
2524.98,1452.4
2526.44,1436.8
2527.89,1454.87
2529.34,1478.32
2530.79,1502.17
2532.24,1510.57
2533.69,1514.58
2535.15,1534.84
2536.6,1528.86
2538.05,1588.58
2539.5,1572.1
2540.95,1587.66
2542.41,1605.44
2543.86,1627.59
2545.31,1645.6
2546.76,1661.55
2548.21,1651.07
2549.66,1680.53
2551.12,1707.64
2552.57,1755.33
2554.02,1782.21
2555.47,1785.5
2556.92,1801.79
2558.37,1825.2
2559.83,1860.9
2561.28,1878.7
2562.73,1897.56
2564.18,1964.96
2565.63,2007.4
2567.09,2020.95
2568.54,2051.23
2569.99,2084.74
2571.44,2128.36
2572.89,2154.49
2574.34,2199.22
2575.8,2207.26
2577.25,2312.79
2578.7,2382.49
2580.15,2418.01
2581.6,2457.43
2583.06,2503.84
2584.51,2556.74
2585.96,2633.9
2587.41,2728.76
2588.86,2792.16
2590.31,2852.78
2591.77,2910.64
2593.22,3018.27
2594.67,3095.71
2596.12,3187.55
2597.57,3309.24
2599.02,3404.41
2600.48,3503.28
2601.93,3614.91
2603.38,3727.25
2604.83,3883.15
2606.28,4003.47
2607.74,4171.65
2609.19,4282.58
2610.64,4453.36
2612.09,4576.97
2613.54,4773.12
2614.99,4966.92
2616.45,5163.51
2617.9,5374.46
2619.35,5589.1
2620.8,5791.23
2622.25,6034.34
2623.71,6270.26
2625.16,6543.93
2626.61,6789.86
2628.06,7033.49
2629.51,7374.34
2630.96,7619.53
2632.42,7963.23
2633.87,8235.65
2635.32,8539.27
2636.77,8833.71
2638.22,9167.74
2639.68,9450.64
2641.13,9685.65
2642.58,9962.79
2644.03,10275.5
2645.48,10536
2646.93,10848.5
2648.39,11001.2
2649.84,11292.7
2651.29,11493.6
2652.74,11648.5
2654.19,11785.8
2655.64,11992.3
2657.1,12060.1
2658.55,12141.1
2660,12217
2661.45,12195.4
2662.9,12113.3
2664.36,12047.8
2665.81,11977.9
2667.26,11817.4
2668.71,11736.3
2670.16,11611.7
2671.61,11446.5
2673.07,11173.3
2674.52,10934.9
2675.97,10586.9
2677.42,10356.7
2678.87,10064.5
2680.32,9812.15
2681.78,9480.11
2683.23,9147.76
2684.68,8826.33
2686.13,8530.59
2687.58,8189.3
2689.04,7935.68
2690.49,7600.17
2691.94,7318.32
2693.39,7008.18
2694.84,6707.16
2696.29,6432.94
2697.75,6154.96
2699.2,5936.12
2700.65,5681.87
2702.1,5417.15
2703.55,5187.99
2705.01,4951.23
2706.46,4787.12
2707.91,4568.93
2709.36,4395.83
2710.81,4204.14
2712.26,4011.25
2713.72,3888.85
2715.17,3753.43
2716.62,3602.46
2718.07,3440.22
2719.52,3338.87
2720.98,3232.61
2722.43,3097.56
2723.88,3000.59
2725.33,2914.15
2726.78,2804.37
2728.23,2703.59
2729.69,2662.63
2731.14,2559.21
2732.59,2478.99
2734.04,2426.26
2735.49,2360.25
2736.94,2286.66
2738.4,2231.04
2739.85,2173.16
2741.3,2096.31
2742.75,2073.33
2744.2,2058.66
2745.66,1967.08
2747.11,1924.87
2748.56,1891.91
2750.01,1867.85
2751.46,1839.68
2752.91,1816.17
2754.37,1765.25
2755.82,1738.06
2757.27,1703.44
2758.72,1680.64
2760.17,1618.91
2761.63,1617.31
2763.08,1600.62
2764.53,1556.14
2765.98,1559.66
2767.43,1535.89
2768.88,1487.42
2770.34,1490.29
2771.79,1459.12
2773.24,1434.77
2774.69,1416.64
2776.14,1404.63
2777.59,1420.03
2779.05,1375.05
2780.5,1363.23
2781.95,1356.58
2783.4,1362.83
2784.85,1348.34
2786.31,1321.21
2787.76,1301.49
2789.21,1300.68
2790.66,1282.95
2792.11,1268.41
2793.56,1247.09
2795.02,1245.02
2796.47,1240.93
2797.92,1239.33
2799.37,1223.71
2800.82,1224.15
2802.28,1221.59
2803.73,1194.66
2805.18,1187.2
2806.63,1188.78
2808.08,1173.96
2809.53,1151.43
2810.99,1158.19
2812.44,1155.95
2813.89,1126.97
2815.34,1131.02
2816.79,1116.77
2818.24,1126.67
2819.7,1125.58
2821.15,1116.75
2822.6,1102.95
2824.05,1097.01
2825.5,1093.84
2826.96,1103.53
2828.41,1090.08
2829.86,1099.11
2831.31,1066.96
2832.76,1056.04
2834.21,1067.82
2835.67,1074.02
2837.12,1071.99
2838.57,1070.99
2840.02,1044.69
2841.47,1060.65
2842.93,1026.86
2844.38,1039.7
2845.83,1031.3
2847.28,1020.98
2848.73,1015.41
2850.18,1029.76
2851.64,1026.24
2853.09,1031.05
2854.54,1025.69
2855.99,1017.63
2857.44,1004.35
2858.9,1025.46
2860.35,1012.37
2861.8,1004.93
2863.25,1019.69
2864.7,1006.32
2866.15,1009.54
2867.61,1018.02
2869.06,1025.75
2870.51,1019.83
2871.96,1058.06
2873.41,1029.66
2874.86,1029.64
2876.32,1006.49
2877.77,1016.87
2879.22,1010.14
2880.67,1021.8
2882.12,1036.77
2883.58,1034.48
2885.03,1031.73
2886.48,1025.74
2887.93,1001.01
2889.38,1015.93
2890.83,1007.88
2892.29,1039.11
2893.74,1025.23
2895.19,1011.48
2896.64,1008.13
2898.09,1008.33
2899.54,1011.5
2901,1001.37
2902.45,1002.17
2903.9,1039.46
2905.35,1003.32
2906.8,1020.88
2908.26,1021.76
2909.71,1017.88
2911.16,1003.26
2912.61,995.019
2914.06,983.486
2915.51,991.185
2916.97,980.799
2918.42,990.956
2919.87,984.615
2921.32,987.897
2922.77,974.372
2924.23,967.492
2925.68,957.206
2927.13,958.192
2928.58,974.627
2930.03,953.173
2931.48,952.398
2932.94,928.022
2934.39,938.78
2935.84,931.93
2937.29,925.938
2938.74,911.464
2940.2,915.974
2941.65,898.336
2943.1,875.97
2944.55,880.115
2946,883.856
2947.45,858.686
2948.91,847.692
2950.36,855.64
2951.81,863.395
2953.26,836.693
2954.71,842.741
2956.16,852.153
2957.62,836.953
2959.07,823.49
2960.52,828.987
2961.97,813.471
2963.42,811.957
2964.88,789.058
2966.33,791.192
2967.78,806.144
2969.23,795.448
2970.68,787.271
2972.13,790.944
2973.59,774.597
2975.04,770.707
2976.49,778.561
2977.94,773.877
2979.39,767.921
2980.84,764.434
2982.3,766.271
2983.75,753.677
2985.2,750.388
2986.65,738.364
2988.1,752.81
2989.56,753.354
2991.01,751.042
2992.46,755.587
2993.91,746.869
2995.36,739.572
2996.81,730.356
2998.27,734.106
2999.72,736.882
3001.17,723.218
3002.62,721.174
3004.07,716.418
3005.53,736.369
3006.98,730.35
3008.43,721.733
3009.88,722.882
3011.33,719.926
3012.78,722.251
3014.24,722.13
3015.69,700.128
3017.14,714.465
3018.59,709.387
3020.04,703.951
3021.5,714.56
3022.95,709.404
3024.4,707.966
3025.85,715.762
3027.3,713.67
3028.75,701.521
3030.21,729.043
3031.66,698.201
3033.11,710.729
3034.56,717.02
3036.01,703.68
3037.46,704.738
3038.92,708.214
3040.37,698.471
3041.82,707.04
3043.27,715.74
3044.72,694.927
3046.18,702.042
3047.63,706.061
3049.08,708.791
3050.53,710.539
3051.98,709.752
3053.43,706.381
3054.89,706.192
3056.34,707.678
3057.79,708.475
3059.24,719.782
3060.69,716.634
3062.15,714.708
3063.6,713.463
3065.05,717.479
3066.5,725.488
3067.95,718.986
3069.4,709.886
3070.86,716.81
3072.31,720.819
3073.76,721.45
3075.21,740.206
3076.66,720.468
3078.11,743.448
3079.57,742
3081.02,742.458
3082.47,742.269
3083.92,751.326
3085.37,753.571
3086.83,766.569
3088.28,756.642
3089.73,758.764
3091.18,759.006
3092.63,775.347
3094.08,792.706
3095.54,790.218
3096.99,794.319
3098.44,818.757
3099.89,811.349
3101.34,811.194
3102.8,840.278
3104.25,857.352
3105.7,866.739
3107.15,879.786
3108.6,875.17
3110.05,880.071
3111.51,890.643
3112.96,901.729
3114.41,937.669
3115.86,932.036
3117.31,938.643
3118.76,926.558
3120.22,957.001
3121.67,971.711
3123.12,971.028
3124.57,987.388
3126.02,1010.05
3127.48,1005.43
3128.93,1055.63
3130.38,1044.3
3131.83,1037.18
3133.28,1043.72
3134.73,1063.02
3136.19,1053.55
3137.64,1058.56
3139.09,1047.33
3140.54,1078
3141.99,1082.77
3143.45,1089.08
3144.9,1078.3
3146.35,1088.86
3147.8,1097.94
3149.25,1115.22
3150.7,1101.72
3152.16,1129.93
3153.61,1121.79
3155.06,1101.55
3156.51,1109.79
3157.96,1114.94
3159.42,1128.11
3160.87,1097.49
3162.32,1121.58
3163.77,1126.41
3165.22,1124.26
3166.67,1139.46
3168.13,1141.51
3169.58,1123.67
3171.03,1114.21
3172.48,1136.06
3173.93,1134.08
3175.38,1153.95
3176.84,1175.56
3178.29,1174.46
3179.74,1196.58
3181.19,1198.31
3182.64,1210.61
3184.1,1241.09
3185.55,1223.25
3187,1245.25
3188.45,1252.54
3189.9,1248.59
3191.35,1278.16
3192.81,1270.09
3194.26,1271.14
3195.71,1289.75
3197.16,1290.86
3198.61,1279.02
3200.06,1313.92
3201.52,1308.56
3202.97,1311.49
3204.42,1285.7
3205.87,1297.94
3207.32,1303.37
3208.78,1282.88
3210.23,1299.96
3211.68,1248.73
3213.13,1216.69
3214.58,1208.76
3216.03,1186.15
3217.49,1179.29
3218.94,1155.15
3220.39,1134.27
3221.84,1108.67
3223.29,1091.34
3224.75,1048.24
3226.2,1028.37
3227.65,1018.93
3229.1,992.327
3230.55,965.128
3232,948.923
3233.46,922.463
3234.91,899.775
3236.36,884.817
3237.81,886.666
3239.26,840.198
3240.72,810.45
3242.17,804.277
3243.62,804.053
3245.07,785.509
3246.52,765.359
3247.97,740.569
3249.43,758.702
3250.88,721.171
3252.33,705.149
3253.78,700.551
3255.23,692.716
3256.68,680.803
3258.14,702.78
3259.59,682.216
3261.04,672.116
3262.49,660.045
3263.94,659.374
3265.4,648.531
3266.85,632.474
3268.3,651.221
3269.75,649.856
3271.2,634.188
3272.65,638.908
3274.11,630.447
3275.56,627.91
3277.01,624.865
3278.46,621.848
3279.91,613.543
3281.37,614.32
3282.82,622.927
3284.27,626.953
3285.72,598.33
3287.17,610.197
3288.62,607.113
3290.08,603.152
3291.53,597.737
3292.98,587.488
3294.43,605.85
3295.88,594.468
3297.33,600.693
3298.79,600.057
3300.24,611
3301.69,600.009
3303.14,600.481
3304.59,591.482
3306.05,625.181
3307.5,600.548
3308.95,595.506
3310.4,597.44
3311.85,590.515
3313.3,590.187
3314.76,586.45
3316.21,595.823
3317.66,592.361
3319.11,582.364
3320.56,591.252
3322.02,584.217
3323.47,587.474
3324.92,591.37
3326.37,594.821
3327.82,594.576
3329.27,590.596
3330.73,586.879
3332.18,591.031
3333.63,596.4
3335.08,575.482
3336.53,572.664
3337.98,595.331
3339.44,579.298
3340.89,579.957
3342.34,584.48
3343.79,590.232
3345.24,584.341
3346.7,581.151
3348.15,576.677
3349.6,580.891
3351.05,583.282
3352.5,568.778
3353.95,585.721
3355.41,576.15
3356.86,559.775
3358.31,571.65
3359.76,588.542
3361.21,579.988
3362.67,584.302
3364.12,574.004
3365.57,577.849
3367.02,581.506
3368.47,571.08
3369.92,578.496
3371.38,585.32
3372.83,578.626
3374.28,558.934
3375.73,565.324
3377.18,577.73
3378.63,581.45
3380.09,585.904
3381.54,564.844
3382.99,564.495
3384.44,564.314
3385.89,560.508
3387.35,572.94
3388.8,562.662
3390.25,568.481
3391.7,561.902
3393.15,559.65
3394.6,566.273
3396.06,571.664
3397.51,574.537
3398.96,579.931
3400.41,566.511
3401.86,563.965
3403.32,569.748
3404.77,573.234
3406.22,584.045
3407.67,561.28
3409.12,567.299
3410.57,562.388
3412.03,558.287
3413.48,549.195
3414.93,573.561
3416.38,571.834
3417.83,563.901
3419.28,562.444
3420.74,583.077
3422.19,560.558
3423.64,575.699
3425.09,567.295
3426.54,558.979
3428,546.048
3429.45,566.948
3430.9,570.171
3432.35,573.755
3433.8,574.207
3435.25,554.588
3436.71,557.164
3438.16,557.139
3439.61,572.445
3441.06,569.399
3442.51,557.203
3443.97,552.054
3445.42,547.14
3446.87,567.591
3448.32,554.746
3449.77,550.955
3451.22,554.226
3452.68,574.357
3454.13,546.229
3455.58,548.284
3457.03,569.78
3458.48,558.647
3459.94,559.668
3461.39,550.309
3462.84,558.479
3464.29,562.026
3465.74,560.141
3467.19,560.353
3468.65,544.204
3470.1,565.071
3471.55,558.291
3473,546.339
3474.45,536.111
3475.9,560.731
3477.36,570.631
3478.81,573.636
3480.26,567.157
3481.71,547.584
3483.16,558.705
3484.62,538.742
3486.07,564.098
3487.52,552.218
3488.97,542.514
3490.42,555.587
3491.87,558.947
3493.33,564.78
3494.78,555.019
3496.23,555.103
3497.68,556.748
3499.13,555.964
3500.58,562.177
3502.04,571.273
3503.49,555.068
3504.94,544.814
3506.39,539.857
3507.84,560.13
3509.3,574.885
3510.75,576.757
3512.2,553.417
3513.65,554.703
3515.1,562.962
3516.55,556.85
3518.01,563.832
3519.46,559.211
3520.91,556.48
3522.36,555.268
3523.81,557.658
3525.27,558.267
3526.72,548.637
3528.17,561.59
3529.62,552.729
3531.07,560.117
3532.52,565.368
3533.98,562.05
3535.43,568.2
3536.88,560.75
3538.33,543.631
3539.78,557.556
3541.24,561.285
3542.69,550.144
3544.14,562.193
3545.59,564.739
3547.04,555.784
3548.49,550.931
3549.95,560.157
3551.4,551.576
3552.85,544.864
3554.3,547.15
3555.75,563.147
3557.2,567.85
3558.66,552.368
3560.11,549.092
3561.56,553.654
3563.01,554.47
3564.46,557.093
3565.92,557.028
3567.37,553.412
3568.82,555.151
3570.27,555.968
3571.72,545.75
3573.17,550.41
3574.63,559.032
3576.08,556.758
3577.53,567.085
3578.98,537.982
3580.43,549.48
3581.89,546.445
3583.34,547.628
3584.79,541.48
3586.24,560.705
3587.69,547.648
3589.14,559.149
3590.6,560.088
3592.05,548.884
3593.5,549.956
3594.95,546.416
3596.4,541.586
3597.85,542.026
3599.31,556.732
3600.76,558.667
3602.21,544.262
3603.66,557.902
3605.11,532.842
3606.57,557.224
3608.02,555.65
3609.47,551.726
3610.92,554.978
3612.37,567.537
3613.82,550.011
3615.28,552.471
3616.73,543.09
3618.18,567.77
3619.63,542.093
3621.08,560.145
3622.54,555.279
3623.99,559.372
3625.44,563.068
3626.89,557.813
3628.34,545.118
3629.79,548.216
3631.25,549.803
3632.7,554.51
3634.15,549.663
3635.6,546.774
3637.05,542.601
3638.5,554.037
3639.96,549.707
3641.41,555.493
3642.86,552.142
3644.31,544.536
3645.76,554.928
3647.22,549.812
3648.67,549.9
3650.12,542.748
3651.57,545.762
3653.02,538.303
3654.47,553.694
3655.93,571.102
3657.38,554.627
3658.83,559.335
3660.28,554.156
3661.73,554.013
3663.19,546.573
3664.64,559.269
3666.09,537.592
3667.54,551.807
3668.99,554.424
3670.44,565.054
3671.9,553.78
3673.35,548.859
3674.8,567.041
3676.25,560.933
3677.7,541.51
3679.16,553.644
3680.61,554.159
3682.06,564.641
3683.51,554.418
3684.96,558.483
3686.41,558.304
3687.87,553.258
3689.32,560.266
3690.77,544.185
3692.22,561.925
3693.67,549.948
3695.12,553.354
3696.58,557.183
3698.03,561.407
3699.48,561.712
3700.93,561.325
3702.38,553.455
3703.84,566.317
3705.29,557.678
3706.74,546.565
3708.19,558.046
3709.64,577.976
3711.09,567.187
3712.55,562.726
3714,552.111
3715.45,555.241
3716.9,559.052
3718.35,563.536
3719.8,568.359
3721.26,558.854
3722.71,549.564
3724.16,558.667
3725.61,565.732
3727.06,565.492
3728.52,558.274
3729.97,555.81
3731.42,565.402
3732.87,562.566
3734.32,559.119
3735.77,574.116
3737.23,571.767
3738.68,563.681
3740.13,548.117
3741.58,569.339
3743.03,552.707
3744.49,555.692
3745.94,576.483
3747.39,564.375
3748.84,568.777
3750.29,574.36
3751.74,560.48
3753.2,561.241
3754.65,561.201
3756.1,550.737
3757.55,564.085
3759,558.492
3760.46,567.291
3761.91,571.147
3763.36,573.583
3764.81,574.978
3766.26,577.693
3767.71,555.956
3769.17,563.233
3770.62,573.179
3772.07,551.793
3773.52,557.621
3774.97,566.486
3776.42,555.338
3777.88,564.353
3779.33,565.774
3780.78,576.349
3782.23,577.205
3783.68,578.404
3785.14,588.194
3786.59,566.974
3788.04,562.424
3789.49,556.1
3790.94,574.771
3792.39,575.111
3793.85,570.49
3795.3,577.781
3796.75,580.463
3798.2,576.189
3799.65,572.015
3801.1,573.506
3802.56,547.58
3804.01,579.754
3805.46,572.711
3806.91,570.73
3808.36,585.266
3809.82,580.788
3811.27,571.606
3812.72,569.127
3814.17,571.233
3815.62,588.245
3817.07,582.826
3818.53,582.338
3819.98,602.452
3821.43,567.256
3822.88,568.132
3824.33,568.554
3825.79,581.53
3827.24,607.156
3828.69,605.206
3830.14,572.365
3831.59,590.047
3833.04,573.432
3834.5,578.536
3835.95,581.347
3837.4,587.539
3838.85,581.651
3840.3,580.645
3841.76,609.84
3843.21,561.967
3844.66,578.204
3846.11,578.932
3847.56,568.39
3849.01,606.079
3850.47,567.22
3851.92,585.758
3853.37,565.003
3854.82,572.788
3856.27,590.384
3857.72,590.933
3859.18,598.202
3860.63,596.287
3862.08,573.666
3863.53,590.758
3864.98,597.346
3866.44,613.442
3867.89,587.901
3869.34,582.46
3870.79,594.275
3872.24,596.553
3873.69,589.58
3875.15,596.454
3876.6,579.944
3878.05,586.896
3879.5,602.543
3880.95,585.115
3882.41,593.145
3883.86,602.099
3885.31,592.076
3886.76,589.464
3888.21,597.826
3889.66,599.722
3891.12,595.604
3892.57,614.337
3894.02,612.48
3895.47,616.257
3896.92,608.566
3898.37,608.091
3899.83,604.243
3901.28,597.136
3902.73,611.093
3904.18,604.603
3905.63,617.703
3907.09,611.671
3908.54,613.237
3909.99,626.603
3911.44,619.096
3912.89,620.719
3914.34,619.817
3915.8,601.978
3917.25,614.567
3918.7,637.526
3920.15,630.37
3921.6,646.439
3923.06,630.717
3924.51,612.176
3925.96,639.267
3927.41,634.858
3928.86,628.262
3930.31,657.038
3931.77,642.355
3933.22,644.989
3934.67,647.188
3936.12,644.695
3937.57,647.568
3939.02,649.899
3940.48,644.499
3941.93,637.923
3943.38,642.845
3944.83,650.857
3946.28,648.122
3947.74,650.366
3949.19,648.446
3950.64,653.879
3952.09,642.363
3953.54,637.15
3954.99,658.499
3956.45,654.674
3957.9,648.993
3959.35,680.46
3960.8,657.453
3962.25,665.467
3963.71,657.006
3965.16,659.676
3966.61,667.871
3968.06,666.638
3969.51,671.373
3970.96,661.386
3972.42,669.863
3973.87,671.801
3975.32,678.124
3976.77,672.058
3978.22,677.893
3979.68,676.191
3981.13,673.375
3982.58,690.104
3984.03,681.261
3985.48,699.088
3986.93,675.455
3988.39,692.359
3989.84,710.669
3991.29,692.447
3992.74,689.88
3994.19,684.141
3995.64,699.446
3997.1,699.637
3998.55,704.694
4000,703.042
