-20,102.004
-18.5482,104.649
-17.0964,102.535
-15.6446,100.357
-14.1928,103.638
-12.7411,106.324
-11.2893,107.584
-9.83749,108.718
-8.3857,113.172
-6.93391,120.815
-5.48212,188.611
-4.03034,118.402
-2.57855,118.402
-1.12676,118.402
0.325027,118.402
1.77681,118.402
3.2286,118.402
4.68039,118.402
6.13218,118.402
7.58397,118.402
9.03575,130.457
10.4875,125.01
11.9393,125.774
13.3911,127.617
14.8429,127.158
16.2947,125.21
17.7465,123.012
19.1983,117.706
20.6501,113.709
22.1018,110.95
23.5536,108.745
25.0054,106.512
26.4572,104.946
27.909,103.685
29.3608,102.828
30.8126,101.453
32.2644,101.276
33.7161,100.247
35.1679,99.8239
36.6197,100.239
38.0715,101.639
39.5233,101.671
40.9751,102.162
42.4269,103.446
43.8787,104.707
45.3304,107.728
46.7822,110.686
48.234,119.413
49.6858,138.716
51.1376,171.084
52.5894,223.233
54.0412,302.085
55.493,409.911
56.9447,540.191
58.3965,678.435
59.8483,815.023
61.3001,909.145
62.7519,981.18
64.2037,1046.79
65.6555,1078.62
67.1073,1110.54
68.559,1128.51
70.0108,1142.45
71.4626,1174.73
72.9144,1195.92
74.3662,1209.47
75.818,1223.04
77.2698,1245.32
78.7216,1290.89
80.1733,1324.65
81.6251,1355.53
83.0769,1371.62
84.5287,1379.37
85.9805,1387.72
87.4323,1364.55
88.8841,1327.29
90.3359,1292.04
91.7877,1247.36
93.2394,1201.48
94.6912,1142.97
96.143,1101.16
97.5948,1065.24
99.0466,1010.3
100.498,991.103
101.95,952.326
103.402,922.907
104.854,904.189
106.306,895.153
107.757,886.042
109.209,880.429
110.661,869.477
112.113,852.817
113.564,845.209
115.016,838.992
116.468,824.854
117.92,812.104
119.372,803.622
120.823,791.162
122.275,768.114
123.727,748.851
125.179,731.649
126.631,724.653
128.082,725.032
129.534,700.301
130.986,688.971
132.438,683.549
133.889,669.737
135.341,660.038
136.793,655.466
138.245,644.498
139.697,635.416
141.148,622.832
142.6,620.404
144.052,607.92
145.504,596.14
146.956,589.977
148.407,587.066
149.859,587.587
151.311,574.22
152.763,563.46
154.215,562.727
155.666,562.893
157.118,552.937
158.57,568.369
160.022,572.587
161.473,569.544
162.925,572.658
164.377,591.842
165.829,598.605
167.281,603.248
168.732,609.786
170.184,601.116
171.636,578.342
173.088,560.886
174.54,544.351
175.991,524.146
177.443,518.491
178.895,513.69
180.347,514.844
181.798,508.61
183.25,501.439
184.702,497.775
186.154,497.165
187.606,493.185
189.057,488.64
190.509,484.637
191.961,479.886
193.413,492.215
194.865,489.374
196.316,484.106
197.768,478.439
199.22,484.642
200.672,478.214
202.124,479.028
203.575,480.675
205.027,471.573
206.479,474.225
207.931,476.082
209.382,480.726
210.834,478.879
212.286,470.109
213.738,468.485
215.19,477.011
216.641,476.821
218.093,476.948
219.545,475.349
220.997,466.95
222.449,465.009
223.9,462.548
225.352,466.965
226.804,469.689
228.256,463.558
229.707,461.386
231.159,465.608
232.611,469.06
234.063,470.242
235.515,477.461
236.966,464.787
238.418,465.869
239.87,470.883
241.322,468.098
242.774,460.925
244.225,458.255
245.677,460.528
247.129,460.291
248.581,458.85
250.033,448.271
251.484,456.434
252.936,453.466
254.388,448.532
255.84,447.703
257.291,459.43
258.743,458.44
260.195,446.882
261.647,448.948
263.099,449.71
264.55,435.314
266.002,432.089
267.454,438.755
268.906,441.421
270.358,438.657
271.809,439.503
273.261,441.14
274.713,433.826
276.165,436.153
277.616,433.884
279.068,422.485
280.52,420.56
281.972,429.678
283.424,424.818
284.875,420.645
286.327,418.545
287.779,422.432
289.231,423.378
290.683,417.461
292.134,410.86
293.586,407.615
295.038,413.852
296.49,408.504
297.941,401.328
299.393,407.981
300.845,407.58
302.297,391.073
303.749,391.508
305.2,391.993
306.652,393.16
308.104,392.074
309.556,389.54
311.008,386.793
312.459,388.276
313.911,382.639
315.363,385.445
316.815,392.234
318.267,376.016
319.718,373.361
321.17,374.914
322.622,375.26
324.074,377.057
325.525,375.119
326.977,375.898
328.429,372.77
329.881,376.188
331.333,378.382
332.784,371.761
334.236,374.46
335.688,365.304
337.14,369.29
338.592,368.109
340.043,358.799
341.495,362.826
342.947,377.158
344.399,367.428
345.85,361.624
347.302,366.298
348.754,372.361
350.206,370.993
351.658,370.393
353.109,365.014
354.561,361.802
356.013,362.179
357.465,355.575
358.917,359.697
360.368,364.311
361.82,362.892
363.272,357.613
364.724,354.817
366.176,357.097
367.627,360.282
369.079,359.338
370.531,358.616
371.983,365.436
373.434,358.753
374.886,358.664
376.338,356.159
377.79,354.741
379.242,357.63
380.693,360.67
382.145,353.113
383.597,348.099
385.049,344.24
386.501,346.385
387.952,350.637
389.404,352.741
390.856,351.892
392.308,351.92
393.759,353.363
395.211,353.371
396.663,354.893
398.115,348.045
399.567,353.71
401.018,356.035
402.47,352.929
403.922,350.683
405.374,357.969
406.826,351.373
408.277,355.622
409.729,357.07
411.181,350.615
412.633,353.897
414.085,354.695
415.536,348.515
416.988,344.663
418.44,347.459
419.892,354.752
421.343,354.421
422.795,353.369
424.247,348.805
425.699,343.878
427.151,343.177
428.602,354.113
430.054,354.205
431.506,354.267
432.958,349.534
434.41,347.615
435.861,355.246
437.313,346.873
438.765,351.415
440.217,352.79
441.668,348.648
443.12,345.381
444.572,354.87
446.024,352.887
447.476,350.1
448.927,348.963
450.379,346.387
451.831,345.581
453.283,338.384
454.735,340.596
456.186,341.06
457.638,343.231
459.09,346.489
460.542,343.841
461.993,325.984
463.445,339.225
464.897,343.041
466.349,342.852
467.801,343.091
469.252,337.974
470.704,346.815
472.156,344.895
473.608,344.909
475.06,344.799
476.511,343.298
477.963,341.017
479.415,342.222
480.867,346.692
482.319,341.764
483.77,337.103
485.222,342.294
486.674,349.866
488.126,339.878
489.577,342.095
491.029,346.748
492.481,346.103
493.933,339.798
495.385,335.295
496.836,342.366
498.288,343.139
499.74,342.196
501.192,341.863
502.644,335.233
504.095,336.195
505.547,335.632
506.999,338.239
508.451,341.007
509.902,342.171
511.354,339.059
512.806,333.838
514.258,335.184
515.71,343.707
517.161,347.727
518.613,341.871
520.065,330.441
521.517,332.499
522.969,334.168
524.42,334.44
525.872,333.763
527.324,334.458
528.776,338.975
530.228,339.208
531.679,343.826
533.131,343.441
534.583,338.911
536.035,338.932
537.486,331.359
538.938,322.956
540.39,329.912
541.842,335.322
543.294,334.749
544.745,336.595
546.197,338.37
547.649,337.499
549.101,335.826
550.553,335.976
552.004,336.201
553.456,338.608
554.908,337.681
556.36,337.733
557.811,337.472
559.263,341.947
560.715,339.634
562.167,332.302
563.619,338.221
565.07,335.988
566.522,334.772
567.974,330.377
569.426,329.09
570.878,337.322
572.329,327.529
573.781,339.405
575.233,342.412
576.685,339.211
578.137,335.715
579.588,335.669
581.04,333.04
582.492,331.727
583.944,335.877
585.395,336.567
586.847,333.06
588.299,330.302
589.751,332.534
591.203,341.756
592.654,333.913
594.106,328.867
595.558,333.389
597.01,331.858
598.462,332.252
599.913,331.547
601.365,339.082
602.817,340.316
604.269,336.922
605.72,340.232
607.172,339.65
608.624,329.294
610.076,334.037
611.528,335.419
612.979,334.524
614.431,333.999
615.883,337.738
617.335,337.427
618.787,340.212
620.238,340.59
621.69,335.143
623.142,333.795
624.594,341.178
626.046,333.746
627.497,334.143
628.949,338.046
630.401,337.148
631.853,331.117
633.304,335.452
634.756,341.904
636.208,335.855
637.66,342.452
639.112,346.624
640.563,342.761
642.015,343.646
643.467,347.501
644.919,340.702
646.371,338.832
647.822,339.948
649.274,343.12
650.726,344.6
652.178,356.371
653.629,348.661
655.081,351.047
656.533,348.925
657.985,345.651
659.437,345.078
660.888,352.563
662.34,347.523
663.792,347.705
665.244,345.977
666.696,344.42
668.147,347.034
669.599,348.152
671.051,345.882
672.503,346.086
673.954,349.119
675.406,349.368
676.858,348.782
678.31,350.135
679.762,348.356
681.213,353.327
682.665,352.825
684.117,352.669
685.569,349.784
687.021,345.563
688.472,351.109
689.924,345.502
691.376,347.54
692.828,343.498
694.28,343.352
695.731,348.709
697.183,345.871
698.635,343.174
700.087,348.344
701.538,351.944
702.99,350.591
704.442,352.58
705.894,355.725
707.346,350.75
708.797,357.821
710.249,351.411
711.701,357.761
713.153,361.679
714.605,359.837
716.056,357.283
717.508,350.846
718.96,354.839
720.412,349.718
721.863,353.13
723.315,357.916
724.767,359.102
726.219,356.738
727.671,351.322
729.122,353.671
730.574,356.104
732.026,353.535
733.478,349.93
734.93,351.919
736.381,353.3
737.833,355.762
739.285,358.49
740.737,356.947
742.189,358.542
743.64,362.029
745.092,358.562
746.544,347.249
747.996,352.237
749.447,362.663
750.899,359.616
752.351,352.64
753.803,350.583
755.255,351.546
756.706,352.953
758.158,348.619
759.61,352.249
761.062,356.387
762.514,355.624
763.965,355.754
765.417,362.538
766.869,358.052
768.321,348.772
769.772,355.754
771.224,355.387
772.676,353.767
774.128,365.855
775.58,354.151
777.031,358.539
778.483,353.411
779.935,360.258
781.387,364.24
782.839,361.715
784.29,367.805
785.742,368.289
787.194,357.207
788.646,359.664
790.098,363.155
791.549,358.923
793.001,360.929
794.453,360.545
795.905,364.019
797.356,361.006
798.808,360.46
800.26,360.019
801.712,361.69
803.164,366.872
804.615,372.603
806.067,360.222
807.519,364.485
808.971,366.713
810.423,365.917
811.874,365.873
813.326,369.231
814.778,358.892
816.23,368.303
817.681,365.023
819.133,371.487
820.585,379.172
822.037,375.272
823.489,369.925
824.94,369.193
826.392,369.602
827.844,374.152
829.296,376.924
830.748,369.953
832.199,364.562
833.651,365.005
835.103,381.155
836.555,376.31
838.007,378.509
839.458,384.89
840.91,384.175
842.362,376.568
843.814,374.327
845.265,372.535
846.717,373.995
848.169,378.474
849.621,392.286
851.073,387.368
852.524,382.855
853.976,389.446
855.428,387.921
856.88,391.152
858.332,391.352
859.783,390.809
861.235,385.658
862.687,391.656
864.139,394.137
865.59,393.133
867.042,395.292
868.494,381.473
869.946,379.063
871.398,379.868
872.849,386.706
874.301,387.563
875.753,385.725
877.205,385.414
878.657,387.561
880.108,381.356
881.56,382.857
883.012,382.507
884.464,383.397
885.915,381.672
887.367,379.305
888.819,383.301
890.271,380.962
891.723,383.55
893.174,391.241
894.626,394.904
896.078,397.561
897.53,395.521
898.982,390.634
900.433,388.014
901.885,384.522
903.337,392.109
904.789,396.545
906.241,397.328
907.692,398.58
909.144,395.516
910.596,397.663
912.048,394.257
913.499,401.195
914.951,398.797
916.403,396.039
917.855,390.554
919.307,384.019
920.758,392.111
922.21,403.413
923.662,399.769
925.114,401.398
926.566,400.333
928.017,400.409
929.469,407.973
930.921,404.457
932.373,401.868
933.824,387.532
935.276,401.742
936.728,408.38
938.18,404.648
939.632,407.077
941.083,406.92
942.535,400.781
943.987,403.19
945.439,410.661
946.891,405.02
948.342,401.066
949.794,402.497
951.246,403.238
952.698,406.245
954.15,413.746
955.601,403.413
957.053,398.943
958.505,402.63
959.957,404.488
961.408,400.956
962.86,399.429
964.312,413.024
965.764,413.765
967.216,409.463
968.667,402.998
970.119,409.883
971.571,407.365
973.023,407.732
974.475,411.364
975.926,405.31
977.378,408.655
978.83,407.927
980.282,410.609
981.733,410.384
983.185,414.459
984.637,413.548
986.089,410.591
987.541,409.923
988.992,417.931
990.444,414.163
991.896,422.174
993.348,413.804
994.8,417.226
996.251,421.88
997.703,415.467
999.155,426.105
1000.61,417.606
1002.06,420.677
1003.51,423.339
1004.96,421.773
1006.41,418.389
1007.87,421.939
1009.32,427.441
1010.77,428.801
1012.22,432.301
1013.67,431.697
1015.12,427.656
1016.58,431.124
1018.03,427.325
1019.48,428.13
1020.93,437.37
1022.38,442.81
1023.84,447.008
1025.29,449.969
1026.74,445.759
1028.19,447.142
1029.64,453.018
1031.09,454.343
1032.55,448.364
1034,453.559
1035.45,458.556
1036.9,461.464
1038.35,468.345
1039.8,468.462
1041.26,470.295
1042.71,479.42
1044.16,482.763
1045.61,469.015
1047.06,471.071
1048.52,478.165
1049.97,483.469
1051.42,486.664
1052.87,492.259
1054.32,489.612
1055.77,491.469
1057.23,501.095
1058.68,506.032
1060.13,512.832
1061.58,507.785
1063.03,511.579
1064.49,520.028
1065.94,523.859
1067.39,515.114
1068.84,513.103
1070.29,530.93
1071.74,534.103
1073.2,535.352
1074.65,541.065
1076.1,546.283
1077.55,550.247
1079,545.379
1080.46,542.768
1081.91,546.828
1083.36,543.622
1084.81,563.76
1086.26,565.879
1087.71,570.089
1089.17,563.86
1090.62,545.975
1092.07,555.656
1093.52,566.733
1094.97,556.372
1096.42,551.704
1097.88,559.675
1099.33,547.665
1100.78,546.358
1102.23,549.173
1103.68,549.102
1105.14,541.723
1106.59,540.665
1108.04,543.168
1109.49,538.941
1110.94,540.536
1112.39,528.906
1113.85,532.937
1115.3,531.159
1116.75,530.338
1118.2,530.001
1119.65,524.579
1121.11,522.926
1122.56,518.67
1124.01,522.951
1125.46,523.147
1126.91,516.222
1128.36,517.55
1129.82,516.418
1131.27,510.388
1132.72,511.575
1134.17,503.268
1135.62,509.834
1137.07,502.786
1138.53,500.333
1139.98,508.96
1141.43,509.301
1142.88,498.714
1144.33,500.988
1145.79,507.652
1147.24,514.281
1148.69,504.096
1150.14,499.244
1151.59,505.774
1153.04,494.732
1154.5,495.505
1155.95,500.134
1157.4,504.389
1158.85,504.112
1160.3,502.594
1161.76,502.293
1163.21,499.372
1164.66,498.583
1166.11,493.854
1167.56,501.032
1169.01,503.035
1170.47,506.857
1171.92,509.247
1173.37,505.019
1174.82,515.227
1176.27,507.623
1177.72,507.577
1179.18,522.401
1180.63,509.738
1182.08,508.876
1183.53,515.689
1184.98,514.044
1186.44,512.732
1187.89,510.263
1189.34,511.483
1190.79,512.928
1192.24,506.145
1193.69,517.983
1195.15,523.413
1196.6,519.941
1198.05,513.969
1199.5,516.855
1200.95,525.716
1202.41,526.295
1203.86,523.426
1205.31,522.027
1206.76,536.014
1208.21,533.078
1209.66,526.799
1211.12,520.932
1212.57,527.103
1214.02,526.603
1215.47,518.25
1216.92,526.237
1218.37,530.776
1219.83,531.475
1221.28,533.624
1222.73,533.566
1224.18,531.742
1225.63,537.705
1227.09,539.795
1228.54,533.028
1229.99,527.253
1231.44,534.773
1232.89,527.378
1234.34,541.477
1235.8,540.095
1237.25,536.872
1238.7,529.343
1240.15,539.391
1241.6,552.192
1243.06,548.048
1244.51,547.22
1245.96,550.913
1247.41,568.061
1248.86,559.945
1250.31,551.18
1251.77,562.831
1253.22,569.119
1254.67,569.473
1256.12,566.662
1257.57,568.469
1259.02,577.143
1260.48,582.29
1261.93,597.572
1263.38,589.302
1264.83,598.105
1266.28,599.484
1267.74,610.011
1269.19,614.466
1270.64,617.019
1272.09,630.511
1273.54,647.03
1274.99,648.579
1276.45,646.701
1277.9,640.913
1279.35,656.807
1280.8,676.029
1282.25,679.093
1283.71,684.956
1285.16,686.289
1286.61,691.203
1288.06,709.446
1289.51,722.458
1290.96,723.65
1292.42,743.033
1293.87,769.417
1295.32,775.643
1296.77,801.452
1298.22,823.892
1299.67,838.946
1301.13,850.218
1302.58,874.195
1304.03,904.672
1305.48,921.47
1306.93,946.343
1308.39,982.55
1309.84,1015.9
1311.29,1049.3
1312.74,1091.81
1314.19,1147.8
1315.64,1194.94
1317.1,1237.02
1318.55,1279.61
1320,1321.08
1321.45,1373.4
1322.9,1442.63
1324.36,1476.17
1325.81,1530.51
1327.26,1576.43
1328.71,1623.96
1330.16,1660.92
1331.61,1688.86
1333.07,1712.18
1334.52,1744.53
1335.97,1762.38
1337.42,1735.93
1338.87,1737.42
1340.33,1709.33
1341.78,1679.75
1343.23,1653.89
1344.68,1608.61
1346.13,1575.77
1347.58,1531.42
1349.04,1465.8
1350.49,1404.77
1351.94,1349.73
1353.39,1283.2
1354.84,1231.67
1356.29,1205.6
1357.75,1155.02
1359.2,1110.45
1360.65,1080.47
1362.1,1028.34
1363.55,984.923
1365.01,955.899
1366.46,928.833
1367.91,903.394
1369.36,885.376
1370.81,867.12
1372.26,849.256
1373.72,833.528
1375.17,819.949
1376.62,788.252
1378.07,781.377
1379.52,766.936
1380.98,759.927
1382.43,756.713
1383.88,743.95
1385.33,726.831
1386.78,726.947
1388.23,728.684
1389.69,712.381
1391.14,708.092
1392.59,725.702
1394.04,728.276
1395.49,704.619
1396.94,703.495
1398.4,693.447
1399.85,694.542
1401.3,697.823
1402.75,690.778
1404.2,688.034
1405.66,686.689
1407.11,695.479
1408.56,703.433
1410.01,696.916
1411.46,699.806
1412.91,684.632
1414.37,694.746
1415.82,696.287
1417.27,691.457
1418.72,687.472
1420.17,688.446
1421.63,695.159
1423.08,691.265
1424.53,699.36
1425.98,689.008
1427.43,693.634
1428.88,692.335
1430.34,709.591
1431.79,713.239
1433.24,711.086
1434.69,715.521
1436.14,721.055
1437.59,730.341
1439.05,726.989
1440.5,727.406
1441.95,739.64
1443.4,746.856
1444.85,746.431
1446.31,731.686
1447.76,743.508
1449.21,751.103
1450.66,759.707
1452.11,757.262
1453.56,756.259
1455.02,763.042
1456.47,774.847
1457.92,783.276
1459.37,793.095
1460.82,789.822
1462.28,793.378
1463.73,824.842
1465.18,832.029
1466.63,835.989
1468.08,833.129
1469.53,837.659
1470.99,842.91
1472.44,849.585
1473.89,869.152
1475.34,885.996
1476.79,889.665
1478.24,903.107
1479.7,903.315
1481.15,935.05
1482.6,933.546
1484.05,952.227
1485.5,963.87
1486.96,967.426
1488.41,983.22
1489.86,1004.27
1491.31,1013.59
1492.76,1033.93
1494.21,1054.24
1495.67,1075.52
1497.12,1088.37
1498.57,1113.77
1500.02,1129.08
1501.47,1165.49
1502.93,1173.05
1504.38,1207.57
1505.83,1243.07
1507.28,1288.55
1508.73,1323.22
1510.18,1362.34
1511.64,1401.64
1513.09,1447.7
1514.54,1506.32
1515.99,1560.08
1517.44,1614.58
1518.89,1655.4
1520.35,1722.08
1521.8,1787.82
1523.25,1887.24
1524.7,1975.24
1526.15,2109.99
1527.61,2205.82
1529.06,2356.44
1530.51,2514.06
1531.96,2692.58
1533.41,2898.45
1534.86,3095.4
1536.32,3333.75
1537.77,3632.09
1539.22,3959.57
1540.67,4331.77
1542.12,4715.37
1543.58,5143.56
1545.03,5603.03
1546.48,6105.35
1547.93,6657.22
1549.38,7238.37
1550.83,7851.87
1552.29,8512.88
1553.74,9173.02
1555.19,9801.3
1556.64,10442.2
1558.09,11111
1559.54,11699.7
1561,12302.5
1562.45,12794.6
1563.9,13154.1
1565.35,13363.3
1566.8,13479.5
1568.26,13371.4
1569.71,13149.3
1571.16,12854.5
1572.61,12393
1574.06,11795.2
1575.51,11081.3
1576.97,10359.8
1578.42,9626.91
1579.87,8906.43
1581.32,8192.66
1582.77,7498.5
1584.23,6869.59
1585.68,6217.07
1587.13,5659
1588.58,5201.65
1590.03,4750.3
1591.48,4345.93
1592.94,4036.46
1594.39,3774.59
1595.84,3503.16
1597.29,3288.68
1598.74,3079.88
1600.2,2897.78
1601.65,2769.38
1603.1,2640.02
1604.55,2502.02
1606,2397.24
1607.45,2287.15
1608.91,2175.26
1610.36,2070.56
1611.81,1956.3
1613.26,1907.46
1614.71,1814.82
1616.16,1741.06
1617.62,1651.87
1619.07,1581.61
1620.52,1528.35
1621.97,1460.88
1623.42,1396.25
1624.88,1358.98
1626.33,1316.59
1627.78,1267.24
1629.23,1208.97
1630.68,1172.68
1632.13,1152.94
1633.59,1129.8
1635.04,1094.29
1636.49,1068.56
1637.94,1046.27
1639.39,1025.89
1640.85,1008.45
1642.3,1005.14
1643.75,979.389
1645.2,952.118
1646.65,941.271
1648.1,925.722
1649.56,899.146
1651.01,886.462
1652.46,878.23
1653.91,860.045
1655.36,846.525
1656.81,840.811
1658.27,835.427
1659.72,831.092
1661.17,818.329
1662.62,796.622
1664.07,792.029
1665.53,778.491
1666.98,779.116
1668.43,778.445
1669.88,757.233
1671.33,747.872
1672.78,741.497
1674.24,733.006
1675.69,729.246
1677.14,717.27
1678.59,715.971
1680.04,714.255
1681.5,711.074
1682.95,699.76
1684.4,694.496
1685.85,684.249
1687.3,688.85
1688.75,675.575
1690.21,675.058
1691.66,665.385
1693.11,665.198
1694.56,657.769
1696.01,652.859
1697.46,654.675
1698.92,652.085
1700.37,653.226
1701.82,653.263
1703.27,647.05
1704.72,643.365
1706.18,643.432
1707.63,645.122
1709.08,640.259
1710.53,632.955
1711.98,636.24
1713.43,639.114
1714.89,635.195
1716.34,624.652
1717.79,618.151
1719.24,613.121
1720.69,621.104
1722.15,620.225
1723.6,627.204
1725.05,617.706
1726.5,614.749
1727.95,614.425
1729.4,613.841
1730.86,624.231
1732.31,621.374
1733.76,616.228
1735.21,613.687
1736.66,613.383
1738.11,609.748
1739.57,612.18
1741.02,603.864
1742.47,605.484
1743.92,608.066
1745.37,603.381
1746.83,604.701
1748.28,600.854
1749.73,595.078
1751.18,606.683
1752.63,592.321
1754.08,577.485
1755.54,587.516
1756.99,596.352
1758.44,589.96
1759.89,574.645
1761.34,581.007
1762.8,587.395
1764.25,583.102
1765.7,578.971
1767.15,580.724
1768.6,572.971
1770.05,563.252
1771.51,567.17
1772.96,569.498
1774.41,564.13
1775.86,569.115
1777.31,564.438
1778.76,557.018
1780.22,562.302
1781.67,555.889
1783.12,551.296
1784.57,547.578
1786.02,538.625
1787.48,558.055
1788.93,535.473
1790.38,548.411
1791.83,544.23
1793.28,549.876
1794.73,540.703
1796.19,539.595
1797.64,542.947
1799.09,538.646
1800.54,535.19
1801.99,542.814
1803.45,541.811
1804.9,528.656
1806.35,527.815
1807.8,530.884
1809.25,528.223
1810.7,537.147
1812.16,535.656
1813.61,526.466
1815.06,526.058
1816.51,524.754
1817.96,520.619
1819.41,525.783
1820.87,533.84
1822.32,534.869
1823.77,536.884
1825.22,542.768
1826.67,541.361
1828.13,539.779
1829.58,553.166
1831.03,530.438
1832.48,527.707
1833.93,528.281
1835.38,532.754
1836.84,529.31
1838.29,541.681
1839.74,543.847
1841.19,545.895
1842.64,549.348
1844.1,542.947
1845.55,544.871
1847,550.38
1848.45,557.072
1849.9,569.464
1851.35,571.663
1852.81,565.076
1854.26,559.862
1855.71,561.444
1857.16,563.714
1858.61,562.56
1860.07,561.374
1861.52,567.449
1862.97,568.857
1864.42,565.917
1865.87,566.849
1867.32,568.157
1868.78,569.094
1870.23,566.158
1871.68,573.808
1873.13,561.165
1874.58,564.343
1876.03,559.008
1877.49,552.337
1878.94,550.243
1880.39,543.226
1881.84,543.897
1883.29,550.738
1884.75,558.617
1886.2,535.427
1887.65,543.984
1889.1,549.739
1890.55,540.836
1892,537.467
1893.46,537.526
1894.91,533.303
1896.36,526.978
1897.81,518.45
1899.26,510.904
1900.72,521.152
1902.17,525.071
1903.62,519.612
1905.07,519.224
1906.52,514.606
1907.97,515.76
1909.43,510.796
1910.88,514.377
1912.33,509.693
1913.78,508.348
1915.23,507.648
1916.68,502.722
1918.14,494.511
1919.59,498.664
1921.04,504.082
1922.49,504.972
1923.94,513.157
1925.4,508.019
1926.85,499.239
1928.3,486.167
1929.75,503.509
1931.2,502.345
1932.65,497.276
1934.11,505.641
1935.56,506.999
1937.01,501.521
1938.46,494.291
1939.91,487.635
1941.37,492.762
1942.82,502.75
1944.27,508.727
1945.72,509.672
1947.17,505.197
1948.62,507.402
1950.08,507.252
1951.53,499.284
1952.98,511.229
1954.43,508.864
1955.88,505.957
1957.33,507.078
1958.79,505.92
1960.24,505.762
1961.69,506.12
1963.14,510.809
1964.59,510.729
1966.05,504.145
1967.5,506.465
1968.95,516.135
1970.4,512.07
1971.85,505.999
1973.3,504.049
1974.76,502.415
1976.21,503.779
1977.66,515.131
1979.11,523.218
1980.56,521.386
1982.02,516.193
1983.47,516.259
1984.92,519.52
1986.37,516.534
1987.82,526.782
1989.27,524.105
1990.73,521.49
1992.18,525.754
1993.63,524.846
1995.08,519.42
1996.53,531.467
1997.98,526.736
1999.44,529.202
2000.89,527.573
2002.34,516.913
2003.79,535.194
2005.24,529.897
2006.7,520.486
2008.15,518.77
2009.6,515.776
2011.05,509.118
2012.5,515.947
2013.95,515.435
2015.41,495.35
2016.86,536.01
2018.31,510.463
2019.76,502.034
2021.21,515.797
2022.67,511
2024.12,506.953
2025.57,506.42
2027.02,514.136
2028.47,509.972
2029.92,535.502
2031.38,511.387
2032.83,504.228
2034.28,494.471
2035.73,495.431
2037.18,502.496
2038.63,487.856
2040.09,492.785
2041.54,496.199
2042.99,490.22
2044.44,487.793
2045.89,490.929
2047.35,485.424
2048.8,490.294
2050.25,481.412
2051.7,478.248
2053.15,478.019
2054.6,476.669
2056.06,477.257
2057.51,480.558
2058.96,479.629
2060.41,468.217
2061.86,469.441
2063.32,470.474
2064.77,482.723
2066.22,475.804
2067.67,472.048
2069.12,475.093
2070.57,473.123
2072.03,469.03
2073.48,466.591
2074.93,461.1
2076.38,461.462
2077.83,461.988
2079.28,463.789
2080.74,461.319
2082.19,464.293
2083.64,462.369
2085.09,459.587
2086.54,463.095
2088,466.145
2089.45,463.704
2090.9,462.462
2092.35,462.021
2093.8,459.834
2095.25,456.094
2096.71,458.065
2098.16,458.019
2099.61,458.435
2101.06,453.862
2102.51,455.097
2103.97,465.586
2105.42,471.916
2106.87,464.666
2108.32,462.987
2109.77,460.018
2111.22,456.483
2112.68,464.452
2114.13,472.249
2115.58,462.206
2117.03,461.781
2118.48,475.582
2119.94,476.003
2121.39,469.851
2122.84,465.757
2124.29,467.854
2125.74,473.507
2127.19,474.94
2128.65,461.077
2130.1,466.743
2131.55,478.872
2133,470.954
2134.45,466.912
2135.9,473.389
2137.36,467.458
2138.81,464.096
2140.26,470.735
2141.71,479.557
2143.16,470.45
2144.62,475.329
2146.07,475.618
2147.52,473.728
2148.97,478.862
2150.42,477.235
2151.87,481.457
2153.33,486.723
2154.78,480.623
2156.23,478.836
2157.68,480.24
2159.13,483.868
2160.58,484.873
2162.04,485.947
2163.49,479.812
2164.94,477.686
2166.39,481.875
2167.84,488.411
2169.3,485.177
2170.75,480.513
2172.2,479.074
2173.65,490.272
2175.1,488.149
2176.55,484.357
2178.01,490.168
2179.46,491.377
2180.91,484.224
2182.36,484.786
2183.81,487.434
2185.27,486.645
2186.72,501.846
2188.17,505.519
2189.62,504.898
2191.07,501.192
2192.52,489.39
2193.98,496.15
2195.43,485.52
2196.88,490.852
2198.33,505.991
2199.78,503.399
2201.24,515.364
2202.69,500.978
2204.14,498.902
2205.59,501.742
2207.04,507.681
2208.49,493.514
2209.95,497.23
2211.4,506.494
2212.85,493.621
2214.3,501.163
2215.75,483.461
2217.2,493.418
2218.66,500.572
2220.11,495.418
2221.56,504.472
2223.01,505.18
2224.46,501.974
2225.92,489.069
2227.37,489.07
2228.82,491.133
2230.27,506.536
2231.72,507.994
2233.17,499.034
2234.63,510.538
2236.08,507.111
2237.53,498.074
2238.98,506.886
2240.43,508.543
2241.89,513.432
2243.34,511.063
2244.79,510.775
2246.24,517.521
2247.69,519.087
2249.14,515.785
2250.6,513.928
2252.05,511.558
2253.5,514.561
2254.95,512.887
2256.4,508.639
2257.85,519.749
2259.31,527.211
2260.76,517.196
2262.21,519.016
2263.66,517.325
2265.11,519.158
2266.57,525.6
2268.02,523.318
2269.47,520.598
2270.92,519.391
2272.37,515.36
2273.82,528.814
2275.28,523.051
2276.73,519.653
2278.18,521.565
2279.63,522.135
2281.08,529.081
2282.54,533.907
2283.99,530.022
2285.44,544.247
2286.89,540.632
2288.34,539.158
2289.79,542.456
2291.25,544.938
2292.7,540.711
2294.15,535.789
2295.6,543.168
2297.05,539.316
2298.5,546.483
2299.96,551.746
2301.41,557.668
2302.86,545.871
2304.31,537.484
2305.76,564.813
2307.22,567.149
2308.67,555.161
2310.12,551.892
2311.57,550.493
2313.02,567.541
2314.47,576.294
2315.93,561.857
2317.38,562.523
2318.83,569.481
2320.28,553.387
2321.73,557.218
2323.19,567.903
2324.64,576.364
2326.09,578.446
2327.54,580.208
2328.99,575.273
2330.44,577.426
2331.9,581.145
2333.35,580.816
2334.8,586.55
2336.25,588.361
2337.7,589.873
2339.16,588.336
2340.61,588.42
2342.06,598.301
2343.51,602.474
2344.96,601.607
2346.41,608.27
2347.87,600.112
2349.32,603.939
2350.77,620.125
2352.22,622.732
2353.67,624.635
2355.12,625.763
2356.58,626.979
2358.03,622.586
2359.48,634.342
2360.93,621.662
2362.38,630.814
2363.84,638.431
2365.29,639.976
2366.74,638.876
2368.19,647.846
2369.64,660.68
2371.09,671.086
2372.55,682.162
2374,682.879
2375.45,696.287
2376.9,696.12
2378.35,701.363
2379.8,717.936
2381.26,716.458
2382.71,721.776
2384.16,722.992
2385.61,733.389
2387.06,743.175
2388.52,740.135
2389.97,765.678
2391.42,778.025
2392.87,791.404
2394.32,802.077
2395.77,824.538
2397.23,814.103
2398.68,819.349
2400.13,844.068
2401.58,863.069
2403.03,881.432
2404.49,885.093
2405.94,899.517
2407.39,921.116
2408.84,930.531
2410.29,943.049
2411.74,952.543
2413.2,964.382
2414.65,972.085
2416.1,1000.91
2417.55,1019.04
2419,1018.16
2420.46,1019.66
2421.91,1024.18
2423.36,1010.89
2424.81,1019.86
2426.26,1048.32
2427.71,1043.54
2429.17,1046.26
2430.62,1069.29
2432.07,1056.75
2433.52,1059.17
2434.97,1032.22
2436.42,1040.73
2437.88,1052.23
2439.33,1040.8
2440.78,1037.52
2442.23,1025.22
2443.68,1015.19
2445.14,1024.04
2446.59,1010.86
2448.04,1015.99
2449.49,1015.19
2450.94,1004.27
2452.39,988.404
2453.85,985.731
2455.3,977.657
2456.75,973.176
2458.2,966.206
2459.65,961.8
2461.1,954.904
2462.56,945.547
2464.01,950.794
2465.46,941.866
2466.91,923.124
2468.36,930.307
2469.82,912.434
2471.27,938.643
2472.72,934.354
2474.17,917.015
2475.62,909.14
2477.07,900.192
2478.53,896.898
2479.98,889.169
2481.43,892.759
2482.88,910.019
2484.33,910.894
2485.79,912.064
2487.24,895.678
2488.69,895.399
2490.14,893.088
2491.59,903.706
2493.04,901.795
2494.5,901.024
2495.95,892.509
2497.4,904.206
2498.85,895.453
2500.3,910.073
2501.76,916.369
2503.21,912.609
2504.66,925.58
2506.11,916.931
2507.56,909.532
2509.01,904.127
2510.47,933.921
2511.92,925.968
2513.37,926.28
2514.82,943.927
2516.27,948.017
2517.72,954.575
2519.18,951.51
2520.63,943.394
2522.08,955.679
2523.53,967.696
2524.98,974.85
2526.44,964.378
2527.89,976.508
2529.34,992.244
2530.79,1008.25
2532.24,1013.89
2533.69,1016.58
2535.15,1030.18
2536.6,1026.17
2538.05,1066.25
2539.5,1055.19
2540.95,1065.63
2542.41,1077.57
2543.86,1092.44
2545.31,1104.52
2546.76,1115.23
2548.21,1108.19
2549.66,1127.97
2551.12,1146.17
2552.57,1178.18
2554.02,1196.22
2555.47,1198.42
2556.92,1209.36
2558.37,1225.07
2559.83,1249.03
2561.28,1260.98
2562.73,1273.63
2564.18,1318.88
2565.63,1347.36
2567.09,1356.46
2568.54,1376.78
2569.99,1399.27
2571.44,1428.55
2572.89,1446.09
2574.34,1476.11
2575.8,1481.51
2577.25,1552.34
2578.7,1599.12
2580.15,1622.96
2581.6,1649.42
2583.06,1680.57
2584.51,1716.08
2585.96,1767.87
2587.41,1831.54
2588.86,1874.09
2590.31,1914.78
2591.77,1953.61
2593.22,2025.86
2594.67,2077.83
2596.12,2139.47
2597.57,2221.16
2599.02,2285.03
2600.48,2351.39
2601.93,2426.32
2603.38,2501.72
2604.83,2606.36
2606.28,2687.12
2607.74,2800
2609.19,2874.46
2610.64,2989.09
2612.09,3072.05
2613.54,3203.71
2614.99,3333.79
2616.45,3465.73
2617.9,3607.33
2619.35,3751.39
2620.8,3887.06
2622.25,4050.23
2623.71,4208.58
2625.16,4392.27
2626.61,4557.34
2628.06,4720.86
2629.51,4949.64
2630.96,5114.21
2632.42,5344.9
2633.87,5527.75
2635.32,5731.54
2636.77,5929.17
2638.22,6153.36
2639.68,6343.25
2641.13,6500.98
2642.58,6687
2644.03,6896.87
2645.48,7071.72
2646.93,7281.47
2648.39,7383.99
2649.84,7579.66
2651.29,7714.49
2652.74,7818.43
2654.19,7910.58
2655.64,8049.21
2657.1,8094.72
2658.55,8149.1
2660,8200.03
2661.45,8185.54
2662.9,8130.45
2664.36,8086.43
2665.81,8039.5
2667.26,7931.82
2668.71,7877.35
2670.16,7793.74
2671.61,7682.85
2673.07,7499.5
2674.52,7339.47
2675.97,7105.91
2677.42,6951.38
2678.87,6755.25
2680.32,6585.89
2681.78,6363.03
2683.23,6139.96
2684.68,5924.21
2686.13,5725.71
2687.58,5496.64
2689.04,5326.41
2690.49,5101.21
2691.94,4912.04
2693.39,4703.87
2694.84,4501.83
2696.29,4317.78
2697.75,4131.19
2699.2,3984.31
2700.65,3813.66
2702.1,3635.98
2703.55,3482.17
2705.01,3323.25
2706.46,3213.1
2707.91,3066.66
2709.36,2950.47
2710.81,2821.81
2712.26,2692.34
2713.72,2610.19
2715.17,2519.29
2716.62,2417.96
2718.07,2309.07
2719.52,2241.04
2720.98,2169.72
2722.43,2079.07
2723.88,2013.99
2725.33,1955.97
2726.78,1882.28
2728.23,1814.64
2729.69,1787.15
2731.14,1717.74
2732.59,1663.89
2734.04,1628.5
2735.49,1584.19
2736.94,1534.8
2738.4,1497.47
2739.85,1458.62
2741.3,1407.04
2742.75,1391.62
2744.2,1381.77
2745.66,1320.3
2747.11,1291.97
2748.56,1269.85
2750.01,1253.7
2751.46,1234.79
2752.91,1219.01
2754.37,1184.83
2755.82,1166.58
2757.27,1143.35
2758.72,1128.04
2760.17,1086.61
2761.63,1085.53
2763.08,1074.33
2764.53,1044.48
2765.98,1046.84
2767.43,1030.88
2768.88,998.352
2770.34,1000.28
2771.79,979.36
2773.24,963.016
2774.69,950.848
2776.14,942.782
2777.59,953.122
2779.05,922.928
2780.5,914.995
2781.95,910.535
2783.4,914.729
2784.85,905.001
2786.31,886.796
2787.76,873.554
2789.21,873.012
2790.66,861.115
2792.11,851.351
2793.56,837.047
2795.02,835.652
2796.47,832.908
2797.92,831.833
2799.37,821.348
2800.82,821.644
2802.28,819.928
2803.73,801.856
2805.18,796.842
2806.63,797.908
2808.08,787.96
2809.53,772.84
2810.99,777.371
2812.44,775.872
2813.89,756.417
2815.34,759.14
2816.79,749.571
2818.24,756.221
2819.7,755.488
2821.15,749.559
2822.6,740.298
2824.05,736.308
2825.5,734.185
2826.96,740.685
2828.41,731.661
2829.86,737.72
2831.31,716.142
2832.76,708.808
2834.21,716.716
2835.67,720.88
2837.12,719.515
2838.57,718.848
2840.02,701.192
2841.47,711.902
2842.93,689.229
2844.38,697.844
2845.83,692.206
2847.28,685.281
2848.73,681.538
2850.18,691.173
2851.64,688.808
2853.09,692.04
2854.54,688.442
2855.99,683.028
2857.44,674.117
2858.9,688.284
2860.35,679.497
2861.8,674.509
2863.25,684.415
2864.7,675.441
2866.15,677.598
2867.61,683.291
2869.06,688.484
2870.51,684.507
2871.96,710.17
2873.41,691.107
2874.86,691.09
2876.32,675.554
2877.77,682.52
2879.22,678.006
2880.67,685.831
2882.12,695.879
2883.58,694.342
2885.03,692.498
2886.48,688.471
2887.93,671.877
2889.38,681.892
2890.83,676.487
2892.29,697.445
2893.74,688.134
2895.19,678.902
2896.64,676.657
2898.09,676.791
2899.54,678.919
2901,672.118
2902.45,672.656
2903.9,697.686
2905.35,673.426
2906.8,685.21
2908.26,685.802
2909.71,683.199
2911.16,673.388
2912.61,667.854
2914.06,660.113
2915.51,665.281
2916.97,658.31
2918.42,665.127
2919.87,660.871
2921.32,663.074
2922.77,653.996
2924.23,649.378
2925.68,642.474
2927.13,643.136
2928.58,654.167
2930.03,639.767
2931.48,639.247
2932.94,622.886
2934.39,630.107
2935.84,625.509
2937.29,621.487
2938.74,611.772
2940.2,614.799
2941.65,602.961
2943.1,587.949
2944.55,590.731
2946,593.242
2947.45,576.348
2948.91,568.969
2950.36,574.303
2951.81,579.508
2953.26,561.586
2954.71,565.646
2956.16,571.963
2957.62,561.761
2959.07,552.725
2960.52,556.414
2961.97,546
2963.42,544.984
2964.88,529.614
2966.33,531.046
2967.78,541.082
2969.23,533.903
2970.68,528.414
2972.13,530.88
2973.59,519.907
2975.04,517.296
2976.49,522.568
2977.94,519.424
2979.39,515.427
2980.84,513.086
2982.3,514.319
2983.75,505.866
2985.2,503.658
2986.65,495.588
2988.1,505.284
2989.56,505.649
2991.01,504.097
2992.46,507.148
2993.91,501.297
2995.36,496.399
2996.81,490.213
2998.27,492.73
2999.72,494.594
3001.17,485.422
3002.62,484.05
3004.07,480.858
3005.53,494.249
3006.98,490.209
3008.43,484.425
3009.88,485.196
3011.33,483.213
3012.78,484.773
3014.24,484.692
3015.69,469.924
3017.14,479.547
3018.59,476.139
3020.04,472.49
3021.5,479.611
3022.95,476.15
3024.4,475.185
3025.85,480.418
3027.3,479.014
3028.75,470.859
3030.21,489.332
3031.66,468.631
3033.11,477.039
3034.56,481.262
3036.01,472.308
3037.46,473.018
3038.92,475.351
3040.37,468.812
3041.82,474.564
3043.27,480.403
3044.72,466.433
3046.18,471.209
3047.63,473.906
3049.08,475.738
3050.53,476.912
3051.98,476.384
3053.43,474.121
3054.89,473.994
3056.34,474.991
3057.79,475.527
3059.24,483.116
3060.69,481.003
3062.15,479.71
3063.6,478.874
3065.05,481.57
3066.5,486.946
3067.95,482.581
3069.4,476.474
3070.86,481.121
3072.31,483.812
3073.76,484.235
3075.21,496.824
3076.66,483.577
3078.11,499
3079.57,498.028
3081.02,498.336
3082.47,498.209
3083.92,504.288
3085.37,505.795
3086.83,514.519
3088.28,507.856
3089.73,509.28
3091.18,509.443
3092.63,520.411
3094.08,532.062
3095.54,530.392
3096.99,533.145
3098.44,549.547
3099.89,544.576
3101.34,544.471
3102.8,563.993
3104.25,575.452
3105.7,581.753
3107.15,590.51
3108.6,587.412
3110.05,590.701
3111.51,597.797
3112.96,605.238
3114.41,629.361
3115.86,625.58
3117.31,630.015
3118.76,621.903
3120.22,642.337
3121.67,652.21
3123.12,651.752
3124.57,662.732
3126.02,677.944
3127.48,674.842
3128.93,708.534
3130.38,700.93
3131.83,696.15
3133.28,700.543
3134.73,713.493
3136.19,707.143
3137.64,710.503
3139.09,702.962
3140.54,723.549
3141.99,726.756
3143.45,730.991
3144.9,723.749
3146.35,730.837
3147.8,736.933
3149.25,748.53
3150.7,739.473
3152.16,758.407
3153.61,752.94
3155.06,739.361
3156.51,744.886
3157.96,748.347
3159.42,757.183
3160.87,736.633
3162.32,752.798
3163.77,756.046
3165.22,754.597
3166.67,764.804
3168.13,766.178
3169.58,754.206
3171.03,747.855
3172.48,762.521
3173.93,761.189
3175.38,774.527
3176.84,789.03
3178.29,788.293
3179.74,803.138
3181.19,804.3
3182.64,812.558
3184.1,833.016
3185.55,821.04
3187,835.806
3188.45,840.699
3189.9,838.05
3191.35,857.897
3192.81,852.479
3194.26,853.183
3195.71,865.675
3197.16,866.425
3198.61,858.476
3200.06,881.903
3201.52,878.301
3202.97,880.266
3204.42,862.956
3205.87,871.172
3207.32,874.82
3208.78,861.066
3210.23,872.53
3211.68,838.146
3213.13,816.639
3214.58,811.317
3216.03,796.143
3217.49,791.537
3218.94,775.33
3220.39,761.318
3221.84,744.137
3223.29,732.502
3224.75,703.578
3226.2,690.237
3227.65,683.903
3229.1,666.047
3230.55,647.792
3232,636.915
3233.46,619.155
3234.91,603.927
3236.36,593.887
3237.81,595.128
3239.26,563.939
3240.72,543.972
3242.17,539.828
3243.62,539.678
3245.07,527.232
3246.52,513.707
3247.97,497.068
3249.43,509.239
3250.88,484.048
3252.33,473.294
3253.78,470.208
3255.23,464.95
3256.68,456.953
3258.14,471.704
3259.59,457.902
3261.04,451.122
3262.49,443.021
3263.94,442.57
3265.4,435.293
3266.85,424.515
3268.3,437.098
3269.75,436.182
3271.2,425.666
3272.65,428.833
3274.11,423.154
3275.56,421.452
3277.01,419.408
3278.46,417.383
3279.91,411.809
3281.37,412.33
3282.82,418.107
3284.27,420.809
3285.72,401.597
3287.17,409.563
3288.62,407.493
3290.08,404.834
3291.53,401.2
3292.98,394.321
3294.43,406.645
3295.88,399.006
3297.33,403.183
3298.79,402.757
3300.24,410.102
3301.69,402.724
3303.14,403.041
3304.59,397.001
3306.05,419.62
3307.5,403.086
3308.95,399.702
3310.4,401
3311.85,396.352
3313.3,396.132
3314.76,393.624
3316.21,399.915
3317.66,397.591
3319.11,390.881
3320.56,396.847
3322.02,392.125
3323.47,394.311
3324.92,396.926
3326.37,399.242
3327.82,399.078
3329.27,396.406
3330.73,393.912
3332.18,396.699
3333.63,400.302
3335.08,386.262
3336.53,384.371
3337.98,399.585
3339.44,388.823
3340.89,389.265
3342.34,392.302
3343.79,396.162
3345.24,392.208
3346.7,390.067
3348.15,387.064
3349.6,389.892
3351.05,391.497
3352.5,381.762
3353.95,393.134
3355.41,386.71
3356.86,375.719
3358.31,383.69
3359.76,395.028
3361.21,389.287
3362.67,392.182
3364.12,385.27
3365.57,387.851
3367.02,390.306
3368.47,383.307
3369.92,388.285
3371.38,392.866
3372.83,388.373
3374.28,375.155
3375.73,379.444
3377.18,387.771
3378.63,390.268
3380.09,393.257
3381.54,379.122
3382.99,378.888
3384.44,378.766
3385.89,376.211
3387.35,384.556
3388.8,377.657
3390.25,381.563
3391.7,377.147
3393.15,375.636
3394.6,380.081
3396.06,383.699
3397.51,385.628
3398.96,389.248
3400.41,380.24
3401.86,378.532
3403.32,382.413
3404.77,384.754
3406.22,392.009
3407.67,376.73
3409.12,380.77
3410.57,377.473
3412.03,374.721
3413.48,368.618
3414.93,384.973
3416.38,383.813
3417.83,378.489
3419.28,377.511
3420.74,391.359
3422.19,376.245
3423.64,386.408
3425.09,380.767
3426.54,375.186
3428,366.506
3429.45,380.534
3430.9,382.698
3432.35,385.103
3433.8,385.406
3435.25,372.238
3436.71,373.967
3438.16,373.95
3439.61,384.224
3441.06,382.179
3442.51,373.993
3443.97,370.538
3445.42,367.239
3446.87,380.965
3448.32,372.344
3449.77,369.8
3451.22,371.995
3452.68,385.507
3454.13,366.627
3455.58,368.007
3457.03,382.435
3458.48,374.962
3459.94,375.648
3461.39,369.366
3462.84,374.85
3464.29,377.231
3465.74,375.966
3467.19,376.108
3468.65,365.268
3470.1,379.274
3471.55,374.723
3473,366.701
3474.45,359.836
3475.9,376.362
3477.36,383.006
3478.81,385.023
3480.26,380.674
3481.71,367.537
3483.16,375.001
3484.62,361.602
3486.07,378.621
3487.52,370.647
3488.97,364.134
3490.42,372.909
3491.87,375.164
3493.33,379.079
3494.78,372.527
3496.23,372.583
3497.68,373.688
3499.13,373.162
3500.58,377.332
3502.04,383.437
3503.49,372.56
3504.94,365.678
3506.39,362.35
3507.84,375.958
3509.3,385.861
3510.75,387.118
3512.2,371.452
3513.65,372.315
3515.1,377.859
3516.55,373.756
3518.01,378.443
3519.46,375.341
3520.91,373.508
3522.36,372.694
3523.81,374.299
3525.27,374.707
3526.72,368.244
3528.17,376.938
3529.62,370.991
3531.07,375.949
3532.52,379.473
3533.98,377.247
3535.43,381.374
3536.88,376.374
3538.33,364.884
3539.78,374.23
3541.24,376.733
3542.69,369.255
3544.14,377.342
3545.59,379.051
3547.04,373.041
3548.49,369.783
3549.95,375.976
3551.4,370.217
3552.85,365.711
3554.3,367.245
3555.75,377.983
3557.2,381.139
3558.66,370.748
3560.11,368.549
3561.56,371.611
3563.01,372.159
3564.46,373.919
3565.92,373.876
3567.37,371.449
3568.82,372.616
3570.27,373.164
3571.72,366.306
3573.17,369.434
3574.63,375.221
3576.08,373.694
3577.53,380.626
3578.98,361.092
3580.43,368.81
3581.89,366.773
3583.34,367.566
3584.79,363.44
3586.24,376.344
3587.69,367.58
3589.14,375.3
3590.6,375.93
3592.05,368.409
3593.5,369.129
3594.95,366.753
3596.4,363.511
3597.85,363.807
3599.31,373.677
3600.76,374.976
3602.21,365.307
3603.66,374.463
3605.11,357.643
3606.57,374.008
3608.02,372.951
3609.47,370.317
3610.92,372.5
3612.37,380.929
3613.82,369.166
3615.28,370.817
3616.73,364.521
3618.18,381.086
3619.63,363.851
3621.08,375.968
3622.54,372.702
3623.99,375.449
3625.44,377.93
3626.89,374.403
3628.34,365.882
3629.79,367.961
3631.25,369.026
3632.7,372.185
3634.15,368.932
3635.6,366.994
3637.05,364.192
3638.5,371.868
3639.96,368.962
3641.41,372.845
3642.86,370.596
3644.31,365.492
3645.76,372.466
3647.22,369.032
3648.67,369.092
3650.12,364.291
3651.57,366.314
3653.02,361.308
3654.47,371.638
3655.93,383.322
3657.38,372.264
3658.83,375.425
3660.28,371.948
3661.73,371.852
3663.19,366.858
3664.64,375.38
3666.09,360.83
3667.54,370.371
3668.99,372.128
3670.44,379.263
3671.9,371.696
3673.35,368.393
3674.8,380.596
3676.25,376.497
3677.7,363.46
3679.16,371.604
3680.61,371.95
3682.06,378.986
3683.51,372.124
3684.96,374.852
3686.41,374.732
3687.87,371.345
3689.32,376.049
3690.77,365.255
3692.22,377.163
3693.67,369.123
3695.12,371.41
3696.58,373.98
3698.03,376.815
3699.48,377.019
3700.93,376.76
3702.38,371.477
3703.84,380.11
3705.29,374.312
3706.74,366.853
3708.19,374.559
3709.64,387.936
3711.09,380.695
3712.55,377.7
3714,370.575
3715.45,372.676
3716.9,375.234
3718.35,378.244
3719.8,381.481
3721.26,375.101
3722.71,368.866
3724.16,374.976
3725.61,379.718
3727.06,379.557
3728.52,374.712
3729.97,373.059
3731.42,379.496
3732.87,377.593
3734.32,375.279
3735.77,385.345
3737.23,383.769
3738.68,378.342
3740.13,367.895
3741.58,382.139
3743.03,370.976
3744.49,372.979
3745.94,386.934
3747.39,378.807
3748.84,381.762
3750.29,385.509
3751.74,376.193
3753.2,376.704
3754.65,376.676
3756.1,369.653
3757.55,378.613
3759,374.859
3760.46,380.764
3761.91,383.352
3763.36,384.987
3764.81,385.924
3766.26,387.746
3767.71,373.156
3769.17,378.04
3770.62,384.716
3772.07,370.362
3773.52,374.274
3774.97,380.224
3776.42,372.741
3777.88,378.792
3779.33,379.746
3780.78,386.844
3782.23,387.419
3783.68,388.223
3785.14,394.794
3786.59,380.552
3788.04,377.498
3789.49,373.253
3790.94,385.785
3792.39,386.013
3793.85,382.911
3795.3,387.805
3796.75,389.605
3798.2,386.736
3799.65,383.935
3801.1,384.936
3802.56,367.534
3804.01,389.13
3805.46,384.402
3806.91,383.072
3808.36,392.829
3809.82,389.824
3811.27,383.66
3812.72,381.996
3814.17,383.41
3815.62,394.829
3817.07,391.192
3818.53,390.864
3819.98,404.364
3821.43,380.741
3822.88,381.329
3824.33,381.612
3825.79,390.321
3827.24,407.521
3828.69,406.213
3830.14,384.17
3831.59,396.038
3833.04,384.886
3834.5,388.312
3835.95,390.199
3837.4,394.355
3838.85,390.403
3840.3,389.728
3841.76,409.323
3843.21,377.191
3844.66,388.089
3846.11,388.577
3847.56,381.502
3849.01,406.798
3850.47,380.717
3851.92,393.159
3853.37,379.228
3854.82,384.454
3856.27,396.264
3857.72,396.633
3859.18,401.512
3860.63,400.227
3862.08,385.043
3863.53,396.516
3864.98,400.937
3866.44,411.741
3867.89,394.598
3869.34,390.946
3870.79,398.876
3872.24,400.405
3873.69,395.725
3875.15,400.338
3876.6,389.257
3878.05,393.923
3879.5,404.425
3880.95,392.727
3882.41,398.117
3883.86,404.127
3885.31,397.4
3886.76,395.647
3888.21,401.259
3889.66,402.532
3891.12,399.768
3892.57,412.341
3894.02,411.095
3895.47,413.63
3896.92,408.468
3898.37,408.149
3899.83,405.567
3901.28,400.796
3902.73,410.164
3904.18,405.808
3905.63,414.601
3907.09,410.552
3908.54,411.603
3909.99,420.574
3911.44,415.536
3912.89,416.625
3914.34,416.02
3915.8,404.046
3917.25,412.496
3918.7,427.906
3920.15,423.103
3921.6,433.888
3923.06,423.335
3924.51,410.891
3925.96,429.075
3927.41,426.115
3928.86,421.688
3930.31,441.003
3931.77,431.147
3933.22,432.915
3934.67,434.391
3936.12,432.717
3937.57,434.646
3939.02,436.21
3940.48,432.586
3941.93,428.172
3943.38,431.476
3944.83,436.853
3946.28,435.018
3947.74,436.524
3949.19,435.236
3950.64,438.882
3952.09,431.153
3953.54,427.654
3954.99,441.983
3956.45,439.415
3957.9,435.602
3959.35,456.723
3960.8,441.281
3962.25,446.66
3963.71,440.981
3965.16,442.773
3966.61,448.274
3968.06,447.446
3969.51,450.624
3970.96,443.921
3972.42,449.611
3973.87,450.911
3975.32,455.155
3976.77,451.083
3978.22,455
3979.68,453.858
3981.13,451.968
3982.58,463.196
3984.03,457.26
3985.48,469.226
3986.93,453.364
3988.39,464.71
3989.84,476.999
3991.29,464.769
3992.74,463.046
3994.19,459.193
3995.64,469.466
3997.1,469.595
3998.55,472.989
4000,471.88
