-20,276.987
-18.5482,284.168
-17.0964,278.429
-15.6446,272.515
-14.1928,281.424
-12.7411,288.718
-11.2893,292.138
-9.83749,295.219
-8.3857,307.314
-6.93391,328.067
-5.48212,512.162
-4.03034,321.513
-2.57855,321.513
-1.12676,321.513
0.325027,321.513
1.77681,321.513
3.2286,321.513
4.68039,321.513
6.13218,321.513
7.58397,321.513
9.03575,354.249
10.4875,339.458
11.9393,341.532
13.3911,346.537
14.8429,345.289
16.2947,340.001
17.7465,334.031
19.1983,319.623
20.6501,308.77
22.1018,301.279
23.5536,295.292
25.0054,289.228
26.4572,284.974
27.909,281.552
29.3608,279.223
30.8126,275.489
32.2644,275.01
33.7161,272.215
35.1679,271.066
36.6197,272.194
38.0715,275.995
39.5233,276.082
40.9751,277.415
42.4269,280.902
43.8787,284.325
45.3304,292.529
46.7822,300.563
48.234,324.26
49.6858,376.676
51.1376,464.568
52.5894,606.177
54.0412,820.296
55.493,1113.09
56.9447,1466.86
58.3965,1842.25
59.8483,2213.15
61.3001,2468.73
62.7519,2664.34
64.2037,2842.51
65.6555,2928.95
67.1073,3015.62
68.559,3064.4
70.0108,3102.26
71.4626,3189.91
72.9144,3247.44
74.3662,3284.24
75.818,3321.1
77.2698,3381.59
78.7216,3505.35
80.1733,3597.02
81.6251,3680.88
83.0769,3724.55
84.5287,3745.6
85.9805,3768.29
87.4323,3705.36
88.8841,3604.18
90.3359,3508.46
91.7877,3387.15
93.2394,3262.55
94.6912,3103.67
96.143,2990.14
97.5948,2892.59
99.0466,2743.42
100.498,2691.29
101.95,2585.99
103.402,2506.1
104.854,2455.28
106.306,2430.74
107.757,2406
109.209,2390.76
110.661,2361.02
112.113,2315.78
113.564,2295.12
115.016,2278.24
116.468,2239.85
117.92,2205.22
119.372,2182.19
120.823,2148.36
122.275,2085.77
123.727,2033.46
125.179,1986.75
126.631,1967.76
128.082,1968.78
129.534,1901.63
130.986,1870.86
132.438,1856.14
133.889,1818.63
135.341,1792.3
136.793,1779.88
138.245,1750.1
139.697,1725.44
141.148,1691.27
142.6,1684.67
144.052,1650.77
145.504,1618.79
146.956,1602.05
148.407,1594.15
149.859,1595.56
151.311,1559.26
152.763,1530.04
154.215,1528.05
155.666,1528.51
157.118,1501.47
158.57,1543.38
160.022,1554.83
161.473,1546.56
162.925,1555.02
164.377,1607.12
165.829,1625.48
167.281,1638.09
168.732,1655.84
170.184,1632.3
171.636,1570.46
173.088,1523.06
174.54,1478.15
175.991,1423.29
177.443,1407.94
178.895,1394.9
180.347,1398.03
181.798,1381.1
183.25,1361.63
184.702,1351.68
186.154,1350.03
187.606,1339.22
189.057,1326.88
190.509,1316.01
191.961,1303.1
193.413,1336.58
194.865,1328.87
196.316,1314.56
197.768,1299.17
199.22,1316.02
200.672,1298.56
202.124,1300.77
203.575,1305.25
205.027,1280.53
206.479,1287.73
207.931,1292.77
209.382,1305.39
210.834,1300.37
212.286,1276.56
213.738,1272.15
215.19,1295.3
216.641,1294.78
218.093,1295.13
219.545,1290.79
220.997,1267.98
222.449,1262.71
223.9,1256.03
225.352,1268.02
226.804,1275.41
228.256,1258.77
229.707,1252.87
231.159,1264.33
232.611,1273.71
234.063,1276.92
235.515,1296.52
236.966,1262.1
238.418,1265.04
239.87,1278.66
241.322,1271.1
242.774,1251.62
244.225,1244.37
245.677,1250.54
247.129,1249.89
248.581,1245.98
250.033,1217.26
251.484,1239.42
252.936,1231.36
254.388,1217.96
255.84,1215.71
257.291,1247.56
258.743,1244.87
260.195,1213.48
261.647,1219.09
263.099,1221.16
264.55,1182.07
266.002,1173.31
267.454,1191.42
268.906,1198.65
270.358,1191.15
271.809,1193.45
273.261,1197.89
274.713,1178.03
276.165,1184.35
277.616,1178.19
279.068,1147.23
280.52,1142.01
281.972,1166.77
283.424,1153.57
284.875,1142.24
286.327,1136.53
287.779,1147.09
289.231,1149.66
290.683,1133.59
292.134,1115.67
293.586,1106.85
295.038,1123.79
296.49,1109.27
297.941,1089.78
299.393,1107.85
300.845,1106.76
302.297,1061.94
303.749,1063.12
305.2,1064.44
306.652,1067.6
308.104,1064.65
309.556,1057.77
311.008,1050.31
312.459,1054.34
313.911,1039.04
315.363,1046.66
316.815,1065.09
318.267,1021.05
319.718,1013.84
321.17,1018.06
322.622,1019
324.074,1023.88
325.525,1018.61
326.977,1020.73
328.429,1012.24
329.881,1021.52
331.333,1027.48
332.784,1009.5
334.236,1016.82
335.688,991.962
337.14,1002.79
338.592,999.581
340.043,974.299
341.495,985.234
342.947,1024.15
344.399,997.73
345.85,981.97
347.302,994.663
348.754,1011.12
350.206,1007.41
351.658,1005.78
353.109,991.175
354.561,982.454
356.013,983.477
357.465,965.543
358.917,976.738
360.368,989.268
361.82,985.414
363.272,971.078
364.724,963.487
366.176,969.676
367.627,978.326
369.079,975.763
370.531,973.802
371.983,992.322
373.434,974.176
374.886,973.934
376.338,967.13
377.79,963.28
379.242,971.124
380.693,979.379
382.145,958.859
383.597,945.244
385.049,934.765
386.501,940.589
387.952,952.136
389.404,957.848
390.856,955.543
392.308,955.62
393.759,959.537
395.211,959.56
396.663,963.694
398.115,945.097
399.567,960.479
401.018,966.793
402.47,958.359
403.922,952.261
405.374,972.047
406.826,954.134
408.277,965.671
409.729,969.605
411.181,952.075
412.633,960.989
414.085,963.155
415.536,946.373
416.988,935.914
418.44,943.505
419.892,963.31
421.343,962.411
422.795,959.554
424.247,947.16
425.699,933.781
427.151,931.878
428.602,961.575
430.054,961.823
431.506,961.993
432.958,949.14
434.41,943.929
435.861,964.65
437.313,941.914
438.765,954.25
440.217,957.981
441.668,946.735
443.12,937.864
444.572,963.629
446.024,958.245
447.476,950.678
448.927,947.589
450.379,940.596
451.831,938.406
453.283,918.863
454.735,924.87
456.186,926.13
457.638,932.025
459.09,940.871
460.542,933.681
461.993,885.192
463.445,921.147
464.897,931.51
466.349,930.996
467.801,931.645
469.252,917.75
470.704,941.757
472.156,936.544
473.608,936.582
475.06,936.282
476.511,932.206
477.963,926.013
479.415,929.284
480.867,941.424
482.319,928.042
483.77,915.384
485.222,929.482
486.674,950.042
488.126,922.921
489.577,928.939
491.029,941.574
492.481,939.822
493.933,922.703
495.385,910.476
496.836,929.675
498.288,931.776
499.74,929.215
501.192,928.31
502.644,910.307
504.095,912.919
505.547,911.39
506.999,918.47
508.451,925.987
509.902,929.147
511.354,920.695
512.806,906.519
514.258,910.174
515.71,933.316
517.161,944.234
518.613,928.332
520.065,897.295
521.517,902.882
522.969,907.415
524.42,908.153
525.872,906.315
527.324,908.203
528.776,920.469
530.228,921.1
531.679,933.639
533.131,932.595
534.583,920.296
536.035,920.352
537.486,899.787
538.938,876.97
540.39,895.857
541.842,910.547
543.294,908.994
544.745,914.006
546.197,918.824
547.649,916.459
549.101,911.917
550.553,912.324
552.004,912.936
553.456,919.471
554.908,916.955
556.36,917.097
557.811,916.387
559.263,928.539
560.715,922.256
562.167,902.347
563.619,918.42
565.07,912.357
566.522,909.056
567.974,897.12
569.426,893.627
570.878,915.979
572.329,889.387
573.781,921.637
575.233,929.801
576.685,921.11
578.137,911.616
579.588,911.49
581.04,904.352
582.492,900.787
583.944,912.057
585.395,913.931
586.847,904.406
588.299,896.917
589.751,902.977
591.203,928.021
592.654,906.723
594.106,893.02
595.558,905.299
597.01,901.142
598.462,902.213
599.913,900.297
601.365,920.759
602.817,924.111
604.269,914.894
605.72,923.88
607.172,922.3
608.624,894.181
610.076,907.06
611.528,910.811
612.979,908.381
614.431,906.956
615.883,917.108
617.335,916.263
618.787,923.827
620.238,924.852
621.69,910.061
623.142,906.403
624.594,926.451
626.046,906.269
627.497,907.346
628.949,917.945
630.401,915.506
631.853,899.129
633.304,910.902
634.756,928.422
636.208,911.997
637.66,929.91
639.112,941.239
640.563,930.748
642.015,933.152
643.467,943.621
644.919,925.157
646.371,920.08
647.822,923.111
649.274,931.723
650.726,935.742
652.178,967.706
653.629,946.77
655.081,953.25
656.533,947.485
657.985,938.596
659.437,937.042
660.888,957.366
662.34,943.681
663.792,944.175
665.244,939.481
666.696,935.254
668.147,942.351
669.599,945.387
671.051,939.223
672.503,939.778
673.954,948.012
675.406,948.689
676.858,947.099
678.31,950.773
679.762,945.942
681.213,959.441
682.665,958.078
684.117,957.653
685.569,949.821
687.021,938.358
688.472,953.416
689.924,938.191
691.376,943.727
692.828,932.75
694.28,932.354
695.731,946.901
697.183,939.195
698.635,931.871
700.087,945.908
701.538,955.684
702.99,952.01
704.442,957.411
705.894,965.952
707.346,952.443
708.797,971.643
710.249,954.236
711.701,971.481
713.153,982.12
714.605,977.117
716.056,970.183
717.508,952.703
718.96,963.547
720.412,949.64
721.863,958.906
723.315,971.902
724.767,975.121
726.219,968.702
727.671,953.996
729.122,960.374
730.574,966.981
732.026,960.006
733.478,950.215
734.93,955.616
736.381,959.366
737.833,966.053
739.285,973.461
740.737,969.27
742.189,973.6
743.64,983.07
745.092,973.654
746.544,942.936
747.996,956.479
749.447,984.791
750.899,976.519
752.351,957.575
753.803,951.989
755.255,954.605
756.706,958.424
758.158,946.657
759.61,956.512
761.062,967.75
762.514,965.677
763.965,966.03
765.417,984.452
766.869,972.27
768.321,947.07
769.772,966.03
771.224,965.035
772.676,960.634
774.128,993.459
775.58,961.679
777.031,973.592
778.483,959.669
779.935,978.26
781.387,989.073
782.839,982.217
784.29,998.756
785.742,1000.07
787.194,969.975
788.646,976.647
790.098,986.128
791.549,974.637
793.001,980.084
794.453,979.041
795.905,988.473
797.356,980.291
798.808,978.809
800.26,977.612
801.712,982.148
803.164,996.22
804.615,1011.78
806.067,978.163
807.519,989.739
808.971,995.789
810.423,993.629
811.874,993.507
813.326,1002.63
814.778,974.551
816.23,1000.11
817.681,991.2
819.133,1008.75
820.585,1029.62
822.037,1019.03
823.489,1004.51
824.94,1002.52
826.392,1003.63
827.844,1015.99
829.296,1023.52
830.748,1004.59
832.199,989.947
833.651,991.15
835.103,1035.01
836.555,1021.85
838.007,1027.82
839.458,1045.15
840.91,1043.21
842.362,1022.55
843.814,1016.46
845.265,1011.6
846.717,1015.56
848.169,1027.73
849.621,1065.23
851.073,1051.88
852.524,1039.62
853.976,1057.52
855.428,1053.38
856.88,1062.15
858.332,1062.69
859.783,1061.22
861.235,1047.23
862.687,1063.52
864.139,1070.26
865.59,1067.53
867.042,1073.39
868.494,1035.87
869.946,1029.33
871.398,1031.51
872.849,1050.08
874.301,1052.41
875.753,1047.41
877.205,1046.57
878.657,1052.4
880.108,1035.55
881.56,1039.63
883.012,1038.68
884.464,1041.09
885.915,1036.41
887.367,1029.98
888.819,1040.83
890.271,1034.48
891.723,1041.51
893.174,1062.39
894.626,1072.34
896.078,1079.55
897.53,1074.02
898.982,1060.75
900.433,1053.63
901.885,1044.15
903.337,1064.75
904.789,1076.8
906.241,1078.92
907.692,1082.32
909.144,1074
910.596,1079.83
912.048,1070.58
913.499,1089.42
914.951,1082.91
916.403,1075.42
917.855,1060.53
919.307,1042.78
920.758,1064.76
922.21,1095.45
923.662,1085.55
925.114,1089.98
926.566,1087.08
928.017,1087.29
929.469,1107.83
930.921,1098.28
932.373,1091.25
933.824,1052.32
935.276,1090.91
936.728,1108.93
938.18,1098.8
939.632,1105.4
941.083,1104.97
942.535,1088.3
943.987,1094.84
945.439,1115.13
946.891,1099.81
948.342,1089.07
949.794,1092.96
951.246,1094.97
952.698,1103.13
954.15,1123.51
955.601,1095.45
957.053,1083.31
958.505,1093.32
959.957,1098.37
961.408,1088.77
962.86,1084.63
964.312,1121.54
965.764,1123.55
967.216,1111.87
968.667,1094.32
970.119,1113.02
971.571,1106.18
973.023,1107.17
974.475,1117.04
975.926,1100.6
977.378,1109.68
978.83,1107.7
980.282,1114.99
981.733,1114.37
983.185,1125.44
984.637,1122.97
986.089,1114.94
987.541,1113.12
988.992,1134.87
990.444,1124.64
991.896,1146.39
993.348,1123.66
994.8,1132.95
996.251,1145.59
997.703,1128.18
999.155,1157.06
1000.61,1133.99
1002.06,1142.33
1003.51,1149.55
1004.96,1145.3
1006.41,1136.11
1007.87,1145.75
1009.32,1160.69
1010.77,1164.39
1012.22,1173.89
1013.67,1172.25
1015.12,1161.28
1016.58,1170.69
1018.03,1160.38
1019.48,1162.56
1020.93,1187.65
1022.38,1202.43
1023.84,1213.83
1025.29,1221.87
1026.74,1210.43
1028.19,1214.19
1029.64,1230.15
1031.09,1233.74
1032.55,1217.51
1034,1231.61
1035.45,1245.18
1036.9,1253.08
1038.35,1271.76
1039.8,1272.08
1041.26,1277.06
1042.71,1301.84
1044.16,1310.92
1045.61,1273.59
1047.06,1279.17
1048.52,1298.43
1049.97,1312.83
1051.42,1321.51
1052.87,1336.7
1054.32,1329.51
1055.77,1334.56
1057.23,1360.7
1058.68,1374.1
1060.13,1392.57
1061.58,1378.86
1063.03,1389.16
1064.49,1412.11
1065.94,1422.51
1067.39,1398.76
1068.84,1393.3
1070.29,1441.71
1071.74,1450.33
1073.2,1453.72
1074.65,1469.23
1076.1,1483.4
1077.55,1494.17
1079,1480.95
1080.46,1473.86
1081.91,1484.88
1083.36,1476.18
1084.81,1530.86
1086.26,1536.61
1087.71,1548.05
1089.17,1531.13
1090.62,1482.56
1092.07,1508.85
1093.52,1538.93
1094.97,1510.8
1096.42,1498.12
1097.88,1519.77
1099.33,1487.16
1100.78,1483.6
1102.23,1491.25
1103.68,1491.06
1105.14,1471.02
1106.59,1468.15
1108.04,1474.94
1109.49,1463.47
1110.94,1467.8
1112.39,1436.21
1113.85,1447.16
1115.3,1442.33
1116.75,1440.1
1118.2,1439.19
1119.65,1424.47
1121.11,1419.98
1122.56,1408.42
1124.01,1420.05
1125.46,1420.58
1126.91,1401.77
1128.36,1405.38
1129.82,1402.3
1131.27,1385.93
1132.72,1389.15
1134.17,1366.6
1135.62,1384.43
1137.07,1365.29
1138.53,1358.63
1139.98,1382.05
1141.43,1382.98
1142.88,1354.23
1144.33,1360.41
1145.79,1378.5
1147.24,1396.5
1148.69,1368.85
1150.14,1355.67
1151.59,1373.4
1153.04,1343.42
1154.5,1345.52
1155.95,1358.09
1157.4,1369.64
1158.85,1368.89
1160.3,1364.77
1161.76,1363.95
1163.21,1356.02
1164.66,1353.87
1166.11,1341.03
1167.56,1360.53
1169.01,1365.96
1170.47,1376.34
1171.92,1382.83
1173.37,1371.35
1174.82,1399.07
1176.27,1378.42
1177.72,1378.3
1179.18,1418.55
1180.63,1384.17
1182.08,1381.83
1183.53,1400.33
1184.98,1395.86
1186.44,1392.3
1187.89,1385.59
1189.34,1388.9
1190.79,1392.83
1192.24,1374.41
1193.69,1406.56
1195.15,1421.3
1196.6,1411.87
1198.05,1395.66
1199.5,1403.49
1200.95,1427.55
1202.41,1429.13
1203.86,1421.33
1205.31,1417.54
1206.76,1455.52
1208.21,1447.55
1209.66,1430.49
1211.12,1414.56
1212.57,1431.32
1214.02,1429.96
1215.47,1407.28
1216.92,1428.97
1218.37,1441.29
1219.83,1443.19
1221.28,1449.03
1222.73,1448.87
1224.18,1443.92
1225.63,1460.11
1227.09,1465.78
1228.54,1447.41
1229.99,1431.73
1231.44,1452.15
1232.89,1432.07
1234.34,1470.35
1235.8,1466.6
1237.25,1457.85
1238.7,1437.4
1240.15,1464.69
1241.6,1499.45
1243.06,1488.2
1244.51,1485.95
1245.96,1495.97
1247.41,1542.54
1248.86,1520.5
1250.31,1496.7
1251.77,1528.34
1253.22,1545.41
1254.67,1546.37
1256.12,1538.74
1257.57,1543.65
1259.02,1567.2
1260.48,1581.18
1261.93,1622.67
1263.38,1600.22
1264.83,1624.12
1266.28,1627.87
1267.74,1656.45
1269.19,1668.55
1270.64,1675.48
1272.09,1712.12
1273.54,1756.97
1274.99,1761.18
1276.45,1756.08
1277.9,1740.36
1279.35,1783.52
1280.8,1835.72
1282.25,1844.04
1283.71,1859.96
1285.16,1863.58
1286.61,1876.92
1288.06,1926.46
1289.51,1961.8
1290.96,1965.03
1292.42,2017.67
1293.87,2089.31
1295.32,2106.22
1296.77,2176.3
1298.22,2237.23
1299.67,2278.11
1301.13,2308.72
1302.58,2373.83
1304.03,2456.59
1305.48,2502.2
1306.93,2569.74
1308.39,2668.06
1309.84,2758.63
1311.29,2849.33
1312.74,2964.76
1314.19,3116.78
1315.64,3244.8
1317.1,3359.07
1318.55,3474.7
1320,3587.32
1321.45,3729.39
1322.9,3917.38
1324.36,4008.46
1325.81,4156.02
1327.26,4280.72
1328.71,4409.77
1330.16,4510.15
1331.61,4586
1333.07,4649.32
1334.52,4737.17
1335.97,4785.64
1337.42,4713.83
1338.87,4717.88
1340.33,4641.59
1341.78,4561.26
1343.23,4491.04
1344.68,4368.09
1346.13,4278.91
1347.58,4158.48
1349.04,3980.31
1350.49,3814.57
1351.94,3665.12
1353.39,3484.47
1354.84,3344.54
1356.29,3273.74
1357.75,3136.38
1359.2,3015.37
1360.65,2933.94
1362.1,2792.41
1363.55,2674.51
1365.01,2595.69
1366.46,2522.19
1367.91,2453.12
1369.36,2404.19
1370.81,2354.62
1372.26,2306.11
1373.72,2263.4
1375.17,2226.53
1376.62,2140.45
1378.07,2121.79
1379.52,2082.57
1380.98,2063.54
1382.43,2054.81
1383.88,2020.15
1385.33,1973.67
1386.78,1973.99
1388.23,1978.7
1389.69,1934.43
1391.14,1922.79
1392.59,1970.61
1394.04,1977.59
1395.49,1913.36
1396.94,1910.3
1398.4,1883.02
1399.85,1885.99
1401.3,1894.9
1402.75,1875.77
1404.2,1868.32
1405.66,1864.67
1407.11,1888.54
1408.56,1910.13
1410.01,1892.44
1411.46,1900.28
1412.91,1859.08
1414.37,1886.55
1415.82,1890.73
1417.27,1877.61
1418.72,1866.79
1420.17,1869.44
1421.63,1887.67
1423.08,1877.09
1424.53,1899.07
1425.98,1870.96
1427.43,1883.53
1428.88,1880
1430.34,1926.86
1431.79,1936.76
1433.24,1930.92
1434.69,1942.96
1436.14,1957.99
1437.59,1983.2
1439.05,1974.1
1440.5,1975.23
1441.95,2008.45
1443.4,2028.05
1444.85,2026.89
1446.31,1986.85
1447.76,2018.96
1449.21,2039.58
1450.66,2062.94
1452.11,2056.3
1453.56,2053.58
1455.02,2072
1456.47,2104.06
1457.92,2126.94
1459.37,2153.6
1460.82,2144.72
1462.28,2154.37
1463.73,2239.81
1465.18,2259.33
1466.63,2270.08
1468.08,2262.31
1469.53,2274.62
1470.99,2288.88
1472.44,2307
1473.89,2360.14
1475.34,2405.87
1476.79,2415.84
1478.24,2452.34
1479.7,2452.9
1481.15,2539.08
1482.6,2534.99
1484.05,2585.72
1485.5,2617.34
1486.96,2626.99
1488.41,2669.88
1489.86,2727.04
1491.31,2752.35
1492.76,2807.59
1494.21,2862.74
1495.67,2920.51
1497.12,2955.42
1498.57,3024.38
1500.02,3065.96
1501.47,3164.83
1502.93,3185.35
1504.38,3279.08
1505.83,3375.5
1507.28,3498.98
1508.73,3593.13
1510.18,3699.36
1511.64,3806.06
1513.09,3931.15
1514.54,4090.33
1515.99,4236.3
1517.44,4384.31
1518.89,4495.14
1520.35,4676.21
1521.8,4854.72
1523.25,5124.68
1524.7,5363.65
1526.15,5729.56
1527.61,5989.79
1529.06,6398.77
1530.51,6826.81
1531.96,7311.56
1533.41,7870.58
1534.86,8405.39
1536.32,9052.61
1537.77,9862.75
1539.22,10752
1540.67,11762.7
1542.12,12804.3
1543.58,13967.1
1545.03,15214.7
1546.48,16578.7
1547.93,18077.3
1549.38,19655.4
1550.83,21321.3
1552.29,23116.3
1553.74,24908.8
1555.19,26614.9
1556.64,28355.2
1558.09,30171.3
1559.54,31770
1561,33406.8
1562.45,34742.9
1563.9,35719.2
1565.35,36287.3
1566.8,36602.8
1568.26,36309.2
1569.71,35706.3
1571.16,34905.6
1572.61,33652.4
1574.06,32029.3
1575.51,30090.6
1576.97,28131.6
1578.42,26141.3
1579.87,24184.9
1581.32,22246.7
1582.77,20361.8
1584.23,18654
1585.68,16882.1
1587.13,15366.7
1588.58,14124.8
1590.03,12899.2
1591.48,11801.1
1592.94,10960.8
1594.39,10249.7
1595.84,9512.64
1597.29,8930.24
1598.74,8363.25
1600.2,7868.75
1601.65,7520.09
1603.1,7168.82
1604.55,6794.09
1606,6509.57
1607.45,6210.63
1608.91,5906.81
1610.36,5622.48
1611.81,5312.22
1613.26,5179.6
1614.71,4928.06
1616.16,4727.76
1617.62,4485.56
1619.07,4294.77
1620.52,4150.14
1621.97,3966.95
1623.42,3791.44
1624.88,3690.23
1626.33,3575.13
1627.78,3441.12
1629.23,3282.9
1630.68,3184.34
1632.13,3130.74
1633.59,3067.91
1635.04,2971.48
1636.49,2901.6
1637.94,2841.1
1639.39,2785.75
1640.85,2738.39
1642.3,2729.41
1643.75,2659.48
1645.2,2585.43
1646.65,2555.97
1648.1,2513.75
1649.56,2441.58
1651.01,2407.14
1652.46,2384.79
1653.91,2335.41
1655.36,2298.69
1656.81,2283.18
1658.27,2268.56
1659.72,2256.79
1661.17,2222.13
1662.62,2163.18
1664.07,2150.71
1665.53,2113.95
1666.98,2115.65
1668.43,2113.83
1669.88,2056.23
1671.33,2030.81
1672.78,2013.49
1674.24,1990.44
1675.69,1980.23
1677.14,1947.71
1678.59,1944.18
1680.04,1939.52
1681.5,1930.88
1682.95,1900.16
1684.4,1885.87
1685.85,1858.04
1687.3,1870.53
1688.75,1834.49
1690.21,1833.08
1691.66,1806.82
1693.11,1806.31
1694.56,1786.14
1696.01,1772.8
1697.46,1777.73
1698.92,1770.7
1700.37,1773.8
1701.82,1773.9
1703.27,1757.03
1704.72,1747.02
1706.18,1747.2
1707.63,1751.79
1709.08,1738.59
1710.53,1718.75
1711.98,1727.68
1713.43,1735.48
1714.89,1724.84
1716.34,1696.21
1717.79,1678.56
1719.24,1664.9
1720.69,1686.57
1722.15,1684.19
1723.6,1703.14
1725.05,1677.35
1726.5,1669.32
1727.95,1668.44
1729.4,1666.85
1730.86,1695.07
1732.31,1687.31
1733.76,1673.33
1735.21,1666.43
1736.66,1665.61
1738.11,1655.74
1739.57,1662.34
1741.02,1639.76
1742.47,1644.16
1743.92,1651.17
1745.37,1638.45
1746.83,1642.03
1748.28,1631.59
1749.73,1615.9
1751.18,1647.42
1752.63,1608.42
1754.08,1568.13
1755.54,1595.37
1756.99,1619.36
1758.44,1602.01
1759.89,1560.42
1761.34,1577.69
1762.8,1595.04
1764.25,1583.38
1765.7,1572.16
1767.15,1576.93
1768.6,1555.87
1770.05,1529.48
1771.51,1540.12
1772.96,1546.44
1774.41,1531.86
1775.86,1545.4
1777.31,1532.7
1778.76,1512.55
1780.22,1526.9
1781.67,1509.49
1783.12,1497.02
1784.57,1486.92
1786.02,1462.61
1787.48,1515.37
1788.93,1454.05
1790.38,1489.18
1791.83,1477.83
1793.28,1493.16
1794.73,1468.25
1796.19,1465.24
1797.64,1474.34
1799.09,1462.66
1800.54,1453.28
1801.99,1473.98
1803.45,1471.26
1804.9,1435.54
1806.35,1433.25
1807.8,1441.59
1809.25,1434.36
1810.7,1458.59
1812.16,1454.54
1813.61,1429.59
1815.06,1428.48
1816.51,1424.94
1817.96,1413.71
1819.41,1427.73
1820.87,1449.61
1822.32,1452.41
1823.77,1457.88
1825.22,1473.86
1826.67,1470.04
1828.13,1465.74
1829.58,1502.09
1831.03,1440.38
1832.48,1432.96
1833.93,1434.52
1835.38,1446.66
1836.84,1437.31
1838.29,1470.91
1839.74,1476.79
1841.19,1482.35
1842.64,1491.72
1844.1,1474.34
1845.55,1479.57
1847,1494.53
1848.45,1512.7
1849.9,1546.35
1851.35,1552.32
1852.81,1534.43
1854.26,1520.27
1855.71,1524.57
1857.16,1530.73
1858.61,1527.6
1860.07,1524.38
1861.52,1540.88
1862.97,1544.7
1864.42,1536.72
1865.87,1539.25
1867.32,1542.8
1868.78,1545.34
1870.23,1537.37
1871.68,1558.14
1873.13,1523.81
1874.58,1532.44
1876.03,1517.96
1877.49,1499.84
1878.94,1494.15
1880.39,1475.1
1881.84,1476.92
1883.29,1495.5
1884.75,1516.89
1886.2,1453.92
1887.65,1477.16
1889.1,1492.79
1890.55,1468.61
1892,1459.46
1893.46,1459.62
1894.91,1448.16
1896.36,1430.98
1897.81,1407.82
1899.26,1387.33
1900.72,1415.16
1902.17,1425.8
1903.62,1410.98
1905.07,1409.93
1906.52,1397.39
1907.97,1400.52
1909.43,1387.04
1910.88,1396.76
1912.33,1384.04
1913.78,1380.39
1915.23,1378.49
1916.68,1365.11
1918.14,1342.82
1919.59,1354.1
1921.04,1368.81
1922.49,1371.22
1923.94,1393.45
1925.4,1379.5
1926.85,1355.66
1928.3,1320.16
1929.75,1367.25
1931.2,1364.09
1932.65,1350.33
1934.11,1373.04
1935.56,1376.73
1937.01,1361.85
1938.46,1342.22
1939.91,1324.15
1941.37,1338.07
1942.82,1365.19
1944.27,1381.42
1945.72,1383.99
1947.17,1371.84
1948.62,1377.82
1950.08,1377.42
1951.53,1355.78
1952.98,1388.21
1954.43,1381.79
1955.88,1373.9
1957.33,1376.94
1958.79,1373.8
1960.24,1373.37
1961.69,1374.34
1963.14,1387.07
1964.59,1386.86
1966.05,1368.98
1967.5,1375.28
1968.95,1401.54
1970.4,1390.5
1971.85,1374.01
1973.3,1368.72
1974.76,1364.28
1976.21,1367.98
1977.66,1398.81
1979.11,1420.77
1980.56,1415.79
1982.02,1401.69
1983.47,1401.87
1984.92,1410.73
1986.37,1402.62
1987.82,1430.45
1989.27,1423.18
1990.73,1416.08
1992.18,1427.66
1993.63,1425.19
1995.08,1410.46
1996.53,1443.17
1997.98,1430.32
1999.44,1437.02
2000.89,1432.6
2002.34,1403.65
2003.79,1453.29
2005.24,1438.91
2006.7,1413.35
2008.15,1408.69
2009.6,1400.56
2011.05,1382.48
2012.5,1401.03
2013.95,1399.64
2015.41,1345.1
2016.86,1455.51
2018.31,1386.13
2019.76,1363.25
2021.21,1400.62
2022.67,1387.59
2024.12,1376.6
2025.57,1375.15
2027.02,1396.11
2028.47,1384.8
2029.92,1454.13
2031.38,1388.64
2032.83,1369.2
2034.28,1342.71
2035.73,1345.32
2037.18,1364.5
2038.63,1324.75
2040.09,1338.13
2041.54,1347.4
2042.99,1331.16
2044.44,1324.58
2045.89,1333.09
2047.35,1318.14
2048.8,1331.37
2050.25,1307.25
2051.7,1298.66
2053.15,1298.04
2054.6,1294.37
2056.06,1295.96
2057.51,1304.93
2058.96,1302.41
2060.41,1271.42
2061.86,1274.74
2063.32,1277.55
2064.77,1310.81
2066.22,1292.02
2067.67,1281.82
2069.12,1290.09
2070.57,1284.74
2072.03,1273.63
2073.48,1267
2074.93,1252.09
2076.38,1253.07
2077.83,1254.5
2079.28,1259.39
2080.74,1252.69
2082.19,1260.76
2083.64,1255.54
2085.09,1247.98
2086.54,1257.51
2088,1265.79
2089.45,1259.16
2090.9,1255.79
2092.35,1254.59
2093.8,1248.66
2095.25,1238.5
2096.71,1243.85
2098.16,1243.72
2099.61,1244.85
2101.06,1232.44
2102.51,1235.79
2103.97,1264.27
2105.42,1281.46
2106.87,1261.77
2108.32,1257.22
2109.77,1249.15
2111.22,1239.55
2112.68,1261.19
2114.13,1282.37
2115.58,1255.1
2117.03,1253.94
2118.48,1291.42
2119.94,1292.56
2121.39,1275.85
2122.84,1264.74
2124.29,1270.43
2125.74,1285.78
2127.19,1289.67
2128.65,1252.03
2130.1,1267.41
2131.55,1300.35
2133,1278.85
2134.45,1267.88
2135.9,1285.46
2137.36,1269.36
2138.81,1260.23
2140.26,1278.25
2141.71,1302.21
2143.16,1277.48
2144.62,1290.73
2146.07,1291.51
2147.52,1286.38
2148.97,1300.32
2150.42,1295.9
2151.87,1307.37
2153.33,1321.67
2154.78,1305.11
2156.23,1300.25
2157.68,1304.06
2159.13,1313.92
2160.58,1316.65
2162.04,1319.56
2163.49,1302.9
2164.94,1297.13
2166.39,1308.51
2167.84,1326.25
2169.3,1317.47
2170.75,1304.81
2172.2,1300.9
2173.65,1331.31
2175.1,1325.54
2176.55,1315.25
2178.01,1331.02
2179.46,1334.31
2180.91,1314.88
2182.36,1316.41
2183.81,1323.6
2185.27,1321.46
2186.72,1362.74
2188.17,1372.71
2189.62,1371.02
2191.07,1360.96
2192.52,1328.91
2193.98,1347.27
2195.43,1318.4
2196.88,1332.88
2198.33,1373.99
2199.78,1366.95
2201.24,1399.44
2202.69,1360.38
2204.14,1354.74
2205.59,1362.45
2207.04,1378.58
2208.49,1340.11
2209.95,1350.2
2211.4,1375.36
2212.85,1340.4
2214.3,1360.88
2215.75,1312.81
2217.2,1339.85
2218.66,1359.28
2220.11,1345.28
2221.56,1369.87
2223.01,1371.79
2224.46,1363.08
2225.92,1328.04
2227.37,1328.04
2228.82,1333.65
2230.27,1375.47
2231.72,1379.43
2233.17,1355.1
2234.63,1386.34
2236.08,1377.03
2237.53,1352.49
2238.98,1376.42
2240.43,1380.92
2241.89,1394.2
2243.34,1387.76
2244.79,1386.98
2246.24,1405.3
2247.69,1409.55
2249.14,1400.59
2250.6,1395.54
2252.05,1389.11
2253.5,1397.26
2254.95,1392.72
2256.4,1381.18
2257.85,1411.35
2259.31,1431.61
2260.76,1404.42
2262.21,1409.36
2263.66,1404.77
2265.11,1409.74
2266.57,1427.24
2268.02,1421.04
2269.47,1413.66
2270.92,1410.38
2272.37,1399.43
2273.82,1435.97
2275.28,1420.32
2276.73,1411.09
2278.18,1416.28
2279.63,1417.83
2281.08,1436.69
2282.54,1449.8
2283.99,1439.25
2285.44,1477.87
2286.89,1468.06
2288.34,1464.05
2289.79,1473.01
2291.25,1479.75
2292.7,1468.27
2294.15,1454.91
2295.6,1474.94
2297.05,1464.48
2298.5,1483.94
2299.96,1498.24
2301.41,1514.32
2302.86,1482.28
2304.31,1459.51
2305.76,1533.72
2307.22,1540.06
2308.67,1507.51
2310.12,1498.63
2311.57,1494.83
2313.02,1541.13
2314.47,1564.89
2315.93,1525.69
2317.38,1527.5
2318.83,1546.4
2320.28,1502.69
2321.73,1513.09
2323.19,1542.11
2324.64,1565.09
2326.09,1570.74
2327.54,1575.52
2328.99,1562.12
2330.44,1567.97
2331.9,1578.07
2333.35,1577.17
2334.8,1592.74
2336.25,1597.66
2337.7,1601.77
2339.16,1597.6
2340.61,1597.82
2342.06,1624.65
2343.51,1635.98
2344.96,1633.63
2346.41,1651.72
2347.87,1629.57
2349.32,1639.96
2350.77,1683.92
2352.22,1690.99
2353.67,1696.16
2355.12,1699.23
2356.58,1702.53
2358.03,1690.6
2359.48,1722.52
2360.93,1688.09
2362.38,1712.94
2363.84,1733.62
2365.29,1737.82
2366.74,1734.83
2368.19,1759.19
2369.64,1794.04
2371.09,1822.3
2372.55,1852.37
2374,1854.32
2375.45,1890.73
2376.9,1890.28
2378.35,1904.51
2379.8,1949.52
2381.26,1945.5
2382.71,1959.94
2384.16,1963.24
2385.61,1991.48
2387.06,2018.05
2388.52,2009.8
2389.97,2079.16
2391.42,2112.68
2392.87,2149.01
2394.32,2178
2395.77,2238.99
2397.23,2210.65
2398.68,2224.9
2400.13,2292.02
2401.58,2343.62
2403.03,2393.48
2404.49,2403.42
2405.94,2442.59
2407.39,2501.24
2408.84,2526.81
2410.29,2560.8
2411.74,2586.58
2413.2,2618.73
2414.65,2639.64
2416.1,2717.92
2417.55,2767.15
2419,2764.76
2420.46,2768.84
2421.91,2781.1
2423.36,2745.02
2424.81,2769.39
2426.26,2846.66
2427.71,2833.68
2429.17,2841.08
2430.62,2903.59
2432.07,2869.56
2433.52,2876.11
2434.97,2802.92
2436.42,2826.06
2437.88,2857.28
2439.33,2826.23
2440.78,2817.34
2442.23,2783.93
2443.68,2756.69
2445.14,2780.72
2446.59,2744.94
2448.04,2758.86
2449.49,2756.69
2450.94,2727.05
2452.39,2683.96
2453.85,2676.7
2455.3,2654.77
2456.75,2642.61
2458.2,2623.68
2459.65,2611.71
2461.1,2592.99
2462.56,2567.58
2464.01,2581.83
2465.46,2557.59
2466.91,2506.69
2468.36,2526.2
2469.82,2477.67
2471.27,2548.83
2472.72,2537.19
2474.17,2490.1
2475.62,2468.72
2477.07,2444.42
2478.53,2435.48
2479.98,2414.49
2481.43,2424.24
2482.88,2471.11
2484.33,2473.48
2485.79,2476.66
2487.24,2432.16
2488.69,2431.41
2490.14,2425.13
2491.59,2453.96
2493.04,2448.77
2494.5,2446.68
2495.95,2423.56
2497.4,2455.32
2498.85,2431.55
2500.3,2471.25
2501.76,2488.35
2503.21,2478.14
2504.66,2513.36
2506.11,2489.88
2507.56,2469.78
2509.01,2455.11
2510.47,2536.01
2511.92,2514.41
2513.37,2515.26
2514.82,2563.18
2516.27,2574.29
2517.72,2592.1
2519.18,2583.77
2520.63,2561.74
2522.08,2595.09
2523.53,2627.73
2524.98,2647.15
2526.44,2618.71
2527.89,2651.65
2529.34,2694.38
2530.79,2737.85
2532.24,2753.17
2533.69,2760.48
2535.15,2797.41
2536.6,2786.51
2538.05,2895.34
2539.5,2865.32
2540.95,2893.67
2542.41,2926.07
2543.86,2966.45
2545.31,2999.27
2546.76,3028.34
2548.21,3009.24
2549.66,3062.93
2551.12,3112.35
2552.57,3199.27
2554.02,3248.26
2555.47,3254.25
2556.92,3283.94
2558.37,3326.62
2559.83,3391.67
2561.28,3424.11
2562.73,3458.48
2564.18,3581.34
2565.63,3658.69
2567.09,3683.39
2568.54,3738.57
2569.99,3799.64
2571.44,3879.14
2572.89,3926.77
2574.34,4008.3
2575.8,4022.95
2577.25,4215.29
2578.7,4342.32
2580.15,4407.07
2581.6,4478.91
2583.06,4563.51
2584.51,4659.91
2585.96,4800.55
2587.41,4973.45
2588.86,5088.99
2590.31,5199.47
2591.77,5304.92
2593.22,5501.11
2594.67,5642.25
2596.12,5809.62
2597.57,6031.43
2599.02,6204.88
2600.48,6385.08
2601.93,6588.53
2603.38,6793.29
2604.83,7077.42
2606.28,7296.73
2607.74,7603.25
2609.19,7805.43
2610.64,8116.7
2612.09,8341.98
2613.54,8699.49
2614.99,9052.71
2616.45,9411.01
2617.9,9795.5
2619.35,10186.7
2620.8,10555.1
2622.25,10998.2
2623.71,11428.2
2625.16,11927
2626.61,12375.2
2628.06,12819.2
2629.51,13440.5
2630.96,13887.3
2632.42,14513.8
2633.87,15010.3
2635.32,15563.7
2636.77,16100.3
2638.22,16709.1
2639.68,17224.7
2641.13,17653.1
2642.58,18158.2
2644.03,18728.1
2645.48,19202.9
2646.93,19772.4
2648.39,20050.8
2649.84,20582.2
2651.29,20948.3
2652.74,21230.5
2654.19,21480.8
2655.64,21857.2
2657.1,21980.8
2658.55,22128.4
2660,22266.7
2661.45,22227.4
2662.9,22077.8
2664.36,21958.3
2665.81,21830.8
2667.26,21538.4
2668.71,21390.5
2670.16,21163.5
2671.61,20862.4
2673.07,20364.5
2674.52,19929.9
2675.97,19295.7
2677.42,18876.1
2678.87,18343.5
2680.32,17883.6
2681.78,17278.5
2683.23,16672.7
2684.68,16086.9
2686.13,15547.8
2687.58,14925.8
2689.04,14463.6
2690.49,13852.1
2691.94,13338.4
2693.39,12773.1
2694.84,12224.5
2696.29,11724.7
2697.75,11218
2699.2,10819.2
2700.65,10355.8
2702.1,9873.29
2703.55,9455.63
2705.01,9024.11
2706.46,8725.01
2707.91,8327.34
2709.36,8011.85
2710.81,7662.46
2712.26,7310.9
2713.72,7087.83
2715.17,6841
2716.62,6565.84
2718.07,6270.15
2719.52,6085.42
2720.98,5891.75
2722.43,5645.61
2723.88,5468.88
2725.33,5311.33
2726.78,5111.24
2728.23,4927.56
2729.69,4852.91
2731.14,4664.42
2732.59,4518.21
2734.04,4422.11
2735.49,4301.78
2736.94,4167.67
2738.4,4066.29
2739.85,3960.81
2741.3,3820.74
2742.75,3778.86
2744.2,3752.12
2745.66,3585.2
2747.11,3508.27
2748.56,3448.19
2750.01,3404.34
2751.46,3353
2752.91,3310.14
2754.37,3217.35
2755.82,3167.79
2757.27,3104.7
2758.72,3063.13
2760.17,2950.62
2761.63,2947.7
2763.08,2917.29
2764.53,2836.22
2765.98,2842.64
2767.43,2799.31
2768.88,2710.97
2770.34,2716.21
2771.79,2659.4
2773.24,2615.02
2774.69,2581.98
2776.14,2560.07
2777.59,2588.15
2779.05,2506.16
2780.5,2484.62
2781.95,2472.51
2783.4,2483.9
2784.85,2457.48
2786.31,2408.05
2787.76,2372.09
2789.21,2370.62
2790.66,2338.31
2792.11,2311.8
2793.56,2272.96
2795.02,2269.17
2796.47,2261.72
2797.92,2258.8
2799.37,2230.33
2800.82,2231.13
2802.28,2226.47
2803.73,2177.4
2805.18,2163.78
2806.63,2166.68
2808.08,2139.66
2809.53,2098.61
2810.99,2110.91
2812.44,2106.84
2813.89,2054.01
2815.34,2061.4
2816.79,2035.42
2818.24,2053.48
2819.7,2051.49
2821.15,2035.39
2822.6,2010.24
2824.05,1999.41
2825.5,1993.64
2826.96,2011.29
2828.41,1986.79
2829.86,2003.24
2831.31,1944.64
2832.76,1924.73
2834.21,1946.2
2835.67,1957.51
2837.12,1953.8
2838.57,1951.99
2840.02,1904.05
2841.47,1933.13
2842.93,1871.56
2844.38,1894.96
2845.83,1879.65
2847.28,1860.84
2848.73,1850.68
2850.18,1876.84
2851.64,1870.42
2853.09,1879.2
2854.54,1869.43
2855.99,1854.73
2857.44,1830.53
2858.9,1869
2860.35,1845.14
2861.8,1831.59
2863.25,1858.49
2864.7,1834.12
2866.15,1839.98
2867.61,1855.44
2869.06,1869.54
2870.51,1858.74
2871.96,1928.43
2873.41,1876.66
2874.86,1876.62
2876.32,1834.43
2877.77,1853.35
2879.22,1841.09
2880.67,1862.34
2882.12,1889.62
2883.58,1885.45
2885.03,1880.44
2886.48,1869.51
2887.93,1824.45
2889.38,1851.64
2890.83,1836.96
2892.29,1893.87
2893.74,1868.59
2895.19,1843.52
2896.64,1837.43
2898.09,1837.79
2899.54,1843.57
2901,1825.1
2902.45,1826.56
2903.9,1894.53
2905.35,1828.65
2906.8,1860.65
2908.26,1862.26
2909.71,1855.19
2911.16,1828.55
2912.61,1813.52
2914.06,1792.5
2915.51,1806.53
2916.97,1787.61
2918.42,1806.12
2919.87,1794.56
2921.32,1800.54
2922.77,1775.89
2924.23,1763.35
2925.68,1744.6
2927.13,1746.4
2928.58,1776.35
2930.03,1737.25
2931.48,1735.84
2932.94,1691.41
2934.39,1711.02
2935.84,1698.54
2937.29,1687.61
2938.74,1661.23
2940.2,1669.45
2941.65,1637.31
2943.1,1596.54
2944.55,1604.1
2946,1610.92
2947.45,1565.04
2948.91,1545
2950.36,1559.49
2951.81,1573.62
2953.26,1524.96
2954.71,1535.98
2956.16,1553.13
2957.62,1525.43
2959.07,1500.89
2960.52,1510.91
2961.97,1482.63
2963.42,1479.87
2964.88,1438.14
2966.33,1442.03
2967.78,1469.28
2969.23,1449.78
2970.68,1434.88
2972.13,1441.57
2973.59,1411.78
2975.04,1404.69
2976.49,1419.01
2977.94,1410.47
2979.39,1399.61
2980.84,1393.26
2982.3,1396.61
2983.75,1373.65
2985.2,1367.66
2986.65,1345.74
2988.1,1372.07
2989.56,1373.06
2991.01,1368.85
2992.46,1377.13
2993.91,1361.24
2995.36,1347.94
2996.81,1331.15
2998.27,1337.98
2999.72,1343.04
3001.17,1318.14
3002.62,1314.41
3004.07,1305.74
3005.53,1342.11
3006.98,1331.14
3008.43,1315.43
3009.88,1317.52
3011.33,1312.14
3012.78,1316.38
3014.24,1316.15
3015.69,1276.05
3017.14,1302.18
3018.59,1292.93
3020.04,1283.02
3021.5,1302.36
3022.95,1292.96
3024.4,1290.34
3025.85,1304.55
3027.3,1300.74
3028.75,1278.59
3030.21,1328.75
3031.66,1272.54
3033.11,1295.37
3034.56,1306.84
3036.01,1282.53
3037.46,1284.46
3038.92,1290.79
3040.37,1273.03
3041.82,1288.65
3043.27,1304.51
3044.72,1266.57
3046.18,1279.54
3047.63,1286.87
3049.08,1291.84
3050.53,1295.03
3051.98,1293.59
3053.43,1287.45
3054.89,1287.11
3056.34,1289.81
3057.79,1291.27
3059.24,1311.88
3060.69,1306.14
3062.15,1302.63
3063.6,1300.36
3065.05,1307.68
3066.5,1322.27
3067.95,1310.42
3069.4,1293.84
3070.86,1306.46
3072.31,1313.76
3073.76,1314.91
3075.21,1349.1
3076.66,1313.13
3078.11,1355.01
3079.57,1352.37
3081.02,1353.2
3082.47,1352.86
3083.92,1369.37
3085.37,1373.46
3086.83,1397.15
3088.28,1379.06
3089.73,1382.92
3091.18,1383.36
3092.63,1413.15
3094.08,1444.79
3095.54,1440.25
3096.99,1447.73
3098.44,1492.27
3099.89,1478.77
3101.34,1478.48
3102.8,1531.49
3104.25,1562.61
3105.7,1579.72
3107.15,1603.5
3108.6,1595.08
3110.05,1604.02
3111.51,1623.29
3112.96,1643.49
3114.41,1709
3115.86,1698.73
3117.31,1710.77
3118.76,1688.74
3120.22,1744.23
3121.67,1771.04
3123.12,1769.8
3124.57,1799.61
3126.02,1840.92
3127.48,1832.5
3128.93,1923.98
3130.38,1903.34
3131.83,1890.36
3133.28,1902.29
3134.73,1937.45
3136.19,1920.21
3137.64,1929.33
3139.09,1908.86
3140.54,1964.76
3141.99,1973.47
3143.45,1984.97
3144.9,1965.3
3146.35,1984.55
3147.8,2001.1
3149.25,2032.59
3150.7,2008
3152.16,2059.41
3153.61,2044.57
3155.06,2007.69
3156.51,2022.7
3157.96,2032.1
3159.42,2056.09
3160.87,2000.29
3162.32,2044.18
3163.77,2053
3165.22,2049.07
3166.67,2076.78
3168.13,2080.51
3169.58,2048
3171.03,2030.76
3172.48,2070.59
3173.93,2066.97
3175.38,2103.19
3176.84,2142.57
3178.29,2140.57
3179.74,2180.88
3181.19,2184.03
3182.64,2206.46
3184.1,2262.01
3185.55,2229.49
3187,2269.59
3188.45,2282.87
3189.9,2275.68
3191.35,2329.57
3192.81,2314.86
3194.26,2316.77
3195.71,2350.69
3197.16,2352.73
3198.61,2331.14
3200.06,2394.76
3201.52,2384.98
3202.97,2390.32
3204.42,2343.31
3205.87,2365.62
3207.32,2375.52
3208.78,2338.18
3210.23,2369.31
3211.68,2275.94
3213.13,2217.54
3214.58,2203.09
3216.03,2161.88
3217.49,2149.38
3218.94,2105.37
3220.39,2067.32
3221.84,2020.66
3223.29,1989.07
3224.75,1910.53
3226.2,1874.3
3227.65,1857.1
3229.1,1808.61
3230.55,1759.04
3232,1729.51
3233.46,1681.28
3234.91,1639.93
3236.36,1612.67
3237.81,1616.04
3239.26,1531.34
3240.72,1477.13
3242.17,1465.87
3243.62,1465.47
3245.07,1431.67
3246.52,1394.94
3247.97,1349.76
3249.43,1382.81
3250.88,1314.41
3252.33,1285.21
3253.78,1276.83
3255.23,1262.55
3256.68,1240.83
3258.14,1280.89
3259.59,1243.41
3261.04,1225
3262.49,1203
3263.94,1201.77
3265.4,1182.01
3266.85,1152.75
3268.3,1186.92
3269.75,1184.43
3271.2,1155.87
3272.65,1164.47
3274.11,1149.05
3275.56,1144.43
3277.01,1138.88
3278.46,1133.38
3279.91,1118.24
3281.37,1119.66
3282.82,1135.35
3284.27,1142.68
3285.72,1090.52
3287.17,1112.15
3288.62,1106.52
3290.08,1099.31
3291.53,1089.44
3292.98,1070.76
3294.43,1104.22
3295.88,1083.48
3297.33,1094.82
3298.79,1093.66
3300.24,1113.61
3301.69,1093.58
3303.14,1094.44
3304.59,1078.04
3306.05,1139.45
3307.5,1094.56
3308.95,1085.37
3310.4,1088.89
3311.85,1076.27
3313.3,1075.67
3314.76,1068.86
3316.21,1085.95
3317.66,1079.64
3319.11,1061.42
3320.56,1077.62
3322.02,1064.79
3323.47,1070.73
3324.92,1077.83
3326.37,1084.12
3327.82,1083.67
3329.27,1076.42
3330.73,1069.65
3332.18,1077.21
3333.63,1087
3335.08,1048.87
3336.53,1043.74
3337.98,1085.05
3339.44,1055.83
3340.89,1057.03
3342.34,1065.27
3343.79,1075.76
3345.24,1065.02
3346.7,1059.21
3348.15,1051.05
3349.6,1058.73
3351.05,1063.09
3352.5,1036.65
3353.95,1067.53
3355.41,1050.09
3356.86,1020.25
3358.31,1041.89
3359.76,1072.68
3361.21,1057.09
3362.67,1064.95
3364.12,1046.18
3365.57,1053.19
3367.02,1059.85
3368.47,1040.85
3369.92,1054.37
3371.38,1066.81
3372.83,1054.6
3374.28,1018.71
3375.73,1030.36
3377.18,1052.97
3378.63,1059.75
3380.09,1067.87
3381.54,1029.48
3382.99,1028.85
3384.44,1028.52
3385.89,1021.58
3387.35,1044.24
3388.8,1025.51
3390.25,1036.11
3391.7,1024.12
3393.15,1020.02
3394.6,1032.09
3396.06,1041.91
3397.51,1047.15
3398.96,1056.98
3400.41,1032.52
3401.86,1027.88
3403.32,1038.42
3404.77,1044.78
3406.22,1064.48
3407.67,1022.99
3409.12,1033.96
3410.57,1025.01
3412.03,1017.53
3413.48,1000.96
3414.93,1045.37
3416.38,1042.22
3417.83,1027.77
3419.28,1025.11
3420.74,1062.72
3422.19,1021.67
3423.64,1049.27
3425.09,1033.95
3426.54,1018.8
3428,995.228
3429.45,1033.32
3430.9,1039.19
3432.35,1045.73
3433.8,1046.55
3435.25,1010.79
3436.71,1015.49
3438.16,1015.44
3439.61,1043.34
3441.06,1037.79
3442.51,1015.56
3443.97,1006.17
3445.42,997.218
3446.87,1034.49
3448.32,1011.08
3449.77,1004.17
3451.22,1010.13
3452.68,1046.82
3454.13,995.557
3455.58,999.303
3457.03,1038.48
3458.48,1018.19
3459.94,1020.05
3461.39,1002.99
3462.84,1017.88
3464.29,1024.35
3465.74,1020.91
3467.19,1021.3
3468.65,991.866
3470.1,1029.9
3471.55,1017.54
3473,995.757
3474.45,977.116
3475.9,1021.99
3477.36,1040.03
3478.81,1045.51
3480.26,1033.7
3481.71,998.026
3483.16,1018.3
3484.62,981.911
3486.07,1028.12
3487.52,1006.47
3488.97,988.786
3490.42,1012.61
3491.87,1018.74
3493.33,1029.37
3494.78,1011.58
3496.23,1011.73
3497.68,1014.73
3499.13,1013.3
3500.58,1024.62
3502.04,1041.2
3503.49,1011.67
3504.94,992.978
3506.39,983.943
3507.84,1020.89
3509.3,1047.78
3510.75,1051.2
3512.2,1008.66
3513.65,1011
3515.1,1026.06
3516.55,1014.92
3518.01,1027.64
3519.46,1019.22
3520.91,1014.24
3522.36,1012.03
3523.81,1016.39
3525.27,1017.5
3526.72,999.945
3528.17,1023.55
3529.62,1007.4
3531.07,1020.87
3532.52,1030.44
3533.98,1024.39
3535.43,1035.6
3536.88,1022.02
3538.33,990.822
3539.78,1016.2
3541.24,1023
3542.69,1002.69
3544.14,1024.65
3545.59,1029.29
3547.04,1012.97
3548.49,1004.13
3549.95,1020.94
3551.4,1005.3
3552.85,993.069
3554.3,997.235
3555.75,1026.39
3557.2,1034.96
3558.66,1006.75
3560.11,1000.78
3561.56,1009.09
3563.01,1010.58
3564.46,1015.36
3565.92,1015.24
3567.37,1008.65
3568.82,1011.82
3570.27,1013.31
3571.72,994.684
3573.17,1003.18
3574.63,1018.89
3576.08,1014.75
3577.53,1033.57
3578.98,980.526
3580.43,1001.48
3581.89,995.952
3583.34,998.107
3584.79,986.902
3586.24,1021.94
3587.69,998.144
3589.14,1019.11
3590.6,1020.82
3592.05,1000.4
3593.5,1002.35
3594.95,995.897
3596.4,987.094
3597.85,987.897
3599.31,1014.7
3600.76,1018.23
3602.21,991.971
3603.66,1016.83
3605.11,971.159
3606.57,1015.6
3608.02,1012.73
3609.47,1005.58
3610.92,1011.5
3612.37,1034.39
3613.82,1002.45
3615.28,1006.93
3616.73,989.836
3618.18,1034.82
3619.63,988.018
3621.08,1020.92
3622.54,1012.05
3623.99,1019.51
3625.44,1026.25
3626.89,1016.67
3628.34,993.533
3629.79,999.178
3631.25,1002.07
3632.7,1010.65
3634.15,1001.82
3635.6,996.551
3637.05,988.944
3638.5,1009.79
3639.96,1001.9
3641.41,1012.44
3642.86,1006.33
3644.31,992.472
3645.76,1011.41
3647.22,1002.09
3648.67,1002.25
3650.12,989.212
3651.57,994.706
3653.02,981.112
3654.47,1009.16
3655.93,1040.89
3657.38,1010.86
3658.83,1019.44
3660.28,1010
3661.73,1009.74
3663.19,996.183
3664.64,1019.32
3666.09,979.815
3667.54,1005.72
3668.99,1010.49
3670.44,1029.87
3671.9,1009.32
3673.35,1000.35
3674.8,1033.49
3676.25,1022.36
3677.7,986.955
3679.16,1009.07
3680.61,1010.01
3682.06,1029.12
3683.51,1010.48
3684.96,1017.89
3686.41,1017.56
3687.87,1008.37
3689.32,1021.14
3690.77,991.831
3692.22,1024.16
3693.67,1002.33
3695.12,1008.54
3696.58,1015.52
3698.03,1023.22
3699.48,1023.78
3700.93,1023.07
3702.38,1008.73
3703.84,1032.17
3705.29,1016.42
3706.74,996.169
3708.19,1017.1
3709.64,1053.42
3711.09,1033.76
3712.55,1025.62
3714,1006.28
3715.45,1011.98
3716.9,1018.93
3718.35,1027.1
3719.8,1035.89
3721.26,1018.57
3722.71,1001.63
3724.16,1018.23
3725.61,1031.1
3727.06,1030.67
3728.52,1017.51
3729.97,1013.02
3731.42,1030.5
3732.87,1025.33
3734.32,1019.05
3735.77,1046.38
3737.23,1042.1
3738.68,1027.37
3740.13,998.998
3741.58,1037.68
3743.03,1007.36
3744.49,1012.8
3745.94,1050.7
3747.39,1028.63
3748.84,1036.65
3750.29,1046.83
3751.74,1021.53
3753.2,1022.92
3754.65,1022.84
3756.1,1003.77
3757.55,1028.1
3759,1017.91
3760.46,1033.94
3761.91,1040.97
3763.36,1045.41
3764.81,1047.95
3766.26,1052.9
3767.71,1013.28
3769.17,1026.55
3770.62,1044.68
3772.07,1005.7
3773.52,1016.32
3774.97,1032.48
3776.42,1012.16
3777.88,1028.59
3779.33,1031.18
3780.78,1050.45
3782.23,1052.01
3783.68,1054.2
3785.14,1072.04
3786.59,1033.37
3788.04,1025.07
3789.49,1013.55
3790.94,1047.58
3792.39,1048.2
3793.85,1039.77
3795.3,1053.06
3796.75,1057.95
3798.2,1050.16
3799.65,1042.55
3801.1,1045.27
3802.56,998.018
3804.01,1056.66
3805.46,1043.82
3806.91,1040.21
3808.36,1066.71
3809.82,1058.55
3811.27,1041.81
3812.72,1037.29
3814.17,1041.13
3815.62,1072.14
3817.07,1062.26
3818.53,1061.37
3819.98,1098.03
3821.43,1033.88
3822.88,1035.48
3824.33,1036.25
3825.79,1059.9
3827.24,1106.6
3828.69,1103.05
3830.14,1043.19
3831.59,1075.42
3833.04,1045.14
3834.5,1054.44
3835.95,1059.56
3837.4,1070.85
3838.85,1060.12
3840.3,1058.28
3841.76,1111.49
3843.21,1024.24
3844.66,1053.83
3846.11,1055.16
3847.56,1035.95
3849.01,1104.64
3850.47,1033.82
3851.92,1067.6
3853.37,1029.77
3854.82,1043.96
3856.27,1076.03
3857.72,1077.04
3859.18,1090.28
3860.63,1086.79
3862.08,1045.56
3863.53,1076.72
3864.98,1088.72
3866.44,1118.06
3867.89,1071.51
3869.34,1061.59
3870.79,1083.13
3872.24,1087.28
3873.69,1074.57
3875.15,1087.1
3876.6,1057.01
3878.05,1069.68
3879.5,1098.19
3880.95,1066.43
3882.41,1081.07
3883.86,1097.39
3885.31,1079.12
3886.76,1074.36
3888.21,1089.6
3889.66,1093.05
3891.12,1085.55
3892.57,1119.69
3894.02,1116.31
3895.47,1123.19
3896.92,1109.17
3898.37,1108.31
3899.83,1101.29
3901.28,1088.34
3902.73,1113.78
3904.18,1101.95
3905.63,1125.83
3907.09,1114.83
3908.54,1117.69
3909.99,1142.05
3911.44,1128.37
3912.89,1131.32
3914.34,1129.68
3915.8,1097.17
3917.25,1120.11
3918.7,1161.96
3920.15,1148.91
3921.6,1178.2
3923.06,1149.54
3924.51,1115.75
3925.96,1165.13
3927.41,1157.09
3928.86,1145.07
3930.31,1197.52
3931.77,1170.76
3933.22,1175.56
3934.67,1179.56
3936.12,1175.02
3937.57,1180.26
3939.02,1184.51
3940.48,1174.66
3941.93,1162.68
3943.38,1171.65
3944.83,1186.25
3946.28,1181.27
3947.74,1185.36
3949.19,1181.86
3950.64,1191.76
3952.09,1170.77
3953.54,1161.27
3954.99,1200.18
3956.45,1193.21
3957.9,1182.85
3959.35,1240.21
3960.8,1198.27
3962.25,1212.88
3963.71,1197.46
3965.16,1202.33
3966.61,1217.26
3968.06,1215.01
3969.51,1223.65
3970.96,1205.44
3972.42,1220.89
3973.87,1224.42
3975.32,1235.95
3976.77,1224.89
3978.22,1235.53
3979.68,1232.43
3981.13,1227.29
3982.58,1257.78
3984.03,1241.67
3985.48,1274.16
3986.93,1231.08
3988.39,1261.89
3989.84,1295.27
3991.29,1262.05
3992.74,1257.38
3994.19,1246.91
3995.64,1274.81
3997.1,1275.16
3998.55,1284.38
4000,1281.36
