-20,1461.42
-18.5482,1470.31
-17.0964,1463.2
-15.6446,1455.87
-14.1928,1466.91
-12.7411,1475.95
-11.2893,1480.19
-9.83749,1484
-8.3857,1498.99
-6.93391,1524.7
-5.48212,1752.77
-4.03034,5067.14
-2.57855,15603.6
-1.12676,52246.5
0.325027,75560.5
1.77681,78074.5
3.2286,53826.5
4.68039,20420.4
6.13218,6753.48
7.58397,2062.85
9.03575,1557.13
10.4875,1538.81
11.9393,1541.38
13.3911,1547.58
14.8429,1546.03
16.2947,1539.48
17.7465,1532.09
19.1983,1514.24
20.6501,1500.79
22.1018,1491.51
23.5536,1484.09
25.0054,1476.58
26.4572,1471.31
27.909,1467.07
29.3608,1464.18
30.8126,1459.56
32.2644,1458.97
33.7161,1455.5
35.1679,1454.08
36.6197,1455.48
38.0715,1460.19
39.5233,1460.29
40.9751,1461.94
42.4269,1466.27
43.8787,1470.51
45.3304,1480.67
46.7822,1490.62
48.234,1519.98
49.6858,1584.92
51.1376,1693.81
52.5894,1869.25
54.0412,2134.52
55.493,2497.26
56.9447,2935.55
58.3965,3400.63
59.8483,3860.13
61.3001,4176.77
62.7519,4419.11
64.2037,4639.84
65.6555,4746.93
67.1073,4854.31
68.559,4914.74
70.0108,4961.64
71.4626,5070.24
72.9144,5141.51
74.3662,5187.1
75.818,5232.77
77.2698,5307.71
78.7216,5461.04
80.1733,5574.61
81.6251,5678.5
83.0769,5732.6
84.5287,5758.69
85.9805,5786.79
87.4323,5708.83
88.8841,5583.48
90.3359,5464.89
91.7877,5314.59
93.2394,5160.23
94.6912,4963.39
96.143,4822.74
97.5948,4701.89
99.0466,4517.08
100.498,4452.49
101.95,4322.04
103.402,4223.07
104.854,4160.1
106.306,4129.7
107.757,4099.05
109.209,4080.16
110.661,4043.32
112.113,3987.27
113.564,3961.68
115.016,3940.76
116.468,3893.2
117.92,3850.31
119.372,3821.77
120.823,3779.86
122.275,3702.32
123.727,3637.51
125.179,3579.64
126.631,3556.11
128.082,3557.38
129.534,3474.19
130.986,3436.07
132.438,3417.83
133.889,3371.36
135.341,3338.73
136.793,3323.35
138.245,3286.45
139.697,3255.9
141.148,3213.57
142.6,3205.4
144.052,3163.4
145.504,3123.77
146.956,3103.04
148.407,3093.24
149.859,3095
151.311,3050.03
152.763,3013.83
154.215,3011.36
155.666,3011.92
157.118,2978.43
158.57,3030.34
160.022,3044.54
161.473,3034.29
162.925,3044.77
164.377,3109.31
165.829,3132.06
167.281,3147.68
168.732,3169.68
170.184,3140.51
171.636,3063.9
173.088,3005.17
174.54,2949.54
175.991,2881.57
177.443,2862.55
178.895,2846.4
180.347,2850.28
181.798,2829.3
183.25,2805.18
184.702,2792.85
186.154,2790.8
187.606,2777.41
189.057,2762.12
190.509,2748.66
191.961,2732.67
193.413,2774.15
194.865,2764.59
196.316,2746.87
197.768,2727.8
199.22,2748.67
200.672,2727.05
202.124,2729.78
203.575,2735.33
205.027,2704.71
206.479,2713.63
207.931,2719.87
209.382,2735.5
210.834,2729.29
212.286,2699.78
213.738,2694.32
215.19,2723
216.641,2722.36
218.093,2722.79
219.545,2717.41
220.997,2689.15
222.449,2682.62
223.9,2674.35
225.352,2689.2
226.804,2698.37
228.256,2677.74
229.707,2670.44
231.159,2684.64
232.611,2696.25
234.063,2700.23
235.515,2724.52
236.966,2681.88
238.418,2685.52
239.87,2702.38
241.322,2693.02
242.774,2668.89
244.225,2659.9
245.677,2667.55
247.129,2666.75
248.581,2661.9
250.033,2626.31
251.484,2653.77
252.936,2643.79
254.388,2627.19
255.84,2624.4
257.291,2663.85
258.743,2660.52
260.195,2621.64
261.647,2628.59
263.099,2631.15
264.55,2582.73
266.002,2571.88
267.454,2594.3
268.906,2603.27
270.358,2593.97
271.809,2596.82
273.261,2602.33
274.713,2577.72
276.165,2585.55
277.616,2577.91
279.068,2539.56
280.52,2533.09
281.972,2563.76
283.424,2547.41
284.875,2533.38
286.327,2526.31
287.779,2539.39
289.231,2542.57
290.683,2522.66
292.134,2500.46
293.586,2489.54
295.038,2510.52
296.49,2492.53
297.941,2468.39
299.393,2490.77
300.845,2489.42
302.297,2433.89
303.749,2435.35
305.2,2436.98
306.652,2440.91
308.104,2437.26
309.556,2428.73
311.008,2419.49
312.459,2424.48
313.911,2405.52
315.363,2414.96
316.815,2437.8
318.267,2383.24
319.718,2374.31
321.17,2379.53
322.622,2380.69
324.074,2386.74
325.525,2380.22
326.977,2382.84
328.429,2372.32
329.881,2383.81
331.333,2391.2
332.784,2368.92
334.236,2378
335.688,2347.2
337.14,2360.61
338.592,2356.64
340.043,2325.31
341.495,2338.86
342.947,2387.08
344.399,2354.34
345.85,2334.82
347.302,2350.54
348.754,2370.94
350.206,2366.34
351.658,2364.32
353.109,2346.22
354.561,2335.42
356.013,2336.69
357.465,2314.47
358.917,2328.34
360.368,2343.86
361.82,2339.09
363.272,2321.33
364.724,2311.92
366.176,2319.59
367.627,2330.3
369.079,2327.13
370.531,2324.7
371.983,2347.64
373.434,2325.16
374.886,2324.86
376.338,2316.43
377.79,2311.66
379.242,2321.38
380.693,2331.61
382.145,2306.19
383.597,2289.32
385.049,2276.34
386.501,2283.55
387.952,2297.86
389.404,2304.93
390.856,2302.08
392.308,2302.17
393.759,2307.03
395.211,2307.05
396.663,2312.18
398.115,2289.14
399.567,2308.19
401.018,2316.02
402.47,2305.57
403.922,2298.01
405.374,2322.52
406.826,2300.33
408.277,2314.63
409.729,2319.5
411.181,2297.78
412.633,2308.83
414.085,2311.51
415.536,2290.72
416.988,2277.76
418.44,2287.16
419.892,2311.7
421.343,2310.59
422.795,2307.05
424.247,2291.69
425.699,2275.12
427.151,2272.76
428.602,2309.55
430.054,2309.86
431.506,2310.07
432.958,2294.15
434.41,2287.69
435.861,2313.36
437.313,2285.19
438.765,2300.48
440.217,2305.1
441.668,2291.17
443.12,2280.18
444.572,2312.1
446.024,2305.43
447.476,2296.05
448.927,2292.22
450.379,2283.56
451.831,2280.85
453.283,2256.64
454.735,2264.08
456.186,2265.64
457.638,2272.94
459.09,2283.9
460.542,2274.99
461.993,2214.92
463.445,2259.47
464.897,2272.3
466.349,2271.67
467.801,2272.47
469.252,2255.26
470.704,2285
472.156,2278.54
473.608,2278.59
475.06,2278.22
476.511,2273.17
477.963,2265.49
479.415,2269.55
480.867,2284.59
482.319,2268.01
483.77,2252.32
485.222,2269.79
486.674,2295.26
488.126,2261.66
489.577,2269.12
491.029,2284.77
492.481,2282.6
493.933,2261.39
495.385,2246.25
496.836,2270.03
498.288,2272.63
499.74,2269.46
501.192,2268.34
502.644,2246.03
504.095,2249.27
505.547,2247.38
506.999,2256.15
508.451,2265.46
509.902,2269.38
511.354,2258.9
512.806,2241.34
514.258,2245.87
515.71,2274.54
517.161,2288.07
518.613,2268.37
520.065,2229.92
521.517,2236.84
522.969,2242.45
524.42,2243.37
525.872,2241.09
527.324,2243.43
528.776,2258.62
530.228,2259.41
531.679,2274.94
533.131,2273.65
534.583,2258.41
536.035,2258.48
537.486,2233
538.938,2204.73
540.39,2228.13
541.842,2246.33
543.294,2244.41
544.745,2250.62
546.197,2256.59
547.649,2253.66
549.101,2248.03
550.553,2248.53
552.004,2249.29
553.456,2257.39
554.908,2254.27
556.36,2254.45
557.811,2253.57
559.263,2268.62
560.715,2260.84
562.167,2236.17
563.619,2256.09
565.07,2248.57
566.522,2244.49
567.974,2229.7
569.426,2225.37
570.878,2253.06
572.329,2220.12
573.781,2260.07
575.233,2270.19
576.685,2259.42
578.137,2247.66
579.588,2247.5
581.04,2238.66
582.492,2234.24
583.944,2248.2
585.395,2250.52
586.847,2238.73
588.299,2229.45
589.751,2236.95
591.203,2267.98
592.654,2241.6
594.106,2224.62
595.558,2239.83
597.01,2234.68
598.462,2236.01
599.913,2233.63
601.365,2258.98
602.817,2263.14
604.269,2251.72
605.72,2262.85
607.172,2260.89
608.624,2226.06
610.076,2242.01
611.528,2246.66
612.979,2243.65
614.431,2241.88
615.883,2254.46
617.335,2253.41
618.787,2262.79
620.238,2264.06
621.69,2245.73
623.142,2241.2
624.594,2266.04
626.046,2241.03
627.497,2242.37
628.949,2255.5
630.401,2252.48
631.853,2232.19
633.304,2246.77
634.756,2268.48
636.208,2248.13
637.66,2270.32
639.112,2284.36
640.563,2271.36
642.015,2274.34
643.467,2287.31
644.919,2264.43
646.371,2258.14
647.822,2261.9
649.274,2272.57
650.726,2277.55
652.178,2317.15
653.629,2291.21
655.081,2299.24
656.533,2292.1
657.985,2281.08
659.437,2279.16
660.888,2304.34
662.34,2287.38
663.792,2287.99
665.244,2282.18
666.696,2276.94
668.147,2285.73
669.599,2289.5
671.051,2281.86
672.503,2282.55
673.954,2292.75
675.406,2293.59
676.858,2291.62
678.31,2296.17
679.762,2290.18
681.213,2306.91
682.665,2305.22
684.117,2304.69
685.569,2294.99
687.021,2280.79
688.472,2299.44
689.924,2280.58
691.376,2287.44
692.828,2273.84
694.28,2273.35
695.731,2291.37
697.183,2281.82
698.635,2272.75
700.087,2290.14
701.538,2302.25
702.99,2297.7
704.442,2304.39
705.894,2314.97
707.346,2298.24
708.797,2322.02
710.249,2300.46
711.701,2321.82
713.153,2335
714.605,2328.81
716.056,2320.22
717.508,2298.56
718.96,2311.99
720.412,2294.76
721.863,2306.24
723.315,2322.34
724.767,2326.33
726.219,2318.38
727.671,2300.16
729.122,2308.06
730.574,2316.25
732.026,2307.61
733.478,2295.48
734.93,2302.17
736.381,2306.81
737.833,2315.1
739.285,2324.28
740.737,2319.09
742.189,2324.45
743.64,2336.18
745.092,2324.52
746.544,2286.46
747.996,2303.24
749.447,2338.31
750.899,2328.06
752.351,2304.6
753.803,2297.68
755.255,2300.92
756.706,2305.65
758.158,2291.07
759.61,2303.28
761.062,2317.2
762.514,2314.63
763.965,2315.07
765.417,2337.89
766.869,2322.8
768.321,2291.58
769.772,2315.07
771.224,2313.84
772.676,2308.39
774.128,2349.05
775.58,2309.68
777.031,2324.44
778.483,2307.19
779.935,2330.22
781.387,2343.62
782.839,2335.13
784.29,2355.61
785.742,2357.24
787.194,2319.96
788.646,2328.22
790.098,2339.97
791.549,2325.73
793.001,2332.48
794.453,2331.19
795.905,2342.88
797.356,2332.74
798.808,2330.9
800.26,2329.42
801.712,2335.04
803.164,2352.47
804.615,2371.75
806.067,2330.1
807.519,2344.44
808.971,2351.94
810.423,2349.26
811.874,2349.11
813.326,2360.41
814.778,2325.63
816.23,2357.29
817.681,2346.25
819.133,2368
820.585,2393.85
822.037,2380.73
823.489,2362.75
824.94,2360.28
826.392,2361.66
827.844,2376.96
829.296,2386.29
830.748,2362.84
832.199,2344.7
833.651,2346.19
835.103,2400.53
836.555,2384.22
838.007,2391.62
839.458,2413.09
840.91,2410.68
842.362,2385.09
843.814,2377.55
845.265,2371.53
846.717,2376.44
848.169,2391.51
849.621,2437.97
851.073,2421.43
852.524,2406.24
853.976,2428.42
855.428,2423.29
856.88,2434.16
858.332,2434.83
859.783,2433
861.235,2415.67
862.687,2435.85
864.139,2444.2
865.59,2440.82
867.042,2448.08
868.494,2401.59
869.946,2393.49
871.398,2396.19
872.849,2419.2
874.301,2422.08
875.753,2415.9
877.205,2414.85
878.657,2422.08
880.108,2401.2
881.56,2406.25
883.012,2405.07
884.464,2408.07
885.915,2402.26
887.367,2394.3
888.819,2407.75
890.271,2399.88
891.723,2408.58
893.174,2434.46
894.626,2446.78
896.078,2455.72
897.53,2448.85
898.982,2432.41
900.433,2423.6
901.885,2411.85
903.337,2437.37
904.789,2452.3
906.241,2454.93
907.692,2459.15
909.144,2448.84
910.596,2456.06
912.048,2444.6
913.499,2467.94
914.951,2459.87
916.403,2450.6
917.855,2432.14
919.307,2410.16
920.758,2437.38
922.21,2475.41
923.662,2463.15
925.114,2468.63
926.566,2465.04
928.017,2465.3
929.469,2490.74
930.921,2478.92
932.373,2470.21
933.824,2421.98
935.276,2469.78
936.728,2492.11
938.18,2479.56
939.632,2487.73
941.083,2487.2
942.535,2466.55
943.987,2474.65
945.439,2499.79
946.891,2480.81
948.342,2467.51
949.794,2472.32
951.246,2474.82
952.698,2484.93
954.15,2510.17
955.601,2475.4
957.053,2460.37
958.505,2472.77
959.957,2479.02
961.408,2467.14
962.86,2462
964.312,2507.74
965.764,2510.23
967.216,2495.76
968.667,2474.01
970.119,2497.17
971.571,2488.7
973.023,2489.93
974.475,2502.15
975.926,2481.78
977.378,2493.04
978.83,2490.59
980.282,2499.61
981.733,2498.85
983.185,2512.57
984.637,2509.5
986.089,2499.55
987.541,2497.31
988.992,2524.24
990.444,2511.57
991.896,2538.52
993.348,2510.36
994.8,2521.87
996.251,2537.53
997.703,2515.96
999.155,2551.74
1000.61,2523.15
1002.06,2533.48
1003.51,2542.44
1004.96,2537.17
1006.41,2525.79
1007.87,2537.73
1009.32,2556.24
1010.77,2560.81
1012.22,2572.59
1013.67,2570.56
1015.12,2556.96
1016.58,2568.63
1018.03,2555.85
1019.48,2558.56
1020.93,2589.64
1022.38,2607.94
1023.84,2622.07
1025.29,2632.03
1026.74,2617.86
1028.19,2622.51
1029.64,2642.29
1031.09,2646.74
1032.55,2626.63
1034,2644.1
1035.45,2660.91
1036.9,2670.7
1038.35,2693.84
1039.8,2694.24
1041.26,2700.41
1042.71,2731.1
1044.16,2742.35
1045.61,2696.1
1047.06,2703.02
1048.52,2726.88
1049.97,2744.73
1051.42,2755.47
1052.87,2774.3
1054.32,2765.39
1055.77,2771.64
1057.23,2804.02
1058.68,2820.63
1060.13,2843.51
1061.58,2826.53
1063.03,2839.29
1064.49,2867.72
1065.94,2880.6
1067.39,2851.19
1068.84,2844.42
1070.29,2904.39
1071.74,2915.07
1073.2,2919.27
1074.65,2938.49
1076.1,2956.04
1077.55,2969.38
1079,2953
1080.46,2944.22
1081.91,2957.88
1083.36,2947.09
1084.81,3014.84
1086.26,3021.97
1087.71,3036.13
1089.17,3015.17
1090.62,2955.01
1092.07,2987.58
1093.52,3024.84
1094.97,2989.99
1096.42,2974.28
1097.88,3001.09
1099.33,2960.69
1100.78,2956.29
1102.23,2965.76
1103.68,2965.53
1105.14,2940.7
1106.59,2937.14
1108.04,2945.56
1109.49,2931.34
1110.94,2936.71
1112.39,2897.58
1113.85,2911.14
1115.3,2905.16
1116.75,2902.4
1118.2,2901.27
1119.65,2883.03
1121.11,2877.47
1122.56,2863.15
1124.01,2877.55
1125.46,2878.21
1126.91,2854.91
1128.36,2859.38
1129.82,2855.57
1131.27,2835.29
1132.72,2839.28
1134.17,2811.33
1135.62,2833.42
1137.07,2809.71
1138.53,2801.46
1139.98,2830.48
1141.43,2831.63
1142.88,2796.01
1144.33,2803.66
1145.79,2826.08
1147.24,2848.38
1148.69,2814.12
1150.14,2797.8
1151.59,2819.76
1153.04,2782.62
1154.5,2785.22
1155.95,2800.79
1157.4,2815.1
1158.85,2814.17
1160.3,2809.07
1161.76,2808.05
1163.21,2798.23
1164.66,2795.57
1166.11,2779.66
1167.56,2803.81
1169.01,2810.55
1170.47,2823.41
1171.92,2831.45
1173.37,2817.22
1174.82,2851.56
1176.27,2825.98
1177.72,2825.83
1179.18,2875.7
1180.63,2833.1
1182.08,2830.2
1183.53,2853.12
1184.98,2847.59
1186.44,2843.17
1187.89,2834.87
1189.34,2838.97
1190.79,2843.83
1192.24,2821.01
1193.69,2860.84
1195.15,2879.11
1196.6,2867.42
1198.05,2847.33
1199.5,2857.04
1200.95,2886.85
1202.41,2888.8
1203.86,2879.15
1205.31,2874.44
1206.76,2921.5
1208.21,2911.62
1209.66,2890.49
1211.12,2870.76
1212.57,2891.52
1214.02,2889.84
1215.47,2861.73
1216.92,2888.6
1218.37,2903.87
1219.83,2906.23
1221.28,2913.46
1222.73,2913.26
1224.18,2907.12
1225.63,2927.18
1227.09,2934.22
1228.54,2911.45
1229.99,2892.02
1231.44,2917.32
1232.89,2892.44
1234.34,2939.88
1235.8,2935.22
1237.25,2924.38
1238.7,2899.05
1240.15,2932.86
1241.6,2975.92
1243.06,2961.98
1244.51,2959.19
1245.96,2971.62
1247.41,3029.31
1248.86,3002
1250.31,2972.52
1251.77,3011.71
1253.22,3032.87
1254.67,3034.06
1256.12,3024.6
1257.57,3030.68
1259.02,3059.86
1260.48,3077.18
1261.93,3128.59
1263.38,3100.77
1264.83,3130.38
1266.28,3135.02
1267.74,3170.43
1269.19,3185.42
1270.64,3194.01
1272.09,3239.4
1273.54,3294.97
1274.99,3300.18
1276.45,3293.86
1277.9,3274.39
1279.35,3327.86
1280.8,3392.53
1282.25,3402.84
1283.71,3422.56
1285.16,3427.05
1286.61,3443.58
1288.06,3504.95
1289.51,3548.73
1290.96,3552.73
1292.42,3617.94
1293.87,3706.7
1295.32,3727.65
1296.77,3814.47
1298.22,3889.97
1299.67,3940.61
1301.13,3978.53
1302.58,4059.19
1304.03,4161.72
1305.48,4218.24
1306.93,4301.91
1308.39,4423.72
1309.84,4535.93
1311.29,4648.29
1312.74,4791.29
1314.19,4979.64
1315.64,5138.24
1317.1,5279.81
1318.55,5423.06
1320,5562.59
1321.45,5738.6
1322.9,5971.49
1324.36,6084.33
1325.81,6267.15
1327.26,6421.64
1328.71,6581.52
1330.16,6705.88
1331.61,6799.85
1333.07,6878.3
1334.52,6987.13
1335.97,7047.19
1337.42,6958.22
1338.87,6963.23
1340.33,6868.73
1341.78,6769.2
1343.23,6682.2
1344.68,6529.88
1346.13,6419.4
1347.58,6270.2
1349.04,6049.47
1350.49,5844.13
1351.94,5658.97
1353.39,5435.17
1354.84,5261.81
1356.29,5174.1
1357.75,5003.92
1359.2,4854
1360.65,4753.12
1362.1,4577.77
1363.55,4431.7
1365.01,4334.06
1366.46,4243
1367.91,4157.42
1369.36,4096.81
1370.81,4035.39
1372.26,3975.29
1373.72,3922.38
1375.17,3876.7
1376.62,3770.07
1378.07,3746.94
1379.52,3698.35
1380.98,3674.78
1382.43,3663.96
1383.88,3621.03
1385.33,3563.44
1386.78,3563.83
1388.23,3569.67
1389.69,3514.83
1391.14,3500.4
1392.59,3559.64
1394.04,3568.3
1395.49,3488.71
1396.94,3484.93
1398.4,3451.13
1399.85,3454.81
1401.3,3465.85
1402.75,3442.15
1404.2,3432.92
1405.66,3428.39
1407.11,3457.96
1408.56,3484.72
1410.01,3462.8
1411.46,3472.52
1412.91,3421.47
1414.37,3455.5
1415.82,3460.68
1417.27,3444.43
1418.72,3431.02
1420.17,3434.3
1421.63,3456.88
1423.08,3443.79
1424.53,3471.02
1425.98,3436.19
1427.43,3451.76
1428.88,3447.39
1430.34,3505.44
1431.79,3517.71
1433.24,3510.47
1434.69,3525.39
1436.14,3544.01
1437.59,3575.25
1439.05,3563.97
1440.5,3565.37
1441.95,3606.53
1443.4,3630.8
1444.85,3629.38
1446.31,3579.77
1447.76,3619.54
1449.21,3645.09
1450.66,3674.04
1452.11,3665.81
1453.56,3662.44
1455.02,3685.26
1456.47,3724.97
1457.92,3753.33
1459.37,3786.36
1460.82,3775.35
1462.28,3787.31
1463.73,3893.16
1465.18,3917.34
1466.63,3930.66
1468.08,3921.04
1469.53,3936.28
1470.99,3953.94
1472.44,3976.4
1473.89,4042.23
1475.34,4098.89
1476.79,4111.24
1478.24,4156.46
1479.7,4157.16
1481.15,4263.92
1482.6,4258.86
1484.05,4321.7
1485.5,4360.87
1486.96,4372.84
1488.41,4425.97
1489.86,4496.79
1491.31,4528.14
1492.76,4596.58
1494.21,4664.91
1495.67,4736.48
1497.12,4779.72
1498.57,4865.16
1500.02,4916.67
1501.47,5039.17
1502.93,5064.59
1504.38,5180.71
1505.83,5300.16
1507.28,5453.14
1508.73,5569.79
1510.18,5701.39
1511.64,5833.59
1513.09,5988.56
1514.54,6185.77
1515.99,6366.61
1517.44,6549.97
1518.89,6687.29
1520.35,6911.61
1521.8,7132.77
1523.25,7467.23
1524.7,7763.29
1526.15,8216.61
1527.61,8539.01
1529.06,9045.7
1530.51,9575.99
1531.96,10176.5
1533.41,10869.1
1534.86,11531.7
1536.32,12333.5
1537.77,13337.2
1539.22,14438.9
1540.67,15691
1542.12,16981.5
1543.58,18422.1
1545.03,19967.8
1546.48,21657.7
1547.93,23514.3
1549.38,25469.3
1550.83,27533.2
1552.29,29757
1553.74,31977.8
1555.19,34091.5
1556.64,36247.6
1558.09,38497.5
1559.54,40478.1
1561,42506
1562.45,44161.3
1563.9,45370.8
1565.35,46074.6
1566.8,46465.4
1568.26,46101.8
1569.71,45354.8
1571.16,44362.9
1572.61,42810.3
1574.06,40799.3
1575.51,38397.5
1576.97,35970.5
1578.42,33504.8
1579.87,31081
1581.32,28679.7
1582.77,26344.5
1584.23,24228.7
1585.68,22033.5
1587.13,20156.1
1588.58,18617.5
1590.03,17099.1
1591.48,15738.7
1592.94,14697.6
1594.39,13816.6
1595.84,12903.5
1597.29,12181.9
1598.74,11479.5
1600.2,10866.9
1601.65,10434.9
1603.1,9999.71
1604.55,9535.46
1606,9182.97
1607.45,8812.61
1608.91,8436.2
1610.36,8083.95
1611.81,7699.56
1613.26,7535.27
1614.71,7223.63
1616.16,6975.48
1617.62,6675.42
1619.07,6439.05
1620.52,6259.86
1621.97,6032.91
1623.42,5815.48
1624.88,5690.08
1626.33,5547.49
1627.78,5381.46
1629.23,5185.45
1630.68,5063.33
1632.13,4996.93
1633.59,4919.1
1635.04,4799.63
1636.49,4713.05
1637.94,4638.09
1639.39,4569.52
1640.85,4510.85
1642.3,4499.73
1643.75,4413.08
1645.2,4321.34
1646.65,4284.85
1648.1,4232.54
1649.56,4143.13
1651.01,4100.46
1652.46,4072.77
1653.91,4011.59
1655.36,3966.1
1656.81,3946.88
1658.27,3928.77
1659.72,3914.19
1661.17,3871.25
1662.62,3798.22
1664.07,3782.77
1665.53,3737.23
1666.98,3739.33
1668.43,3737.07
1669.88,3665.71
1671.33,3634.22
1672.78,3612.77
1674.24,3584.21
1675.69,3571.56
1677.14,3531.27
1678.59,3526.9
1680.04,3521.13
1681.5,3510.43
1682.95,3472.36
1684.4,3454.66
1685.85,3420.18
1687.3,3435.66
1688.75,3391
1690.21,3389.26
1691.66,3356.72
1693.11,3356.09
1694.56,3331.1
1696.01,3314.58
1697.46,3320.69
1698.92,3311.98
1700.37,3315.82
1701.82,3315.94
1703.27,3295.04
1704.72,3282.64
1706.18,3282.87
1707.63,3288.55
1709.08,3272.19
1710.53,3247.62
1711.98,3258.67
1713.43,3268.34
1714.89,3255.16
1716.34,3219.69
1717.79,3197.82
1719.24,3180.9
1720.69,3207.75
1722.15,3204.8
1723.6,3228.27
1725.05,3196.32
1726.5,3186.37
1727.95,3185.28
1729.4,3183.32
1730.86,3218.27
1732.31,3208.66
1733.76,3191.35
1735.21,3182.8
1736.66,3181.78
1738.11,3169.55
1739.57,3177.73
1741.02,3149.76
1742.47,3155.2
1743.92,3163.89
1745.37,3148.13
1746.83,3152.57
1748.28,3139.63
1749.73,3120.2
1751.18,3159.24
1752.63,3110.92
1754.08,3061.01
1755.54,3094.76
1756.99,3124.48
1758.44,3102.98
1759.89,3051.46
1761.34,3072.86
1762.8,3094.35
1764.25,3079.91
1765.7,3066.01
1767.15,3071.91
1768.6,3045.82
1770.05,3013.13
1771.51,3026.31
1772.96,3034.14
1774.41,3016.08
1775.86,3032.85
1777.31,3017.12
1778.76,2992.16
1780.22,3009.93
1781.67,2988.36
1783.12,2972.91
1784.57,2960.4
1786.02,2930.28
1787.48,2995.64
1788.93,2919.67
1790.38,2963.2
1791.83,2949.14
1793.28,2968.13
1794.73,2937.27
1796.19,2933.54
1797.64,2944.82
1799.09,2930.35
1800.54,2918.72
1801.99,2944.37
1803.45,2941
1804.9,2896.74
1806.35,2893.91
1807.8,2904.24
1809.25,2895.29
1810.7,2925.31
1812.16,2920.29
1813.61,2889.37
1815.06,2888
1816.51,2883.62
1817.96,2869.71
1819.41,2887.08
1820.87,2914.18
1822.32,2917.64
1823.77,2924.42
1825.22,2944.22
1826.67,2939.48
1828.13,2934.16
1829.58,2979.2
1831.03,2902.74
1832.48,2893.55
1833.93,2895.48
1835.38,2910.53
1836.84,2898.94
1838.29,2940.56
1839.74,2947.85
1841.19,2954.74
1842.64,2966.35
1844.1,2944.82
1845.55,2951.29
1847,2969.83
1848.45,2992.34
1849.9,3034.03
1851.35,3041.43
1852.81,3019.26
1854.26,3001.72
1855.71,3007.05
1857.16,3014.68
1858.61,3010.8
1860.07,3006.81
1861.52,3027.25
1862.97,3031.98
1864.42,3022.09
1865.87,3025.23
1867.32,3029.63
1868.78,3032.78
1870.23,3022.91
1871.68,3048.64
1873.13,3006.11
1874.58,3016.8
1876.03,2998.85
1877.49,2976.41
1878.94,2969.36
1880.39,2945.76
1881.84,2948.01
1883.29,2971.03
1884.75,2997.54
1886.2,2919.52
1887.65,2948.31
1889.1,2967.67
1890.55,2937.72
1892,2926.39
1893.46,2926.58
1894.91,2912.38
1896.36,2891.1
1897.81,2862.41
1899.26,2837.02
1900.72,2871.5
1902.17,2884.68
1903.62,2866.32
1905.07,2865.01
1906.52,2849.48
1907.97,2853.36
1909.43,2836.66
1910.88,2848.71
1912.33,2832.95
1913.78,2828.42
1915.23,2826.07
1916.68,2809.5
1918.14,2781.87
1919.59,2795.85
1921.04,2814.07
1922.49,2817.06
1923.94,2844.6
1925.4,2827.31
1926.85,2797.78
1928.3,2753.8
1929.75,2812.14
1931.2,2808.23
1932.65,2791.17
1934.11,2819.32
1935.56,2823.88
1937.01,2805.45
1938.46,2781.13
1939.91,2758.74
1941.37,2775.99
1942.82,2809.59
1944.27,2829.7
1945.72,2832.88
1947.17,2817.82
1948.62,2825.24
1950.08,2824.74
1951.53,2797.93
1952.98,2838.12
1954.43,2830.16
1955.88,2820.38
1957.33,2824.15
1958.79,2820.25
1960.24,2819.72
1961.69,2820.93
1963.14,2836.7
1964.59,2836.43
1966.05,2814.28
1967.5,2822.09
1968.95,2854.62
1970.4,2840.95
1971.85,2820.52
1973.3,2813.96
1974.76,2808.46
1976.21,2813.05
1977.66,2851.24
1979.11,2878.45
1980.56,2872.28
1982.02,2854.81
1983.47,2855.04
1984.92,2866.01
1986.37,2855.96
1987.82,2890.44
1989.27,2881.43
1990.73,2872.63
1992.18,2886.98
1993.63,2883.92
1995.08,2865.67
1996.53,2906.2
1997.98,2890.28
1999.44,2898.58
2000.89,2893.1
2002.34,2857.24
2003.79,2918.74
2005.24,2900.92
2006.7,2869.26
2008.15,2863.49
2009.6,2853.41
2011.05,2831.01
2012.5,2853.99
2013.95,2852.26
2015.41,2784.69
2016.86,2921.48
2018.31,2835.54
2019.76,2807.18
2021.21,2853.48
2022.67,2837.35
2024.12,2823.73
2025.57,2821.94
2027.02,2847.89
2028.47,2833.89
2029.92,2919.77
2031.38,2838.65
2032.83,2814.56
2034.28,2781.74
2035.73,2784.97
2037.18,2808.73
2038.63,2759.48
2040.09,2776.07
2041.54,2787.55
2042.99,2767.44
2044.44,2759.27
2045.89,2769.82
2047.35,2751.3
2048.8,2767.69
2050.25,2737.81
2051.7,2727.16
2053.15,2726.39
2054.6,2721.85
2056.06,2723.83
2057.51,2734.93
2058.96,2731.81
2060.41,2693.41
2061.86,2697.53
2063.32,2701.01
2064.77,2742.22
2066.22,2718.94
2067.67,2706.3
2069.12,2716.55
2070.57,2709.92
2072.03,2696.15
2073.48,2687.95
2074.93,2669.47
2076.38,2670.69
2077.83,2672.46
2079.28,2678.52
2080.74,2670.21
2082.19,2680.21
2083.64,2673.74
2085.09,2664.38
2086.54,2676.19
2088,2686.45
2089.45,2678.23
2090.9,2674.06
2092.35,2672.57
2093.8,2665.21
2095.25,2652.63
2096.71,2659.26
2098.16,2659.11
2099.61,2660.51
2101.06,2645.12
2102.51,2649.28
2103.97,2684.56
2105.42,2705.86
2106.87,2681.47
2108.32,2675.82
2109.77,2665.83
2111.22,2653.94
2112.68,2680.75
2114.13,2706.98
2115.58,2673.19
2117.03,2671.76
2118.48,2718.19
2119.94,2719.61
2121.39,2698.91
2122.84,2685.14
2124.29,2692.19
2125.74,2711.21
2127.19,2716.03
2128.65,2669.4
2130.1,2688.46
2131.55,2729.26
2133,2702.62
2134.45,2689.03
2135.9,2710.82
2137.36,2690.86
2138.81,2679.55
2140.26,2701.89
2141.71,2731.57
2143.16,2700.93
2144.62,2717.34
2146.07,2718.31
2147.52,2711.96
2148.97,2729.23
2150.42,2723.75
2151.87,2737.96
2153.33,2755.67
2154.78,2735.15
2156.23,2729.14
2157.68,2733.86
2159.13,2746.07
2160.58,2749.45
2162.04,2753.06
2163.49,2732.42
2164.94,2725.27
2166.39,2739.36
2167.84,2761.35
2169.3,2750.47
2170.75,2734.78
2172.2,2729.94
2173.65,2767.61
2175.1,2760.47
2176.55,2747.71
2178.01,2767.26
2179.46,2771.33
2180.91,2747.27
2182.36,2749.16
2183.81,2758.06
2185.27,2755.41
2186.72,2806.55
2188.17,2818.91
2189.62,2816.82
2191.07,2804.35
2192.52,2764.65
2193.98,2787.39
2195.43,2751.62
2196.88,2769.56
2198.33,2820.49
2199.78,2811.77
2201.24,2852.03
2202.69,2803.63
2204.14,2796.64
2205.59,2806.2
2207.04,2826.18
2208.49,2778.52
2209.95,2791.02
2211.4,2822.19
2212.85,2778.88
2214.3,2804.25
2215.75,2744.7
2217.2,2778.2
2218.66,2802.26
2220.11,2784.93
2221.56,2815.38
2223.01,2817.77
2224.46,2806.98
2225.92,2763.56
2227.37,2763.57
2228.82,2770.51
2230.27,2822.33
2231.72,2827.23
2233.17,2797.09
2234.63,2835.79
2236.08,2824.26
2237.53,2793.86
2238.98,2823.5
2240.43,2829.08
2241.89,2845.53
2243.34,2837.56
2244.79,2836.59
2246.24,2859.28
2247.69,2864.55
2249.14,2853.44
2250.6,2847.19
2252.05,2839.22
2253.5,2849.32
2254.95,2843.69
2256.4,2829.4
2257.85,2866.78
2259.31,2891.88
2260.76,2858.19
2262.21,2864.31
2263.66,2858.62
2265.11,2864.79
2266.57,2886.46
2268.02,2878.78
2269.47,2869.64
2270.92,2865.57
2272.37,2852.01
2273.82,2897.27
2275.28,2877.89
2276.73,2866.46
2278.18,2872.89
2279.63,2874.8
2281.08,2898.17
2282.54,2914.41
2283.99,2901.34
2285.44,2949.19
2286.89,2937.03
2288.34,2932.07
2289.79,2943.17
2291.25,2951.52
2292.7,2937.3
2294.15,2920.74
2295.6,2945.56
2297.05,2932.6
2298.5,2956.71
2299.96,2974.42
2301.41,2994.34
2302.86,2954.65
2304.31,2926.44
2305.76,3018.38
2307.22,3026.24
2308.67,2985.91
2310.12,2974.91
2311.57,2970.2
2313.02,3027.56
2314.47,3057
2315.93,3008.43
2317.38,3010.68
2318.83,3034.08
2320.28,2979.94
2321.73,2992.83
2323.19,3028.78
2324.64,3057.24
2326.09,3064.25
2327.54,3070.17
2328.99,3053.57
2330.44,3060.81
2331.9,3073.32
2333.35,3072.22
2334.8,3091.51
2336.25,3097.6
2337.7,3102.69
2339.16,3097.52
2340.61,3097.8
2342.06,3131.04
2343.51,3145.08
2344.96,3142.16
2346.41,3164.58
2347.87,3137.13
2349.32,3150.01
2350.77,3204.46
2352.22,3213.23
2353.67,3219.63
2355.12,3223.43
2356.58,3227.52
2358.03,3212.74
2359.48,3252.29
2360.93,3209.63
2362.38,3240.42
2363.84,3266.04
2365.29,3271.24
2366.74,3267.54
2368.19,3297.72
2369.64,3340.89
2371.09,3375.9
2372.55,3413.16
2374,3415.57
2375.45,3460.68
2376.9,3460.12
2378.35,3477.76
2379.8,3533.51
2381.26,3528.54
2382.71,3546.43
2384.16,3550.52
2385.61,3585.5
2387.06,3618.42
2388.52,3608.19
2389.97,3694.12
2391.42,3735.66
2392.87,3780.67
2394.32,3816.57
2395.77,3892.14
2397.23,3857.03
2398.68,3874.68
2400.13,3957.84
2401.58,4021.76
2403.03,4083.54
2404.49,4095.85
2405.94,4144.38
2407.39,4217.04
2408.84,4248.72
2410.29,4290.83
2411.74,4322.77
2413.2,4362.6
2414.65,4388.51
2416.1,4485.48
2417.55,4546.48
2419,4543.52
2420.46,4548.58
2421.91,4563.76
2423.36,4519.06
2424.81,4549.25
2426.26,4644.99
2427.71,4628.9
2429.17,4638.06
2430.62,4715.52
2432.07,4673.35
2433.52,4681.46
2434.97,4590.8
2436.42,4619.46
2437.88,4658.14
2439.33,4619.67
2440.78,4608.66
2442.23,4567.26
2443.68,4533.52
2445.14,4563.29
2446.59,4518.96
2448.04,4536.21
2449.49,4533.52
2450.94,4496.8
2452.39,4443.41
2453.85,4434.42
2455.3,4407.26
2456.75,4392.18
2458.2,4368.73
2459.65,4353.91
2461.1,4330.71
2462.56,4299.23
2464.01,4316.89
2465.46,4286.85
2466.91,4223.8
2468.36,4247.96
2469.82,4187.84
2471.27,4276.01
2472.72,4261.58
2474.17,4203.25
2475.62,4176.76
2477.07,4146.65
2478.53,4135.57
2479.98,4109.57
2481.43,4121.64
2482.88,4179.71
2484.33,4182.65
2485.79,4186.59
2487.24,4131.46
2488.69,4130.53
2490.14,4122.75
2491.59,4158.47
2493.04,4152.04
2494.5,4149.45
2495.95,4120.8
2497.4,4160.15
2498.85,4130.71
2500.3,4179.89
2501.76,4201.07
2503.21,4188.42
2504.66,4232.06
2506.11,4202.97
2507.56,4178.07
2509.01,4159.89
2510.47,4260.12
2511.92,4233.36
2513.37,4234.42
2514.82,4293.78
2516.27,4307.54
2517.72,4329.6
2519.18,4319.29
2520.63,4291.99
2522.08,4333.32
2523.53,4373.75
2524.98,4397.81
2526.44,4362.58
2527.89,4403.39
2529.34,4456.33
2530.79,4510.18
2532.24,4529.16
2533.69,4538.21
2535.15,4583.96
2536.6,4570.46
2538.05,4705.29
2539.5,4668.1
2540.95,4703.22
2542.41,4743.37
2543.86,4793.4
2545.31,4834.05
2546.76,4870.06
2548.21,4846.4
2549.66,4912.92
2551.12,4974.15
2552.57,5081.84
2554.02,5142.52
2555.47,5149.95
2556.92,5186.73
2558.37,5239.6
2559.83,5320.2
2561.28,5360.39
2562.73,5402.97
2564.18,5555.18
2565.63,5651.01
2567.09,5681.61
2568.54,5749.97
2569.99,5825.63
2571.44,5924.13
2572.89,5983.13
2574.34,6084.14
2575.8,6102.29
2577.25,6340.58
2578.7,6497.96
2580.15,6578.17
2581.6,6667.18
2583.06,6771.98
2584.51,6891.42
2585.96,7065.66
2587.41,7279.86
2588.86,7423
2590.31,7559.88
2591.77,7690.53
2593.22,7933.58
2594.67,8108.44
2596.12,8315.8
2597.57,8590.59
2599.02,8805.49
2600.48,9028.73
2601.93,9280.79
2603.38,9534.46
2604.83,9886.48
2606.28,10158.2
2607.74,10537.9
2609.19,10788.4
2610.64,11174
2612.09,11453.1
2613.54,11896.1
2614.99,12333.7
2616.45,12777.6
2617.9,13253.9
2619.35,13738.5
2620.8,14195
2622.25,14743.9
2623.71,15276.6
2625.16,15894.6
2626.61,16449.9
2628.06,17000
2629.51,17769.7
2630.96,18323.3
2632.42,19099.4
2633.87,19714.5
2635.32,20400.1
2636.77,21065
2638.22,21819.2
2639.68,22458
2641.13,22988.6
2642.58,23614.4
2644.03,24320.5
2645.48,24908.7
2646.93,25614.3
2648.39,25959.2
2649.84,26617.5
2651.29,27071.1
2652.74,27420.8
2654.19,27730.8
2655.64,28197.1
2657.1,28350.2
2658.55,28533.2
2660,28704.5
2661.45,28655.8
2662.9,28470.4
2664.36,28322.4
2665.81,28164.5
2667.26,27802.2
2668.71,27619
2670.16,27337.7
2671.61,26964.6
2673.07,26347.8
2674.52,25809.5
2675.97,25023.7
2677.42,24503.8
2678.87,23844
2680.32,23274.3
2681.78,22524.5
2683.23,21774.1
2684.68,21048.3
2686.13,20380.5
2687.58,19609.9
2689.04,19037.2
2690.49,18279.6
2691.94,17643.2
2693.39,16942.9
2694.84,16263.2
2696.29,15644
2697.75,15016.3
2699.2,14522.1
2700.65,13948
2702.1,13350.3
2703.55,12832.8
2705.01,12298.2
2706.46,11927.7
2707.91,11435
2709.36,11044.1
2710.81,10611.3
2712.26,10175.7
2713.72,9899.37
2715.17,9593.57
2716.62,9252.68
2718.07,8886.35
2719.52,8657.49
2720.98,8417.54
2722.43,8112.6
2723.88,7893.66
2725.33,7698.47
2726.78,7450.57
2728.23,7223.01
2729.69,7130.53
2731.14,6897.01
2732.59,6715.86
2734.04,6596.8
2735.49,6447.74
2736.94,6281.58
2738.4,6155.99
2739.85,6025.3
2741.3,5851.77
2742.75,5799.89
2744.2,5766.75
2745.66,5559.96
2747.11,5464.65
2748.56,5390.23
2750.01,5335.9
2751.46,5272.29
2752.91,5219.19
2754.37,5104.24
2755.82,5042.84
2757.27,4964.67
2758.72,4913.17
2760.17,4773.78
2761.63,4770.17
2763.08,4732.48
2764.53,4632.06
2765.98,4640
2767.43,4586.32
2768.88,4476.88
2770.34,4483.37
2771.79,4412.99
2773.24,4358
2774.69,4317.07
2776.14,4289.93
2777.59,4324.72
2779.05,4223.14
2780.5,4196.45
2781.95,4181.45
2783.4,4195.55
2784.85,4162.83
2786.31,4101.58
2787.76,4057.04
2789.21,4055.21
2790.66,4015.19
2792.11,3982.34
2793.56,3934.22
2795.02,3929.53
2796.47,3920.3
2797.92,3916.68
2799.37,3881.41
2800.82,3882.4
2802.28,3876.63
2803.73,3815.83
2805.18,3798.97
2806.63,3802.55
2808.08,3769.08
2809.53,3718.22
2810.99,3733.46
2812.44,3728.42
2813.89,3662.97
2815.34,3672.13
2816.79,3639.94
2818.24,3662.31
2819.7,3659.84
2821.15,3639.9
2822.6,3608.74
2824.05,3595.32
2825.5,3588.18
2826.96,3610.04
2828.41,3579.69
2829.86,3600.07
2831.31,3527.48
2832.76,3502.81
2834.21,3529.41
2835.67,3543.42
2837.12,3538.82
2838.57,3536.58
2840.02,3477.18
2841.47,3513.21
2842.93,3436.94
2844.38,3465.92
2845.83,3446.95
2847.28,3423.66
2848.73,3411.06
2850.18,3443.48
2851.64,3435.52
2853.09,3446.39
2854.54,3434.29
2855.99,3416.08
2857.44,3386.1
2858.9,3433.76
2860.35,3404.2
2861.8,3387.42
2863.25,3420.74
2864.7,3390.55
2866.15,3397.81
2867.61,3416.96
2869.06,3434.43
2870.51,3421.05
2871.96,3507.39
2873.41,3443.25
2874.86,3443.2
2876.32,3390.93
2877.77,3414.37
2879.22,3399.18
2880.67,3425.5
2882.12,3459.31
2883.58,3454.14
2885.03,3447.93
2886.48,3434.39
2887.93,3378.56
2889.38,3412.25
2890.83,3394.07
2892.29,3464.58
2893.74,3433.25
2895.19,3402.19
2896.64,3394.64
2898.09,3395.09
2899.54,3402.25
2901,3379.37
2902.45,3381.18
2903.9,3465.39
2905.35,3383.77
2906.8,3423.42
2908.26,3425.41
2909.71,3416.65
2911.16,3383.65
2912.61,3365.03
2914.06,3338.99
2915.51,3356.37
2916.97,3332.92
2918.42,3355.85
2919.87,3341.54
2921.32,3348.95
2922.77,3318.41
2924.23,3302.87
2925.68,3279.65
2927.13,3281.87
2928.58,3318.98
2930.03,3270.54
2931.48,3268.79
2932.94,3213.75
2934.39,3238.04
2935.84,3222.57
2937.29,3209.04
2938.74,3176.36
2940.2,3186.54
2941.65,3146.72
2943.1,3096.21
2944.55,3105.57
2946,3114.02
2947.45,3057.19
2948.91,3032.36
2950.36,3050.31
2951.81,3067.82
2953.26,3007.52
2954.71,3021.18
2956.16,3042.43
2957.62,3008.11
2959.07,2977.71
2960.52,2990.13
2961.97,2955.09
2963.42,2951.67
2964.88,2899.96
2966.33,2904.78
2967.78,2938.54
2969.23,2914.39
2970.68,2895.93
2972.13,2904.22
2973.59,2867.31
2975.04,2858.53
2976.49,2876.26
2977.94,2865.69
2979.39,2852.24
2980.84,2844.36
2982.3,2848.51
2983.75,2820.07
2985.2,2812.65
2986.65,2785.5
2988.1,2818.12
2989.56,2819.34
2991.01,2814.12
2992.46,2824.39
2993.91,2804.7
2995.36,2788.22
2996.81,2767.41
2998.27,2775.88
2999.72,2782.15
3001.17,2751.3
3002.62,2746.68
3004.07,2735.94
3005.53,2780.99
3006.98,2767.4
3008.43,2747.94
3009.88,2750.54
3011.33,2743.86
3012.78,2749.11
3014.24,2748.84
3015.69,2699.16
3017.14,2731.53
3018.59,2720.06
3020.04,2707.79
3021.5,2731.75
3022.95,2720.1
3024.4,2716.86
3025.85,2734.46
3027.3,2729.74
3028.75,2702.3
3030.21,2764.45
3031.66,2694.81
3033.11,2723.09
3034.56,2737.3
3036.01,2707.18
3037.46,2709.57
3038.92,2717.42
3040.37,2695.42
3041.82,2714.77
3043.27,2734.41
3044.72,2687.41
3046.18,2703.48
3047.63,2712.55
3049.08,2718.72
3050.53,2722.67
3051.98,2720.89
3053.43,2713.28
3054.89,2712.85
3056.34,2716.21
3057.79,2718.01
3059.24,2743.54
3060.69,2736.43
3062.15,2732.08
3063.6,2729.27
3065.05,2738.34
3066.5,2756.42
3067.95,2741.74
3069.4,2721.19
3070.86,2736.83
3072.31,2745.88
3073.76,2747.3
3075.21,2789.66
3076.66,2745.09
3078.11,2796.98
3079.57,2793.71
3081.02,2794.74
3082.47,2794.31
3083.92,2814.76
3085.37,2819.83
3086.83,2849.18
3088.28,2826.77
3089.73,2831.56
3091.18,2832.11
3092.63,2869.01
3094.08,2908.2
3095.54,2902.58
3096.99,2911.84
3098.44,2967.02
3099.89,2950.3
3101.34,2949.95
3102.8,3015.62
3104.25,3054.17
3105.7,3075.37
3107.15,3104.83
3108.6,3094.41
3110.05,3105.47
3111.51,3129.34
3112.96,3154.38
3114.41,3235.53
3115.86,3222.81
3117.31,3237.73
3118.76,3210.44
3120.22,3279.18
3121.67,3312.4
3123.12,3310.86
3124.57,3347.8
3126.02,3398.97
3127.48,3388.54
3128.93,3501.88
3130.38,3476.3
3131.83,3460.22
3133.28,3475
3134.73,3518.57
3136.19,3497.2
3137.64,3508.51
3139.09,3483.14
3140.54,3552.4
3141.99,3563.18
3143.45,3577.43
3144.9,3553.07
3146.35,3576.91
3147.8,3597.42
3149.25,3636.44
3150.7,3605.97
3152.16,3669.66
3153.61,3651.27
3155.06,3605.59
3156.51,3624.18
3157.96,3635.82
3159.42,3665.55
3160.87,3596.41
3162.32,3650.79
3163.77,3661.72
3165.22,3656.85
3166.67,3691.18
3168.13,3695.8
3169.58,3655.53
3171.03,3634.17
3172.48,3683.5
3173.93,3679.02
3175.38,3723.89
3176.84,3772.69
3178.29,3770.21
3179.74,3820.15
3181.19,3824.06
3182.64,3851.83
3184.1,3920.66
3185.55,3880.37
3187,3930.05
3188.45,3946.51
3189.9,3937.6
3191.35,4004.36
3192.81,3986.14
3194.26,3988.5
3195.71,4030.53
3197.16,4033.05
3198.61,4006.31
3200.06,4085.12
3201.52,4073.01
3202.97,4079.62
3204.42,4021.38
3205.87,4049.02
3207.32,4061.29
3208.78,4015.02
3210.23,4053.59
3211.68,3937.92
3213.13,3865.56
3214.58,3847.66
3216.03,3796.61
3217.49,3781.12
3218.94,3726.6
3220.39,3679.46
3221.84,3621.66
3223.29,3582.52
3224.75,3485.21
3226.2,3440.33
3227.65,3419.02
3229.1,3358.95
3230.55,3297.53
3232,3260.94
3233.46,3201.2
3234.91,3149.97
3236.36,3116.19
3237.81,3120.36
3239.26,3015.44
3240.72,2948.27
3242.17,2934.33
3243.62,2933.82
3245.07,2891.95
3246.52,2846.45
3247.97,2790.47
3249.43,2831.42
3250.88,2746.67
3252.33,2710.5
3253.78,2700.11
3255.23,2682.42
3256.68,2655.52
3258.14,2705.15
3259.59,2658.71
3261.04,2635.91
3262.49,2608.65
3263.94,2607.13
3265.4,2582.65
3266.85,2546.4
3268.3,2588.73
3269.75,2585.64
3271.2,2550.27
3272.65,2560.92
3274.11,2541.82
3275.56,2536.09
3277.01,2529.21
3278.46,2522.4
3279.91,2503.65
3281.37,2505.4
3282.82,2524.84
3284.27,2533.93
3285.72,2469.3
3287.17,2496.09
3288.62,2489.13
3290.08,2480.19
3291.53,2467.96
3292.98,2444.82
3294.43,2486.28
3295.88,2460.58
3297.33,2474.63
3298.79,2473.2
3300.24,2497.91
3301.69,2473.09
3303.14,2474.15
3304.59,2453.83
3306.05,2529.93
3307.5,2474.31
3308.95,2462.92
3310.4,2467.29
3311.85,2451.65
3313.3,2450.91
3314.76,2442.47
3316.21,2463.64
3317.66,2455.82
3319.11,2433.25
3320.56,2453.31
3322.02,2437.43
3323.47,2444.78
3324.92,2453.58
3326.37,2461.37
3327.82,2460.82
3329.27,2451.83
3330.73,2443.44
3332.18,2452.82
3333.63,2464.94
3335.08,2417.7
3336.53,2411.34
3337.98,2462.53
3339.44,2426.32
3340.89,2427.81
3342.34,2438.02
3343.79,2451.01
3345.24,2437.71
3346.7,2430.51
3348.15,2420.4
3349.6,2429.92
3351.05,2435.32
3352.5,2402.57
3353.95,2440.82
3355.41,2419.21
3356.86,2382.24
3358.31,2409.05
3359.76,2447.2
3361.21,2427.88
3362.67,2437.62
3364.12,2414.37
3365.57,2423.05
3367.02,2431.31
3368.47,2407.77
3369.92,2424.51
3371.38,2439.92
3372.83,2424.81
3374.28,2380.34
3375.73,2394.77
3377.18,2422.78
3378.63,2431.18
3380.09,2441.24
3381.54,2393.68
3382.99,2392.9
3384.44,2392.49
3385.89,2383.89
3387.35,2411.97
3388.8,2388.76
3390.25,2401.9
3391.7,2387.04
3393.15,2381.96
3394.6,2396.91
3396.06,2409.08
3397.51,2415.57
3398.96,2427.75
3400.41,2397.45
3401.86,2391.7
3403.32,2404.76
3404.77,2412.63
3406.22,2437.04
3407.67,2385.64
3409.12,2399.23
3410.57,2388.14
3412.03,2378.88
3413.48,2358.35
3414.93,2413.37
3416.38,2409.47
3417.83,2391.56
3419.28,2388.27
3420.74,2434.85
3422.19,2384.01
3423.64,2418.2
3425.09,2399.22
3426.54,2380.44
3428,2351.24
3429.45,2398.44
3430.9,2405.71
3432.35,2413.81
3433.8,2414.83
3435.25,2370.53
3436.71,2376.34
3438.16,2376.29
3439.61,2410.85
3441.06,2403.97
3442.51,2376.43
3443.97,2364.81
3445.42,2353.71
3446.87,2399.89
3448.32,2370.88
3449.77,2362.32
3451.22,2369.71
3452.68,2415.17
3454.13,2351.65
3455.58,2356.29
3457.03,2404.83
3458.48,2379.69
3459.94,2382
3461.39,2360.86
3462.84,2379.31
3464.29,2387.32
3465.74,2383.07
3467.19,2383.54
3468.65,2347.08
3470.1,2394.2
3471.55,2378.89
3473,2351.9
3474.45,2328.8
3475.9,2384.4
3477.36,2406.75
3478.81,2413.54
3480.26,2398.91
3481.71,2354.71
3483.16,2379.82
3484.62,2334.75
3486.07,2392
3487.52,2365.17
3488.97,2343.26
3490.42,2372.78
3491.87,2380.37
3493.33,2393.54
3494.78,2371.5
3496.23,2371.69
3497.68,2375.4
3499.13,2373.63
3500.58,2387.66
3502.04,2408.2
3503.49,2371.61
3504.94,2348.46
3506.39,2337.26
3507.84,2383.04
3509.3,2416.36
3510.75,2420.58
3512.2,2367.88
3513.65,2370.79
3515.1,2389.44
3516.55,2375.63
3518.01,2391.4
3519.46,2380.96
3520.91,2374.8
3522.36,2372.06
3523.81,2377.46
3525.27,2378.83
3526.72,2357.09
3528.17,2386.34
3529.62,2366.33
3531.07,2383.01
3532.52,2394.87
3533.98,2387.38
3535.43,2401.26
3536.88,2384.44
3538.33,2345.79
3539.78,2377.23
3541.24,2385.65
3542.69,2360.49
3544.14,2387.7
3545.59,2393.45
3547.04,2373.23
3548.49,2362.27
3549.95,2383.1
3551.4,2363.73
3552.85,2348.57
3554.3,2353.73
3555.75,2389.85
3557.2,2400.47
3558.66,2365.51
3560.11,2358.12
3561.56,2368.42
3563.01,2370.26
3564.46,2376.18
3565.92,2376.04
3567.37,2367.87
3568.82,2371.8
3570.27,2373.64
3571.72,2350.57
3573.17,2361.09
3574.63,2380.56
3576.08,2375.43
3577.53,2398.74
3578.98,2333.03
3580.43,2358.99
3581.89,2352.14
3583.34,2354.81
3584.79,2340.93
3586.24,2384.34
3587.69,2354.86
3589.14,2380.83
3590.6,2382.95
3592.05,2357.65
3593.5,2360.07
3594.95,2352.07
3596.4,2341.17
3597.85,2342.16
3599.31,2375.37
3600.76,2379.74
3602.21,2347.21
3603.66,2378.01
3605.11,2321.42
3606.57,2376.48
3608.02,2372.92
3609.47,2364.06
3610.92,2371.41
3612.37,2399.76
3613.82,2360.19
3615.28,2365.75
3616.73,2344.56
3618.18,2400.29
3619.63,2342.31
3621.08,2383.07
3622.54,2372.09
3623.99,2381.33
3625.44,2389.68
3626.89,2377.81
3628.34,2349.14
3629.79,2356.14
3631.25,2359.72
3632.7,2370.35
3634.15,2359.41
3635.6,2352.88
3637.05,2343.46
3638.5,2369.28
3639.96,2359.51
3641.41,2372.57
3642.86,2365
3644.31,2347.83
3645.76,2371.29
3647.22,2359.74
3648.67,2359.94
3650.12,2343.79
3651.57,2350.6
3653.02,2333.76
3654.47,2368.51
3655.93,2407.81
3657.38,2370.61
3658.83,2381.25
3660.28,2369.55
3661.73,2369.23
3663.19,2352.43
3664.64,2381.1
3666.09,2332.15
3667.54,2364.25
3668.99,2370.16
3670.44,2394.16
3671.9,2368.7
3673.35,2357.59
3674.8,2398.65
3676.25,2384.85
3677.7,2340.99
3679.16,2368.39
3680.61,2369.56
3682.06,2393.23
3683.51,2370.14
3684.96,2379.32
3686.41,2378.92
3687.87,2367.52
3689.32,2383.35
3690.77,2347.04
3692.22,2387.09
3693.67,2360.05
3695.12,2367.74
3696.58,2376.39
3698.03,2385.92
3699.48,2386.61
3700.93,2385.74
3702.38,2367.97
3703.84,2397.01
3705.29,2377.5
3706.74,2352.41
3708.19,2378.34
3709.64,2423.34
3711.09,2398.98
3712.55,2388.9
3714,2364.93
3715.45,2372
3716.9,2380.61
3718.35,2390.73
3719.8,2401.62
3721.26,2380.16
3722.71,2359.18
3724.16,2379.74
3725.61,2395.69
3727.06,2395.15
3728.52,2378.85
3729.97,2373.29
3731.42,2394.94
3732.87,2388.54
3734.32,2380.76
3735.77,2414.62
3737.23,2409.32
3738.68,2391.06
3740.13,2355.91
3741.58,2403.83
3743.03,2366.28
3744.49,2373.02
3745.94,2419.97
3747.39,2392.62
3748.84,2402.57
3750.29,2415.17
3751.74,2383.83
3753.2,2385.55
3754.65,2385.46
3756.1,2361.83
3757.55,2391.97
3759,2379.34
3760.46,2399.21
3761.91,2407.92
3763.36,2413.42
3764.81,2416.57
3766.26,2422.7
3767.71,2373.61
3769.17,2390.05
3770.62,2412.51
3772.07,2364.22
3773.52,2377.38
3774.97,2397.39
3776.42,2372.22
3777.88,2392.58
3779.33,2395.78
3780.78,2419.66
3782.23,2421.6
3783.68,2424.3
3785.14,2446.41
3786.59,2398.49
3788.04,2388.22
3789.49,2373.94
3790.94,2416.1
3792.39,2416.87
3793.85,2406.43
3795.3,2422.9
3796.75,2428.95
3798.2,2419.3
3799.65,2409.88
3801.1,2413.24
3802.56,2354.7
3804.01,2427.35
3805.46,2411.45
3806.91,2406.98
3808.36,2439.8
3809.82,2429.69
3811.27,2408.95
3812.72,2403.36
3814.17,2408.11
3815.62,2446.52
3817.07,2434.29
3818.53,2433.19
3819.98,2478.6
3821.43,2399.13
3822.88,2401.11
3824.33,2402.06
3825.79,2431.36
3827.24,2489.23
3828.69,2484.82
3830.14,2410.67
3831.59,2450.59
3833.04,2413.08
3834.5,2424.6
3835.95,2430.95
3837.4,2444.93
3838.85,2431.63
3840.3,2429.36
3841.76,2495.29
3843.21,2387.19
3844.66,2423.85
3846.11,2425.49
3847.56,2401.69
3849.01,2486.79
3850.47,2399.05
3851.92,2440.91
3853.37,2394.04
3854.82,2411.62
3856.27,2451.35
3857.72,2452.59
3859.18,2469.01
3860.63,2464.68
3862.08,2413.6
3863.53,2452.2
3864.98,2467.08
3866.44,2503.42
3867.89,2445.75
3869.34,2433.46
3870.79,2460.14
3872.24,2465.29
3873.69,2449.54
3875.15,2465.06
3876.6,2427.78
3878.05,2443.48
3879.5,2478.81
3880.95,2439.46
3882.41,2457.59
3883.86,2477.81
3885.31,2455.18
3886.76,2449.28
3888.21,2468.16
3889.66,2472.44
3891.12,2463.14
3892.57,2505.44
3894.02,2501.25
3895.47,2509.78
3896.92,2492.41
3898.37,2491.34
3899.83,2482.65
3901.28,2466.6
3902.73,2498.12
3904.18,2483.46
3905.63,2513.04
3907.09,2499.42
3908.54,2502.96
3909.99,2533.14
3911.44,2516.19
3912.89,2519.85
3914.34,2517.82
3915.8,2477.53
3917.25,2505.96
3918.7,2557.8
3920.15,2541.64
3921.6,2577.93
3923.06,2542.43
3924.51,2500.56
3925.96,2561.73
3927.41,2551.78
3928.86,2536.88
3930.31,2601.86
3931.77,2568.71
3933.22,2574.65
3934.67,2579.62
3936.12,2573.99
3937.57,2580.48
3939.02,2585.74
3940.48,2573.55
3941.93,2558.7
3943.38,2569.81
3944.83,2587.9
3946.28,2581.73
3947.74,2586.79
3949.19,2582.46
3950.64,2594.73
3952.09,2568.73
3953.54,2556.95
3954.99,2605.16
3956.45,2596.52
3957.9,2583.69
3959.35,2654.75
3960.8,2602.8
3962.25,2620.89
3963.71,2601.79
3965.16,2607.82
3966.61,2626.32
3968.06,2623.54
3969.51,2634.23
3970.96,2611.68
3972.42,2630.82
3973.87,2635.2
3975.32,2649.47
3976.77,2635.78
3978.22,2648.95
3979.68,2645.11
3981.13,2638.75
3982.58,2676.53
3984.03,2656.56
3985.48,2696.81
3986.93,2643.45
3988.39,2681.62
3989.84,2722.96
3991.29,2681.82
3992.74,2676.02
3994.19,2663.06
3995.64,2697.62
3997.1,2698.05
3998.55,2709.47
4000,2705.74
