0,29604.6
1.77681,28152.2
3.2286,18060.3
4.68039,5238.44
6.13218,910.55
7.58397,181.773
9.03575,121.259
10.4875,114.261
11.9393,113.741
13.3911,113.351
14.8429,112.112
16.2947,110.65
17.7465,108.387
19.1983,104.252
20.6501,100.699
22.1018,96.6844
23.5536,93.7418
25.0054,91.6538
26.4572,87.2306
27.909,81.9851
29.3608,77.6598
30.8126,71.1915
32.2644,70.0452
33.7161,69.275
35.1679,68.5743
36.6197,68.5746
38.0715,66.6873
39.5233,66.6445
40.9751,68.4953
42.4269,70.6283
43.8787,70.8592
45.3304,75.5506
46.7822,85.3049
48.234,100.424
49.6858,131.216
51.1376,192.212
52.5894,310.979
54.0412,474.337
55.493,675.922
56.9447,893.609
58.3965,1141.35
59.8483,1341.27
61.3001,1520.52
62.7519,1658.05
64.2037,1755.43
65.6555,1790.1
67.1073,1844.82
68.559,1884.97
70.0108,1905.04
71.4626,1919.29
72.9144,1927.89
74.3662,1942.96
75.818,1977.18
77.2698,1999.94
78.7216,2042.53
80.1733,2110.05
81.6251,2148.48
83.0769,2195.03
84.5287,2224.63
85.9805,2212.14
87.4323,2159.33
88.8841,2086.15
90.3359,1998.21
91.7877,1896.98
93.2394,1793.69
94.6912,1706.27
96.143,1615.56
97.5948,1538.87
99.0466,1496.01
100.498,1477.34
101.95,1437.54
103.402,1398.43
104.854,1381.1
106.306,1371.81
107.757,1350.84
109.209,1324.16
110.661,1293.26
112.113,1277.33
113.564,1276.28
115.016,1255.23
116.468,1225.85
117.92,1209.25
119.372,1199.46
120.823,1166.78
122.275,1176.65
123.727,1153.56
125.179,1119.15
126.631,1102.5
128.082,1101.27
129.534,1073.34
130.986,1055.32
132.438,1044.1
133.889,1026.94
135.341,1008.34
136.793,985.714
138.245,971.996
139.697,972.022
141.148,974.476
142.6,964.278
144.052,964.808
145.504,961.838
146.956,953.941
148.407,935.766
149.859,916.578
151.311,901.181
152.763,903.84
154.215,904.324
155.666,896.248
157.118,858.428
158.57,841.533
160.022,839.716
161.473,838.788
162.925,824.572
164.377,829.764
165.829,832.555
167.281,824.247
168.732,810.303
170.184,819.758
171.636,802.804
173.088,782.84
174.54,776.839
175.991,779.253
177.443,743.083
178.895,748.805
180.347,748.799
181.798,741.339
183.25,722.992
184.702,734.775
186.154,730.545
187.606,724.358
189.057,712.914
190.509,701.748
191.961,691.544
193.413,698.009
194.865,711.19
196.316,712.019
197.768,700.641
199.22,697.571
200.672,698.406
202.124,703.804
203.575,696.676
205.027,676.803
206.479,674.762
207.931,680.439
209.382,678.31
210.834,679.635
212.286,693.917
213.738,686.77
215.19,679.032
216.641,686.876
218.093,698.446
219.545,704.851
220.997,704.904
222.449,674.129
223.9,682.018
225.352,690.596
226.804,687.95
228.256,668.514
229.707,671.459
231.159,680.931
232.611,681.278
234.063,685.855
235.515,684.443
236.966,689.734
238.418,687.97
239.87,684.807
241.322,682.142
242.774,676.03
244.225,674.207
245.677,674.676
247.129,677.649
248.581,670.351
250.033,655.807
251.484,663.973
252.936,648.163
254.388,639.273
255.84,645.95
257.291,656.493
258.743,645.222
260.195,642.659
261.647,641.04
263.099,643.564
264.55,643.727
266.002,632.589
267.454,637.48
268.906,642.9
270.358,644.702
271.809,636.243
273.261,622.125
274.713,627.795
276.165,627.866
277.616,623.82
279.068,617.794
280.52,616.495
281.972,611.692
283.424,596.099
284.875,587.355
286.327,591.329
287.779,594.541
289.231,594.484
290.683,597.76
292.134,594.383
293.586,580.883
295.038,565.644
296.49,577.776
297.941,577.01
299.393,573.141
300.845,570.747
302.297,567.709
303.749,565.86
305.2,556.632
306.652,556.732
308.104,553.923
309.556,542.016
311.008,549.76
312.459,560.632
313.911,547.818
315.363,543.014
316.815,548.653
318.267,528.059
319.718,543.242
321.17,540.637
322.622,542.19
324.074,544.633
325.525,537.431
326.977,544.391
328.429,544.942
329.881,525.908
331.333,512.685
332.784,526.282
334.236,521.244
335.688,509.533
337.14,523.512
338.592,528.765
340.043,518.631
341.495,514.857
342.947,523.127
344.399,520.343
345.85,513.893
347.302,513.684
348.754,519.221
350.206,514.642
351.658,509.388
353.109,509.54
354.561,512.823
356.013,512.044
357.465,495.999
358.917,498.419
360.368,500.302
361.82,499.999
363.272,502.032
364.724,507.657
366.176,498.942
367.627,492.286
369.079,493.394
370.531,501.235
371.983,503.909
373.434,491.363
374.886,493.59
376.338,496.387
377.79,496.753
379.242,493.561
380.693,497.192
382.145,480.328
383.597,488.175
385.049,498.162
386.501,505.059
387.952,506.962
389.404,500.222
390.856,492.811
392.308,493.378
393.759,496.294
395.211,497.118
396.663,487.553
398.115,501.498
399.567,496.105
401.018,488.628
402.47,485.455
403.922,493.431
405.374,493.16
406.826,494.97
408.277,494.141
409.729,492.64
411.181,493.9
412.633,502.24
414.085,495.499
415.536,487.351
416.988,489.779
418.44,495.867
419.892,493.794
421.343,508.993
422.795,492.074
424.247,485.58
425.699,486.788
427.151,488.572
428.602,484.961
430.054,478.005
431.506,493.471
432.958,495.997
434.41,491.252
435.861,494.297
437.313,479.547
438.765,479.042
440.217,497.256
441.668,505.429
443.12,496.115
444.572,474.325
446.024,490.502
447.476,482.748
448.927,480.423
450.379,481.049
451.831,481.988
453.283,485.92
454.735,472.264
456.186,476.889
457.638,483.45
459.09,488.405
460.542,489.917
461.993,488.604
463.445,488.276
464.897,480.243
466.349,481.201
467.801,484.661
469.252,472.903
470.704,474.463
472.156,481.441
473.608,488.505
475.06,486.488
476.511,473.797
477.963,470.535
479.415,480.443
480.867,486.039
482.319,482.907
483.77,473.148
485.222,466.066
486.674,479.758
488.126,487.48
489.577,479.355
491.029,475.004
492.481,474.038
493.933,462.393
495.385,464.038
496.836,464.073
498.288,471.279
499.74,471.096
501.192,464.167
502.644,460.85
504.095,465.168
505.547,469.557
506.999,473.15
508.451,472.16
509.902,465.236
511.354,473.651
512.806,463.567
514.258,465.422
515.71,468.582
517.161,470.564
518.613,464.701
520.065,450.709
521.517,468.282
522.969,468.13
524.42,459.823
525.872,452.52
527.324,458.917
528.776,459.838
530.228,466.46
531.679,474.863
533.131,468.038
534.583,459.423
536.035,462.807
537.486,477.798
538.938,473.193
540.39,462.384
541.842,460.798
543.294,464.839
544.745,468.988
546.197,468.462
547.649,465.34
549.101,460.173
550.553,468.642
552.004,474.813
553.456,464.382
554.908,465.925
556.36,457.995
557.811,458.859
559.263,461.143
560.715,467.341
562.167,469.363
563.619,483.737
565.07,471.195
566.522,469.137
567.974,471.539
569.426,465.421
570.878,457.03
572.329,465.309
573.781,455.837
575.233,463.652
576.685,469.649
578.137,469.315
579.588,459.212
581.04,453.705
582.492,462.076
583.944,457.881
585.395,458.913
586.847,462.399
588.299,461.27
589.751,458.783
591.203,457.974
592.654,453.968
594.106,459.554
595.558,467.246
597.01,463.62
598.462,455.771
599.913,463.272
601.365,451.541
602.817,450.314
604.269,461.004
605.72,459.957
607.172,469.799
608.624,472.558
610.076,473.663
611.528,465.769
612.979,457.534
614.431,459.273
615.883,452.274
617.335,456.917
618.787,462.492
620.238,471.883
621.69,469.229
623.142,454.121
624.594,466.377
626.046,464.634
627.497,470.023
628.949,466.508
630.401,469.04
631.853,472.796
633.304,458.501
634.756,454.224
636.208,465.226
637.66,467.706
639.112,469.264
640.563,472.644
642.015,470.315
643.467,465.02
644.919,467.875
646.371,475.876
647.822,479.009
649.274,477.745
650.726,477.134
652.178,483.709
653.629,466.759
655.081,468.244
656.533,476.61
657.985,481.156
659.437,480.123
660.888,486.085
662.34,477.712
663.792,471.668
665.244,476.319
666.696,476.547
668.147,476.004
669.599,491.183
671.051,493.904
672.503,479.284
673.954,478.496
675.406,477.839
676.858,473.509
678.31,482.761
679.762,494.823
681.213,485.597
682.665,476.194
684.117,474.972
685.569,483.123
687.021,497.613
688.472,497.637
689.924,489.078
691.376,485.075
692.828,488.942
694.28,494.199
695.731,488.336
697.183,487.551
698.635,477.488
700.087,478.283
701.538,480.577
702.99,481.719
704.442,479.314
705.894,483.665
707.346,496.032
708.797,499.903
710.249,488.883
711.701,491.351
713.153,491.577
714.605,482.85
716.056,485.051
717.508,485.967
718.96,496.814
720.412,489.877
721.863,484.959
723.315,487.412
724.767,490.761
726.219,491.005
727.671,491.761
729.122,479.28
730.574,478.091
732.026,482.294
733.478,493.173
734.93,500.23
736.381,495.397
737.833,482.458
739.285,487.223
740.737,488.513
742.189,490.275
743.64,494.887
745.092,492.121
746.544,490.995
747.996,497.463
749.447,490.019
750.899,496.655
752.351,497.549
753.803,485.485
755.255,492.24
756.706,485.967
758.158,485.322
759.61,498.86
761.062,503.354
762.514,504.746
763.965,500.162
765.417,491.257
766.869,492.04
768.321,498.489
769.772,496.525
771.224,499.459
772.676,502.318
774.128,490.68
775.58,493.8
777.031,486.564
778.483,495.184
779.935,487.879
781.387,485.439
782.839,492.369
784.29,496.624
785.742,501.121
787.194,511.196
788.646,503.887
790.098,507.017
791.549,508.566
793.001,504.99
794.453,510.769
795.905,504.65
797.356,493.037
798.808,494.305
800.26,490.085
801.712,495.637
803.164,508.45
804.615,509.4
806.067,514.427
807.519,501.695
808.971,505.712
810.423,505.195
811.874,505.535
813.326,501.316
814.778,509.319
816.23,510.635
817.681,510.783
819.133,503.459
820.585,512.346
822.037,513.447
823.489,507.711
824.94,504.744
826.392,514.817
827.844,520.057
829.296,523.344
830.748,525.063
832.199,526.531
833.651,518.936
835.103,520.557
836.555,522.021
838.007,521.553
839.458,518.193
840.91,522.404
842.362,526.067
843.814,529.165
845.265,518.311
846.717,516.29
848.169,532.516
849.621,545.755
851.073,547.851
852.524,542.521
853.976,540.97
855.428,536.933
856.88,539.322
858.332,537.05
859.783,542.414
861.235,543.748
862.687,538.583
864.139,533.99
865.59,531.381
867.042,533.779
868.494,528.027
869.946,527.504
871.398,537.627
872.849,532.591
874.301,517.865
875.753,522.99
877.205,526.152
878.657,533.756
880.108,530.109
881.56,531.331
883.012,531.947
884.464,534.678
885.915,535.939
887.367,537.607
888.819,534.243
890.271,548.101
891.723,541.991
893.174,552.875
894.626,549.709
896.078,541.373
897.53,545.835
898.982,546.78
900.433,543.511
901.885,553.3
903.337,537.416
904.789,542.659
906.241,555.156
907.692,556.862
909.144,546.76
910.596,544.31
912.048,555.224
913.499,555.492
914.951,557.088
916.403,557.139
917.855,556.226
919.307,561.578
920.758,563.466
922.21,561.645
923.662,566.571
925.114,568.58
926.566,568.104
928.017,562.043
929.469,558.201
930.921,565.543
932.373,565.664
933.824,565.003
935.276,564.501
936.728,581.859
938.18,576.448
939.632,568.043
941.083,573.855
942.535,553.111
943.987,570.925
945.439,574.481
946.891,565.154
948.342,564.72
949.794,564.603
951.246,566.024
952.698,569.319
954.15,565.393
955.601,569.641
957.053,572.086
958.505,567.562
959.957,575.519
961.408,571.984
962.86,559.16
964.312,561.592
965.764,581.962
967.216,566.362
968.667,568.99
970.119,574.095
971.571,573.386
973.023,565.992
974.475,565.365
975.926,577.711
977.378,577.27
978.83,568.894
980.282,572.495
981.733,570.316
983.185,577.461
984.637,584.381
986.089,577.617
987.541,578.794
988.992,574.699
990.444,577.723
991.896,583.15
993.348,573.483
994.8,577.744
996.251,593.937
997.703,593.625
999.155,583.878
1000.61,596.866
1002.06,595.884
1003.51,597.992
1004.96,593.816
1006.41,596.804
1007.87,595.831
1009.32,608.478
1010.77,611.142
1012.22,599.743
1013.67,618.245
1015.12,602.555
1016.58,611.228
1018.03,615.617
1019.48,618.115
1020.93,619.735
1022.38,613.344
1023.84,620.069
1025.29,635.759
1026.74,644.605
1028.19,641.963
1029.64,643.695
1031.09,656.11
1032.55,660.189
1034,651.113
1035.45,657.974
1036.9,666.817
1038.35,663.491
1039.8,663.895
1041.26,668.82
1042.71,674.108
1044.16,690.092
1045.61,693.089
1047.06,679.819
1048.52,684.701
1049.97,704.003
1051.42,693.248
1052.87,702.564
1054.32,714.041
1055.77,701.171
1057.23,701.994
1058.68,727.634
1060.13,719.976
1061.58,740.517
1063.03,736.499
1064.49,740.61
1065.94,753.884
1067.39,762.796
1068.84,757.657
1070.29,764.473
1071.74,774.439
1073.2,771.382
1074.65,788.893
1076.1,785.034
1077.55,807.452
1079,804.548
1080.46,799.986
1081.91,807.121
1083.36,815.15
1084.81,799.907
1086.26,821.124
1087.71,817.816
1089.17,802.652
1090.62,807.247
1092.07,811.934
1093.52,794.244
1094.97,784.259
1096.42,816.788
1097.88,819.633
1099.33,793.269
1100.78,796.512
1102.23,797.122
1103.68,794.112
1105.14,797.095
1106.59,791.565
1108.04,780.804
1109.49,774.996
1110.94,792.036
1112.39,786.5
1113.85,782.25
1115.3,768.418
1116.75,763.286
1118.2,761.111
1119.65,759.182
1121.11,765.328
1122.56,755.449
1124.01,759.978
1125.46,735.511
1126.91,748.394
1128.36,735.239
1129.82,732.739
1131.27,739.536
1132.72,745.53
1134.17,745.052
1135.62,736.996
1137.07,734.881
1138.53,731.108
1139.98,732.792
1141.43,731.301
1142.88,721.706
1144.33,729.524
1145.79,737.619
1147.24,723.49
1148.69,711.256
1150.14,729.822
1151.59,732.176
1153.04,736.605
1154.5,730.445
1155.95,729.597
1157.4,729.955
1158.85,725.671
1160.3,729.199
1161.76,736.963
1163.21,726.672
1164.66,730.883
1166.11,732.865
1167.56,724.65
1169.01,722.681
1170.47,730.763
1171.92,739.078
1173.37,733.853
1174.82,735.882
1176.27,730.697
1177.72,738.8
1179.18,744.86
1180.63,754.965
1182.08,750.29
1183.53,740.073
1184.98,739.403
1186.44,739.907
1187.89,742.168
1189.34,750.396
1190.79,741.744
1192.24,756.006
1193.69,741.558
1195.15,749.926
1196.6,754.388
1198.05,759.818
1199.5,760.767
1200.95,764.281
1202.41,771.588
1203.86,763.207
1205.31,771.992
1206.76,779.71
1208.21,776.952
1209.66,769.022
1211.12,765.043
1212.57,770.076
1214.02,774.571
1215.47,774.465
1216.92,768.624
1218.37,786.765
1219.83,788.164
1221.28,784
1222.73,793.84
1224.18,787.779
1225.63,775.049
1227.09,772.025
1228.54,790.869
1229.99,801.982
1231.44,783.072
1232.89,778.855
1234.34,804.979
1235.8,800.881
1237.25,798.15
1238.7,808.023
1240.15,813.208
1241.6,808.891
1243.06,810.111
1244.51,823.531
1245.96,822.252
1247.41,836.235
1248.86,847.262
1250.31,840.459
1251.77,829.638
1253.22,839.703
1254.67,848.19
1256.12,857.095
1257.57,875.356
1259.02,882.165
1260.48,883.617
1261.93,896.096
1263.38,880.972
1264.83,910.71
1266.28,908.886
1267.74,905.743
1269.19,920.224
1270.64,937.563
1272.09,947.715
1273.54,959.842
1274.99,967.049
1276.45,977.797
1277.9,988.764
1279.35,1018.56
1280.8,997.424
1282.25,1023.63
1283.71,1046.83
1285.16,1065.03
1286.61,1079.67
1288.06,1094.57
1289.51,1125.23
1290.96,1162.96
1292.42,1158.55
1293.87,1198.47
1295.32,1228.53
1296.77,1250.96
1298.22,1295.95
1299.67,1342.92
1301.13,1384.31
1302.58,1415.37
1304.03,1445.24
1305.48,1493.99
1306.93,1556.82
1308.39,1602.33
1309.84,1686.09
1311.29,1748.1
1312.74,1809.91
1314.19,1897.78
1315.64,1984.91
1317.1,2058.89
1318.55,2144.98
1320,2240.26
1321.45,2317.32
1322.9,2408.92
1324.36,2507.83
1325.81,2608.37
1327.26,2716.72
1328.71,2763.02
1330.16,2812.43
1331.61,2891.26
1333.07,2948.43
1334.52,2981.11
1335.97,3032.1
1337.42,3015.91
1338.87,2998.55
1340.33,2952.19
1341.78,2926.98
1343.23,2845.72
1344.68,2755.72
1346.13,2688.35
1347.58,2611.52
1349.04,2518.49
1350.49,2415.79
1351.94,2300.17
1353.39,2220.59
1354.84,2142.58
1356.29,2012.51
1357.75,1945.81
1359.2,1866.77
1360.65,1801.4
1362.1,1722.35
1363.55,1647.71
1365.01,1606.72
1366.46,1550.58
1367.91,1476.84
1369.36,1445.71
1370.81,1396.99
1372.26,1351.62
1373.72,1345.81
1375.17,1312.91
1376.62,1291.89
1378.07,1256.51
1379.52,1225.09
1380.98,1204.24
1382.43,1182.04
1383.88,1174.66
1385.33,1157
1386.78,1134.86
1388.23,1134.83
1389.69,1113.14
1391.14,1096.76
1392.59,1098.47
1394.04,1097.11
1395.49,1074.78
1396.94,1059.96
1398.4,1053.93
1399.85,1051.59
1401.3,1050.05
1402.75,1045.38
1404.2,1048.74
1405.66,1049.97
1407.11,1034.04
1408.56,1041.26
1410.01,1031.01
1411.46,1041.73
1412.91,1049.33
1414.37,1030.8
1415.82,1034.53
1417.27,1039.59
1418.72,1045.84
1420.17,1045.48
1421.63,1045.83
1423.08,1050.38
1424.53,1049.6
1425.98,1043.75
1427.43,1071.34
1428.88,1045.89
1430.34,1063.23
1431.79,1062.07
1433.24,1068.79
1434.69,1065.65
1436.14,1076.46
1437.59,1093.95
1439.05,1091.27
1440.5,1101.64
1441.95,1093.99
1443.4,1094.77
1444.85,1094.04
1446.31,1105.04
1447.76,1104.22
1449.21,1107.95
1450.66,1123.99
1452.11,1142.65
1453.56,1153.53
1455.02,1160.04
1456.47,1155.58
1457.92,1154.51
1459.37,1179.67
1460.82,1198.58
1462.28,1205.98
1463.73,1200.52
1465.18,1235.32
1466.63,1217.8
1468.08,1244.52
1469.53,1258
1470.99,1259.33
1472.44,1268.98
1473.89,1283.99
1475.34,1309.05
1476.79,1346.97
1478.24,1354.6
1479.7,1358.76
1481.15,1391.97
1482.6,1410.06
1484.05,1432.74
1485.5,1466.73
1486.96,1481.71
1488.41,1504.83
1489.86,1528.3
1491.31,1556.06
1492.76,1574.35
1494.21,1585.32
1495.67,1641.19
1497.12,1711.01
1498.57,1729.51
1500.02,1748.23
1501.47,1794.71
1502.93,1852.91
1504.38,1853.05
1505.83,1938.95
1507.28,1970.32
1508.73,2047.95
1510.18,2119.27
1511.64,2187.23
1513.09,2267.57
1514.54,2330.39
1515.99,2431.25
1517.44,2557.58
1518.89,2663.39
1520.35,2749.91
1521.8,2853.63
1523.25,3004.07
1524.7,3162.27
1526.15,3404.18
1527.61,3570.32
1529.06,3829.61
1530.51,4074.25
1531.96,4368.83
1533.41,4707.97
1534.86,5057.15
1536.32,5459.05
1537.77,5941.62
1539.22,6463.81
1540.67,7029.46
1542.12,7608.91
1543.58,8369.5
1545.03,9140.23
1546.48,10007.5
1547.93,10844.5
1549.38,11733.8
1550.83,12652.4
1552.29,13659.5
1553.74,14630.8
1555.19,15580.5
1556.64,16581.1
1558.09,17507.3
1559.54,18347.4
1561,19095.9
1562.45,19701.2
1563.9,20078.2
1565.35,20340.2
1566.8,20390.2
1568.26,20252.1
1569.71,19729.5
1571.16,19089
1572.61,18317.8
1574.06,17390.1
1575.51,16398.9
1576.97,15344.3
1578.42,14286
1579.87,13275.4
1581.32,12269.2
1582.77,11320.4
1584.23,10441
1585.68,9587.46
1587.13,8876.86
1588.58,8132.92
1590.03,7469.8
1591.48,6887.3
1592.94,6323.98
1594.39,5920.04
1595.84,5560.94
1597.29,5180.6
1598.74,4922.63
1600.2,4666.31
1601.65,4411.26
1603.1,4173.86
1604.55,3973.77
1606,3775.98
1607.45,3586.8
1608.91,3429.44
1610.36,3281.76
1611.81,3131.78
1613.26,2946.77
1614.71,2807.47
1616.16,2678.51
1617.62,2546.91
1619.07,2440.04
1620.52,2307.95
1621.97,2239.23
1623.42,2152.59
1624.88,2057.16
1626.33,1995.97
1627.78,1919.39
1629.23,1854.31
1630.68,1793.92
1632.13,1719.32
1633.59,1685.16
1635.04,1668.49
1636.49,1636.34
1637.94,1579.29
1639.39,1523.34
1640.85,1506.67
1642.3,1474.03
1643.75,1445.69
1645.2,1414.7
1646.65,1408.48
1648.1,1392.84
1649.56,1373.15
1651.01,1332.68
1652.46,1313.93
1653.91,1293.47
1655.36,1275.28
1656.81,1272.62
1658.27,1237.99
1659.72,1207.56
1661.17,1202.09
1662.62,1189.25
1664.07,1167.86
1665.53,1163.51
1666.98,1163.4
1668.43,1134.52
1669.88,1103.78
1671.33,1097.9
1672.78,1094.59
1674.24,1065.45
1675.69,1045.56
1677.14,1054.6
1678.59,1055.49
1680.04,1038.65
1681.5,1022.94
1682.95,1021.76
1684.4,1024.77
1685.85,1016.89
1687.3,1007.04
1688.75,995.116
1690.21,983.075
1691.66,975.782
1693.11,951.461
1694.56,963.23
1696.01,966.651
1697.46,951.666
1698.92,945.938
1700.37,934.944
1701.82,930.203
1703.27,928.612
1704.72,935.793
1706.18,936.091
1707.63,930.13
1709.08,919.402
1710.53,924.117
1711.98,920.039
1713.43,900.366
1714.89,906.42
1716.34,905.843
1717.79,906.784
1719.24,896.109
1720.69,905.213
1722.15,924.667
1723.6,905.372
1725.05,916.067
1726.5,904.57
1727.95,890.5
1729.4,899.504
1730.86,899.345
1732.31,910.948
1733.76,918.825
1735.21,889.465
1736.66,881.363
1738.11,891.329
1739.57,886.157
1741.02,873.539
1742.47,877.922
1743.92,881.615
1745.37,867.034
1746.83,859.064
1748.28,860.722
1749.73,867.75
1751.18,872.054
1752.63,862.26
1754.08,846.559
1755.54,863.388
1756.99,865.476
1758.44,852.772
1759.89,830.228
1761.34,843.589
1762.8,836.149
1764.25,830.785
1765.7,825.527
1767.15,832.96
1768.6,836.235
1770.05,834.061
1771.51,825.467
1772.96,804.594
1774.41,802.957
1775.86,808.798
1777.31,810.688
1778.76,799.277
1780.22,788.469
1781.67,801.511
1783.12,809.355
1784.57,802.963
1786.02,782.601
1787.48,784.656
1788.93,799.476
1790.38,784.968
1791.83,775.937
1793.28,794.437
1794.73,814.454
1796.19,778.934
1797.64,765.229
1799.09,778.238
1800.54,773.298
1801.99,772.688
1803.45,780.26
1804.9,781.076
1806.35,779.883
1807.8,782.932
1809.25,777.197
1810.7,768.206
1812.16,763.764
1813.61,763.651
1815.06,764.407
1816.51,759.832
1817.96,767.735
1819.41,772.377
1820.87,765.587
1822.32,757.683
1823.77,767.278
1825.22,771.322
1826.67,784.405
1828.13,760.501
1829.58,778.483
1831.03,771.727
1832.48,765.899
1833.93,762.663
1835.38,751.935
1836.84,787.647
1838.29,780.241
1839.74,795.245
1841.19,799.39
1842.64,794.901
1844.1,800.649
1845.55,796.877
1847,799.913
1848.45,797.201
1849.9,791.473
1851.35,802.599
1852.81,819.301
1854.26,820.448
1855.71,816.324
1857.16,827.331
1858.61,829.996
1860.07,815.283
1861.52,808.579
1862.97,807.32
1864.42,815.913
1865.87,819.606
1867.32,840.38
1868.78,827.238
1870.23,807.936
1871.68,800.311
1873.13,812.074
1874.58,793.17
1876.03,789.318
1877.49,813.075
1878.94,798.428
1880.39,780.479
1881.84,784.04
1883.29,791.89
1884.75,789.815
1886.2,788.555
1887.65,771.767
1889.1,762.491
1890.55,769.638
1892,772.005
1893.46,758.83
1894.91,761.025
1896.36,763.896
1897.81,752.764
1899.26,748.958
1900.72,744.515
1902.17,743.461
1903.62,740.457
1905.07,745.205
1906.52,732.328
1907.97,730.677
1909.43,741.074
1910.88,733.979
1912.33,735.776
1913.78,728.005
1915.23,735.332
1916.68,735.458
1918.14,720.685
1919.59,726.971
1921.04,706.98
1922.49,725.426
1923.94,722.416
1925.4,726.646
1926.85,728.887
1928.3,717.549
1929.75,699.295
1931.2,722.707
1932.65,730.478
1934.11,725.625
1935.56,728.748
1937.01,713.093
1938.46,724.789
1939.91,723.238
1941.37,730.18
1942.82,730.359
1944.27,731.453
1945.72,744.482
1947.17,732.083
1948.62,731.194
1950.08,723.006
1951.53,727.707
1952.98,730.18
1954.43,730.949
1955.88,722.528
1957.33,738.707
1958.79,744.993
1960.24,724.67
1961.69,716.05
1963.14,730.962
1964.59,728.993
1966.05,738.714
1967.5,741.366
1968.95,740.325
1970.4,749.501
1971.85,749.322
1973.3,746.862
1974.76,755.535
1976.21,752.114
1977.66,749.064
1979.11,749.999
1980.56,744.323
1982.02,753.254
1983.47,745.656
1984.92,742.009
1986.37,751.232
1987.82,761.595
1989.27,759.175
1990.73,755.257
1992.18,753.672
1993.63,755.078
1995.08,757.239
1996.53,768.989
1997.98,744.787
1999.44,744.668
2000.89,775.586
2002.34,746.637
2003.79,756.629
2005.24,751.59
2006.7,769.008
2008.15,751.888
2009.6,763.094
2011.05,760.163
2012.5,757.949
2013.95,764.599
2015.41,748.089
2016.86,735.531
2018.31,735.339
2019.76,732.58
2021.21,729.318
2022.67,723.364
2024.12,716.693
2025.57,737.361
2027.02,731.526
2028.47,736.453
2029.92,709.552
2031.38,721.958
2032.83,726.122
2034.28,723.994
2035.73,707.437
2037.18,713.537
2038.63,705.203
2040.09,703.326
2041.54,686.816
2042.99,702.02
2044.44,706.403
2045.89,696.968
2047.35,689.773
2048.8,696.782
2050.25,692.479
2051.7,693.387
2053.15,702.219
2054.6,693.851
2056.06,676.123
2057.51,687.141
2058.96,683.846
2060.41,677.084
2061.86,680.638
2063.32,685.676
2064.77,679.141
2066.22,672.324
2067.67,673.13
2069.12,682.668
2070.57,668.381
2072.03,680.186
2073.48,677.831
2074.93,670.801
2076.38,666.507
2077.83,677.364
2079.28,678.875
2080.74,669.844
2082.19,666.697
2083.64,677.541
2085.09,686.949
2086.54,680.71
2088,673.076
2089.45,669.025
2090.9,657.917
2092.35,655.342
2093.8,660.965
2095.25,664.938
2096.71,657.94
2098.16,674.129
2099.61,681.024
2101.06,683.708
2102.51,682.577
2103.97,679.271
2105.42,665.086
2106.87,662.403
2108.32,660.917
2109.77,655.509
2111.22,656.93
2112.68,655.449
2114.13,659.44
2115.58,655.55
2117.03,659.847
2118.48,670.739
2119.94,666.425
2121.39,679.212
2122.84,670.361
2124.29,675.009
2125.74,679.136
2127.19,681.156
2128.65,696.47
2130.1,676.016
2131.55,671.516
2133,679.069
2134.45,675.306
2135.9,674.672
2137.36,681.611
2138.81,672.844
2140.26,669.292
2141.71,658.865
2143.16,679.379
2144.62,681.337
2146.07,676.839
2147.52,673.797
2148.97,676.143
2150.42,686.399
2151.87,675.757
2153.33,696.351
2154.78,691.656
2156.23,685.934
2157.68,681.518
2159.13,687.798
2160.58,694.315
2162.04,690.045
2163.49,711.601
2164.94,707.848
2166.39,691.391
2167.84,695.489
2169.3,694.534
2170.75,699.825
2172.2,701.304
2173.65,699.825
2175.1,708.763
2176.55,715.991
2178.01,713.862
2179.46,700.057
2180.91,711.721
2182.36,715.613
2183.81,723.748
2185.27,719.299
2186.72,728.111
2188.17,733.628
2189.62,719.949
2191.07,720.672
2192.52,726.089
2193.98,725.691
2195.43,716.78
2196.88,724.988
2198.33,724.544
2199.78,713.842
2201.24,715.281
2202.69,725.207
2204.14,733.76
2205.59,708.273
2207.04,734.371
2208.49,727.674
2209.95,726.043
2211.4,740.994
2212.85,728.456
2214.3,724.537
2215.75,713.948
2217.2,726.878
2218.66,727.753
2220.11,740.994
2221.56,737.898
2223.01,728.9
2224.46,737.938
2225.92,742.917
2227.37,741.969
2228.82,716.362
2230.27,746.504
2231.72,720.977
2233.17,721.282
2234.63,741.545
2236.08,742.413
2237.53,738.561
2238.98,732.991
2240.43,756.689
2241.89,740.716
2243.34,749.979
2244.79,738.873
2246.24,754.09
2247.69,751.57
2249.14,751.305
2250.6,746.073
2252.05,748.792
2253.5,739.516
2254.95,747.731
2256.4,750.038
2257.85,765.673
2259.31,765.958
2260.76,763.73
2262.21,757.325
2263.66,768.14
2265.11,770.268
2266.57,766.098
2268.02,766.953
2269.47,783.947
2270.92,779.571
2272.37,770.792
2273.82,777.887
2275.28,782.117
2276.73,780.353
2278.18,770.195
2279.63,783.264
2281.08,788.781
2282.54,781.308
2283.99,791.692
2285.44,793.475
2286.89,796.492
2288.34,795.995
2289.79,782.117
2291.25,800.066
2292.7,805.596
2294.15,798.282
2295.6,805.35
2297.05,821.575
2298.5,820.972
2299.96,789.47
2301.41,800.464
2302.86,812.922
2304.31,821.86
2305.76,825.739
2307.22,810.303
2308.67,823.438
2310.12,815.827
2311.57,833.325
2313.02,835.572
2314.47,838.065
2315.93,837.694
2317.38,837.608
2318.83,832.549
2320.28,837.542
2321.73,833.292
2323.19,844.855
2324.64,846.393
2326.09,845.571
2327.54,852.275
2328.99,860.298
2330.44,860.821
2331.9,864.773
2333.35,883.823
2334.8,876.164
2336.25,883.942
2337.7,877.444
2339.16,882.749
2340.61,896.123
2342.06,900.193
2343.51,892.688
2344.96,911.651
2346.41,898.085
2347.87,891.554
2349.32,907.103
2350.77,921.173
2352.22,942.225
2353.67,921.756
2355.12,924.083
2356.58,926.901
2358.03,951.361
2359.48,945.878
2360.93,969.145
2362.38,950.466
2363.84,959.265
2365.29,973.448
2366.74,990.747
2368.19,974.635
2369.64,1000.94
2371.09,997.722
2372.55,1011.49
2374,1019.7
2375.45,1027.45
2376.9,1046.96
2378.35,1055.35
2379.8,1055.63
2381.26,1072.1
2382.71,1069.85
2384.16,1084.14
2385.61,1114.95
2387.06,1143.57
2388.52,1146.13
2389.97,1132.55
2391.42,1141.17
2392.87,1191.8
2394.32,1212.14
2395.77,1256.78
2397.23,1257.04
2398.68,1262.9
2400.13,1277.27
2401.58,1310.22
2403.03,1322.14
2404.49,1355.47
2405.94,1376.07
2407.39,1390.51
2408.84,1415.62
2410.29,1450.44
2411.74,1453.07
2413.2,1468.28
2414.65,1495.11
2416.1,1507.37
2417.55,1532.02
2419,1545.15
2420.46,1556.07
2421.91,1548.93
2423.36,1562.17
2424.81,1588.2
2426.26,1598.77
2427.71,1570.57
2429.17,1587.16
2430.62,1609.7
2432.07,1593.27
2433.52,1578.44
2434.97,1598.34
2436.42,1593.46
2437.88,1589.32
2439.33,1574.55
2440.78,1578.72
2442.23,1555.83
2443.68,1546.07
2445.14,1539.05
2446.59,1524.31
2448.04,1509.75
2449.49,1501.52
2450.94,1524.86
2452.39,1498.12
2453.85,1513.28
2455.3,1497.21
2456.75,1457.72
2458.2,1439.93
2459.65,1436.88
2461.1,1453.86
2462.56,1433.95
2464.01,1422.1
2465.46,1440.42
2466.91,1425.64
2468.36,1408.36
2469.82,1409.52
2471.27,1388.44
2472.72,1394.23
2474.17,1398.26
2475.62,1388.05
2477.07,1420.73
2478.53,1398.13
2479.98,1391.45
2481.43,1372.23
2482.88,1385.26
2484.33,1397.54
2485.79,1393.92
2487.24,1378.81
2488.69,1370.14
2490.14,1378.14
2491.59,1390.91
2493.04,1392.37
2494.5,1369.92
2495.95,1415.56
2497.4,1393.34
2498.85,1392.89
2500.3,1383.42
2501.76,1413.09
2503.21,1397.08
2504.66,1391.36
2506.11,1420.52
2507.56,1402.66
2509.01,1412.46
2510.47,1415.74
2511.92,1422.22
2513.37,1439
2514.82,1439.36
2516.27,1447.41
2517.72,1449.7
2519.18,1477.34
2520.63,1481.29
2522.08,1495.14
2523.53,1510.32
2524.98,1501.32
2526.44,1513.4
2527.89,1518.91
2529.34,1531.73
2530.79,1570.04
2532.24,1584.64
2533.69,1596.47
2535.15,1624.23
2536.6,1628.57
2538.05,1628.88
2539.5,1649.63
2540.95,1683.53
2542.41,1687.97
2543.86,1697.4
2545.31,1728.96
2546.76,1763.01
2548.21,1785.35
2549.66,1799.69
2551.12,1835.36
2552.57,1865
2554.02,1877.26
2555.47,1917.46
2556.92,1926.18
2558.37,1961.26
2559.83,1981.61
2561.28,2042.68
2562.73,2063.99
2564.18,2105.31
2565.63,2142.7
2567.09,2197.41
2568.54,2234.57
2569.99,2264.06
2571.44,2299.25
2572.89,2329.92
2574.34,2411.87
2575.8,2470
2577.25,2513.89
2578.7,2570.85
2580.15,2620.57
2581.6,2713.19
2583.06,2794.42
2584.51,2818.99
2585.96,2900.59
2587.41,2991.75
2588.86,3059.71
2590.31,3137.64
2591.77,3247.57
2593.22,3352.27
2594.67,3432.38
2596.12,3523.03
2597.57,3645.08
2599.02,3801.25
2600.48,3922.59
2601.93,4022.09
2603.38,4190.14
2604.83,4349.86
2606.28,4479.43
2607.74,4596.05
2609.19,4808.63
2610.64,5033.72
2612.09,5213.6
2613.54,5420.95
2614.99,5588.9
2616.45,5810.15
2617.9,6064.76
2619.35,6294.31
2620.8,6471.3
2622.25,6700.26
2623.71,7006.06
2625.16,7278.31
2626.61,7564.28
2628.06,7853.71
2629.51,8160.7
2630.96,8463.91
2632.42,8743.39
2633.87,9044.15
2635.32,9373.42
2636.77,9609.87
2638.22,9917.92
2639.68,10222.9
2641.13,10473.2
2642.58,10745.4
2644.03,11050.7
2645.48,11249.3
2646.93,11505.1
2648.39,11799.4
2649.84,11847.7
2651.29,12058
2652.74,12211.6
2654.19,12317.9
2655.64,12444.6
2657.1,12490.7
2658.55,12500.7
2660,12484.8
2661.45,12456.2
2662.9,12311.7
2664.36,12295.6
2665.81,12131.3
2667.26,12016.4
2668.71,11874.3
2670.16,11628.3
2671.61,11369
2673.07,11095.8
2674.52,10943.2
2675.97,10590
2677.42,10301.8
2678.87,9993.25
2680.32,9712.97
2681.78,9429.05
2683.23,9150.77
2684.68,8799.02
2686.13,8451.18
2687.58,8113.82
2689.04,7795.49
2690.49,7518.53
2691.94,7241.18
2693.39,6890.89
2694.84,6663.46
2696.29,6386.47
2697.75,6123.57
2699.2,5860.35
2700.65,5642.23
2702.1,5419.6
2703.55,5148.86
2705.01,4937.96
2706.46,4711.02
2707.91,4532.64
2709.36,4420.09
2710.81,4208.55
2712.26,3995.59
2713.72,3877.56
2715.17,3771.22
2716.62,3631.58
2718.07,3480.89
2719.52,3327.47
2720.98,3223.83
2722.43,3112.51
2723.88,3029.01
2725.33,2925.67
2726.78,2821.78
2728.23,2729.26
2729.69,2644.99
2731.14,2574.59
2732.59,2521.8
2734.04,2449.17
2735.49,2378.06
2736.94,2320.73
2738.4,2268.83
2739.85,2204.92
2741.3,2161.86
2742.75,2109.39
2744.2,2082.97
2745.66,2006.24
2747.11,1988.24
2748.56,1938.39
2750.01,1902.08
2751.46,1857.96
2752.91,1813.83
2754.37,1786.17
2755.82,1780.94
2757.27,1735.66
2758.72,1705.85
2760.17,1692.2
2761.63,1656.91
2763.08,1619.74
2764.53,1644.32
2765.98,1575.23
2767.43,1582.98
2768.88,1546.06
2770.34,1511.27
2771.79,1500.56
2773.24,1481.8
2774.69,1493.05
2776.14,1496.88
2777.59,1443.93
2779.05,1461.04
2780.5,1405.9
2781.95,1377.65
2783.4,1401.57
2784.85,1364.09
2786.31,1331.13
2787.76,1334.8
2789.21,1321.98
2790.66,1326.21
2792.11,1324.26
2793.56,1293.51
2795.02,1296.99
2796.47,1261.9
2797.92,1245.36
2799.37,1255.92
2800.82,1228.42
2802.28,1235.19
2803.73,1214.46
2805.18,1219.04
2806.63,1230.85
2808.08,1213.82
2809.53,1192.09
2810.99,1194.93
2812.44,1160.62
2813.89,1182.26
2815.34,1173.78
2816.79,1161.38
2818.24,1154.32
2819.7,1137.75
2821.15,1126.45
2822.6,1138
2824.05,1095.15
2825.5,1098.46
2826.96,1108.47
2828.41,1120.56
2829.86,1102.43
2831.31,1110.27
2832.76,1096.29
2834.21,1077.79
2835.67,1094.14
2837.12,1089.86
2838.57,1071.27
2840.02,1097.76
2841.47,1073.96
2842.93,1079.28
2844.38,1058.8
2845.83,1071.67
2847.28,1067.08
2848.73,1062.89
2850.18,1053.54
2851.64,1078.24
2853.09,1069.09
2854.54,1066.4
2855.99,1054.63
2857.44,1044.83
2858.9,1030.85
2860.35,1065.74
2861.8,1039.1
2863.25,1063.34
2864.7,1069.09
2866.15,1061.95
2867.61,1053.82
2869.06,1051.38
2870.51,1076.41
2871.96,1054.21
2873.41,1032.17
2874.86,1057.03
2876.32,1040.62
2877.77,1076.16
2879.22,1066.51
2880.67,1056.99
2882.12,1034.74
2883.58,1034.9
2885.03,1047.49
2886.48,1065.66
2887.93,1063.89
2889.38,1086.67
2890.83,1066.41
2892.29,1067.32
2893.74,1058.6
2895.19,1072.89
2896.64,1067.93
2898.09,1049.25
2899.54,1068.55
2901,1063.21
2902.45,1067.08
2903.9,1069.72
2905.35,1086.78
2906.8,1077.28
2908.26,1064.31
2909.71,1059.03
2911.16,1049.21
2912.61,1064.46
2914.06,1069.48
2915.51,1059.32
2916.97,1061.41
2918.42,1040.88
2919.87,1048.97
2921.32,1019.36
2922.77,1036.82
2924.23,1018.94
2925.68,1013.27
2927.13,1018.66
2928.58,1024.13
2930.03,1001.41
2931.48,1012.61
2932.94,984.103
2934.39,974.834
2935.84,966.937
2937.29,957.554
2938.74,977.453
2940.2,968.714
2941.65,930.263
2943.1,917.009
2944.55,929.998
2946,917.161
2947.45,911.764
2948.91,913.939
2950.36,897.813
2951.81,892.714
2953.26,880.527
2954.71,857.122
2956.16,872.325
2957.62,856.399
2959.07,840.075
2960.52,843.861
2961.97,837.694
2963.42,835.254
2964.88,820.136
2966.33,829.041
2967.78,824.002
2969.23,810.92
2970.68,812.525
2972.13,810.92
2973.59,812.969
2975.04,807.698
2976.49,789.775
2977.94,793.018
2979.39,773.544
2980.84,782.727
2982.3,778.318
2983.75,781.063
2985.2,765.534
2986.65,765.461
2988.1,770.686
2989.56,756.503
2991.01,756.888
2992.46,764.606
2993.91,747.021
2995.36,755.243
2996.81,771.236
2998.27,752.14
2999.72,747.466
3001.17,732.09
3002.62,727.375
3004.07,728.045
3005.53,745.967
3006.98,735.067
3008.43,740.04
3009.88,743.494
3011.33,734.284
3012.78,736.24
3014.24,731.135
3015.69,737.493
3017.14,729.968
3018.59,726.891
3020.04,712.821
3021.5,730.492
3022.95,728.516
3024.4,721.023
3025.85,718.112
3027.3,719.697
3028.75,737.414
3030.21,717.754
3031.66,718.663
3033.11,724.332
3034.56,711.674
3036.01,709.294
3037.46,722.117
3038.92,722.21
3040.37,709.944
3041.82,720.977
3043.27,704.891
3044.72,720.599
3046.18,708.823
3047.63,714.592
3049.08,711.548
3050.53,730.492
3051.98,724.02
3053.43,720.035
3054.89,721.806
3056.34,735.604
3057.79,726.579
3059.24,714.817
3060.69,718.232
3062.15,727.103
3063.6,713.975
3065.05,715.473
3066.5,735.902
3067.95,733.051
3069.4,742.42
3070.86,743.872
3072.31,746.968
3073.76,729.689
3075.21,736.857
3076.66,755.21
3078.11,749.82
3079.57,747.983
3081.02,763.147
3082.47,757.465
3083.92,761.735
3085.37,764.506
3086.83,787.74
3088.28,772.025
3089.73,773.265
3091.18,788.502
3092.63,803.328
3094.08,811.656
3095.54,800.928
3096.99,813.705
3098.44,852.931
3099.89,829.061
3101.34,853.7
3102.8,854.224
3104.25,859.31
3105.7,875.057
3107.15,876.881
3108.6,896.321
3110.05,912.599
3111.51,886.992
3112.96,915.915
3114.41,935.064
3115.86,947.251
3117.31,960.611
3118.76,973.236
3120.22,1002.5
3121.67,984.143
3123.12,999.93
3124.57,1030.06
3126.02,1026.48
3127.48,1025.39
3128.93,1034.46
3130.38,1046.41
3131.83,1069.06
3133.28,1077.51
3134.73,1072.32
3136.19,1093.04
3137.64,1101.01
3139.09,1094.32
3140.54,1107.97
3141.99,1104.2
3143.45,1101.95
3144.9,1132.26
3146.35,1122.25
3147.8,1110.78
3149.25,1145.13
3150.7,1119.44
3152.16,1129.54
3153.61,1115.21
3155.06,1136.69
3156.51,1130.35
3157.96,1132.97
3159.42,1112.73
3160.87,1139.04
3162.32,1137.21
3163.77,1121.6
3165.22,1142.34
3166.67,1158.43
3168.13,1140.53
3169.58,1141.42
3171.03,1177.89
3172.48,1168.36
3173.93,1171.22
3175.38,1175.81
3176.84,1199.41
3178.29,1213.14
3179.74,1250.01
3181.19,1209.1
3182.64,1227.38
3184.1,1265.93
3185.55,1246.53
3187,1246.07
3188.45,1267.1
3189.9,1315.01
3191.35,1311.71
3192.81,1319.44
3194.26,1295.09
3195.71,1328.79
3197.16,1348.91
3198.61,1341.52
3200.06,1338.59
3201.52,1353.07
3202.97,1359.35
3204.42,1348.86
3205.87,1327.68
3207.32,1322.35
3208.78,1313.4
3210.23,1304.84
3211.68,1267.7
3213.13,1238.03
3214.58,1241.18
3216.03,1217.41
3217.49,1213.09
3218.94,1204.11
3220.39,1156.26
3221.84,1139.58
3223.29,1098.16
3224.75,1072.69
3226.2,1052.32
3227.65,1029.95
3229.1,1016.67
3230.55,983.016
3232,947.914
3233.46,933.041
3234.91,908.137
3236.36,881.701
3237.81,859.814
3239.26,855.139
3240.72,829.877
3242.17,819.639
3243.62,788.144
3245.07,779.962
3246.52,768.412
3247.97,764.089
3249.43,751.895
3250.88,726.765
3252.33,712.728
3253.78,719.637
3255.23,703.094
3256.68,697.969
3258.14,690.257
3259.59,663.503
3261.04,667.084
3262.49,657.194
3263.94,649.285
3265.4,661.846
3266.85,644.873
3268.3,654.221
3269.75,634.119
3271.2,648.699
3272.65,640.812
3274.11,624.644
3275.56,612.975
3277.01,638.217
3278.46,634.431
3279.91,628.09
3281.37,618.325
3282.82,614.023
3284.27,616.935
3285.72,620.354
3287.17,608.577
3288.62,607.394
3290.08,623.606
3291.53,620.618
3292.98,610.439
3294.43,607.614
3295.88,611.306
3297.33,616.702
3298.79,603.391
3300.24,586.458
3301.69,585.649
3303.14,588.097
3304.59,605.096
3306.05,592.263
3307.5,586.518
3308.95,585.447
3310.4,592.584
3311.85,611.438
3313.3,598.779
3314.76,593.759
3316.21,592.378
3317.66,590.326
3319.11,579.321
3320.56,586.697
3322.02,594.881
3323.47,596.412
3324.92,588.255
3326.37,579.232
3327.82,575.181
3329.27,588.845
3330.73,584.272
3332.18,571.654
3333.63,576.123
3335.08,573.155
3336.53,582.965
3337.98,594.255
3339.44,587.844
3340.89,587.652
3342.34,578.959
3343.79,583.368
3345.24,583.121
3346.7,576.717
3348.15,576.477
3349.6,575.488
3351.05,585.61
3352.5,579.373
3353.95,582.211
3355.41,591.733
3356.86,570.399
3358.31,577.895
3359.76,574.201
3361.21,570.472
3362.67,576.769
3364.12,554.508
3365.57,580.338
3367.02,575.214
3368.47,573.172
3369.92,580.101
3371.38,576.479
3372.83,590.827
3374.28,574.856
3375.73,569.161
3377.18,570.727
3378.63,578.98
3380.09,567.652
3381.54,558.019
3382.99,563.47
3384.44,568.883
3385.89,573.94
3387.35,569.389
3388.8,577.279
3390.25,576.868
3391.7,572.211
3393.15,569.997
3394.6,574.534
3396.06,580.468
3397.51,557.893
3398.96,564.303
3400.41,561.614
3401.86,558.177
3403.32,572.789
3404.77,582.143
3406.22,586.08
3407.67,567.612
3409.12,565.984
3410.57,564.893
3412.03,572.238
3413.48,565.402
3414.93,574.79
3416.38,560.674
3417.83,566.457
3419.28,575.347
3420.74,571.479
3422.19,580.978
3423.64,570.714
3425.09,568.073
3426.54,566.782
3428,557.255
3429.45,558.64
3430.9,558.782
3432.35,558.706
3433.8,555.491
3435.25,544.242
3436.71,556.635
3438.16,566.044
3439.61,562.665
3441.06,568.302
3442.51,559.935
3443.97,565.225
3445.42,577.617
3446.87,558.457
3448.32,557.39
3449.77,558.631
3451.22,558.412
3452.68,565.357
3454.13,556.631
3455.58,552.34
3457.03,555.364
3458.48,557.125
3459.94,543.152
3461.39,549.486
3462.84,545.697
3464.29,556.343
3465.74,563.058
3467.19,570.75
3468.65,555.023
3470.1,561.697
3471.55,554.898
3473,551.584
3474.45,561.482
3475.9,552.295
3477.36,549.772
3478.81,538.147
3480.26,544.404
3481.71,562.27
3483.16,560.435
3484.62,570.635
3486.07,560.038
3487.52,565.7
3488.97,568.617
3490.42,578.52
3491.87,545.835
3493.33,555.53
3494.78,564.607
3496.23,552.797
3497.68,550.652
3499.13,561.522
3500.58,565.605
3502.04,556.232
3503.49,568.127
3504.94,559.782
3506.39,565.782
3507.84,558.228
3509.3,541.672
3510.75,563.061
3512.2,558.139
3513.65,558.198
3515.1,562.049
3516.55,579.02
3518.01,572.61
3519.46,566.725
3520.91,555.427
3522.36,559.666
3523.81,570.381
3525.27,541.613
3526.72,549.134
3528.17,553.488
3529.62,560.008
3531.07,567.883
3532.52,560.635
3533.98,573.148
3535.43,558.849
3536.88,567.293
3538.33,560.652
3539.78,559.656
3541.24,562.861
3542.69,546.076
3544.14,563.181
3545.59,570.923
3547.04,548.594
3548.49,554.534
3549.95,555.624
3551.4,556.352
3552.85,541.979
3554.3,555.722
3555.75,551.515
3557.2,558.625
3558.66,543.255
3560.11,550.104
3561.56,557.306
3563.01,546.909
3564.46,554.996
3565.92,562.019
3567.37,555.145
3568.82,558.875
3570.27,554.17
3571.72,559.995
3573.17,550.215
3574.63,558.103
3576.08,563.394
3577.53,542.512
3578.98,548.863
3580.43,552.968
3581.89,559.071
3583.34,566.168
3584.79,557.087
3586.24,552.578
3587.69,554.307
3589.14,554.365
3590.6,556.75
3592.05,548.12
3593.5,548.233
3594.95,556.798
3596.4,545.579
3597.85,552.646
3599.31,549.713
3600.76,550.062
3602.21,549.468
3603.66,554.762
3605.11,553.962
3606.57,551.894
3608.02,558.788
3609.47,551.382
3610.92,554.638
3612.37,557.458
3613.82,551.319
3615.28,555.644
3616.73,549.109
3618.18,543.172
3619.63,563.623
3621.08,540.387
3622.54,551.306
3623.99,541.209
3625.44,556.476
3626.89,563.297
3628.34,551.859
3629.79,555.324
3631.25,553.091
3632.7,558.564
3634.15,546.529
3635.6,549.184
3637.05,567.465
3638.5,559.543
3639.96,568.283
3641.41,545.165
3642.86,546.311
3644.31,555.329
3645.76,545.898
3647.22,548.915
3648.67,553.331
3650.12,539.829
3651.57,556.171
3653.02,550.386
3654.47,554.991
3655.93,550.937
3657.38,537.079
3658.83,565.603
3660.28,557.242
3661.73,553.693
3663.19,550.115
3664.64,553.948
3666.09,560.986
3667.54,565.642
3668.99,550.702
3670.44,544.59
3671.9,562.824
3673.35,572.34
3674.8,565.186
3676.25,555.235
3677.7,564.212
3679.16,559.363
3680.61,565.804
3682.06,552.703
3683.51,555.736
3684.96,557.271
3686.41,567.551
3687.87,552.294
3689.32,549.8
3690.77,546.405
3692.22,572.012
3693.67,550.927
3695.12,552.783
3696.58,569.685
3698.03,547.486
3699.48,551.896
3700.93,563.082
3702.38,567.276
3703.84,555.476
3705.29,566.361
3706.74,565.03
3708.19,560.577
3709.64,550.03
3711.09,549.604
3712.55,556.239
3714,555.442
3715.45,568.344
3716.9,566.363
3718.35,558.018
3719.8,567.783
3721.26,553.372
3722.71,564.765
3724.16,564.909
3725.61,570.17
3727.06,572.127
3728.52,575.972
3729.97,574.209
3731.42,581.606
3732.87,562.187
3734.32,568.071
3735.77,561.998
3737.23,570.187
3738.68,569.659
3740.13,563.848
3741.58,558.647
3743.03,586.023
3744.49,570.292
3745.94,565.967
3747.39,568.758
3748.84,565.329
3750.29,566.98
3751.74,565.611
3753.2,563.296
3754.65,562.903
3756.1,574.196
3757.55,564.078
3759,570.924
3760.46,581.125
3761.91,570.369
3763.36,577.545
3764.81,577.811
3766.26,561.023
3767.71,569.25
3769.17,575.377
3770.62,576.281
3772.07,575.897
3773.52,574.264
3774.97,562.29
3776.42,568.829
3777.88,565.092
3779.33,580.22
3780.78,575.322
3782.23,573.955
3783.68,580.393
3785.14,561.33
3786.59,566.782
3788.04,575.723
3789.49,586.569
3790.94,591.324
3792.39,573.232
3793.85,571.747
3795.3,575.305
3796.75,577.624
3798.2,582.286
3799.65,562.932
3801.1,565.827
3802.56,578.168
3804.01,578.327
3805.46,590.943
3806.91,578.885
3808.36,585.423
3809.82,574.755
3811.27,568.251
3812.72,575.149
3814.17,585.575
3815.62,586.19
3817.07,588.751
3818.53,582.683
3819.98,581.911
3821.43,584.169
3822.88,581.479
3824.33,595.891
3825.79,592.249
3827.24,580.808
3828.69,581.502
3830.14,567.423
3831.59,585.787
3833.04,582.363
3834.5,581.463
3835.95,572.092
3837.4,571.369
3838.85,594.958
3840.3,575.037
3841.76,585.367
3843.21,584.302
3844.66,583.245
3846.11,583.298
3847.56,576.868
3849.01,598.102
3850.47,596.82
3851.92,597.802
3853.37,590.099
3854.82,606.544
3856.27,599.768
3857.72,602.672
3859.18,589.405
3860.63,596.934
3862.08,590.04
3863.53,600.493
3864.98,618.863
3866.44,603.436
3867.89,601.908
3869.34,594.02
3870.79,587.428
3872.24,605.54
3873.69,609.921
3875.15,599.815
3876.6,603.383
3878.05,603.332
3879.5,606.047
3880.95,620.621
3882.41,609.846
3883.86,600.106
3885.31,599.833
3886.76,613.703
3888.21,606.26
3889.66,608.384
3891.12,611.043
3892.57,592.173
3894.02,616.088
3895.47,611.438
3896.92,626.863
3898.37,606.504
3899.83,605.342
3901.28,617.146
3902.73,614.842
3904.18,618.869
3905.63,632.516
3907.09,602.911
3908.54,625.677
3909.99,628.016
3911.44,630.199
3912.89,644.844
3914.34,631.172
3915.8,628.091
3917.25,645.637
3918.7,634.052
3920.15,617.598
3921.6,638.184
3923.06,616.45
3924.51,614.782
3925.96,628.956
3927.41,644.562
3928.86,637.712
3930.31,646.257
3931.77,650.62
3933.22,651.061
3934.67,651.898
3936.12,652.001
3937.57,645.079
3939.02,626.927
3940.48,651.455
3941.93,671.612
3943.38,671.527
3944.83,651.644
3946.28,665.088
3947.74,673.582
3949.19,681.345
3950.64,671.06
3952.09,674.234
3953.54,654.351
3954.99,672.833
3956.45,669.392
3957.9,665.087
3959.35,679.428
3960.8,669.615
3962.25,679.427
3963.71,672.501
3965.16,668.09
3966.61,675.945
3968.06,679.855
3969.51,679.885
3970.96,693.891
3972.42,683.53
3973.87,684.562
3975.32,693.984
3976.77,694.441
3978.22,686.279
3979.68,700.296
3981.13,693.904
3982.58,699.507
3984.03,708.167
3985.48,710.892
3986.93,694.647
3988.39,709.99
3989.84,711.893
3991.29,699.368
3992.74,710.58
3994.19,701.927
3995.64,705.302
3997.1,716.627
3998.55,712.622
4000,714.492
