0,37002.4
1.77681,35187.1
3.2286,22573.4
4.68039,6547.46
6.13218,1138.09
7.58397,227.197
9.03575,151.56
10.4875,142.814
11.9393,142.163
13.3911,141.676
14.8429,140.127
16.2947,138.3
17.7465,135.472
19.1983,130.303
20.6501,125.862
22.1018,120.845
23.5536,117.167
25.0054,114.557
26.4572,109.029
27.909,102.472
29.3608,97.0661
30.8126,88.9815
32.2644,87.5486
33.7161,86.5861
35.1679,85.7102
36.6197,85.7106
38.0715,83.3517
39.5233,83.2982
40.9751,85.6115
42.4269,88.2775
43.8787,88.5661
45.3304,94.4299
46.7822,106.622
48.234,125.519
49.6858,164.005
51.1376,240.243
52.5894,388.689
54.0412,592.869
55.493,844.827
56.9447,1116.91
58.3965,1426.56
59.8483,1676.44
61.3001,1900.48
62.7519,2072.38
64.2037,2194.1
65.6555,2237.42
67.1073,2305.82
68.559,2356.01
70.0108,2381.09
71.4626,2398.9
72.9144,2409.65
74.3662,2428.49
75.818,2471.25
77.2698,2499.7
78.7216,2552.93
80.1733,2637.32
81.6251,2685.36
83.0769,2743.54
84.5287,2780.54
85.9805,2764.93
87.4323,2698.93
88.8841,2607.46
90.3359,2497.54
91.7877,2371.01
93.2394,2241.91
94.6912,2132.64
96.143,2019.26
97.5948,1923.42
99.0466,1869.85
100.498,1846.5
101.95,1796.76
103.402,1747.88
104.854,1726.22
106.306,1714.61
107.757,1688.41
109.209,1655.05
110.661,1616.43
112.113,1596.52
113.564,1595.21
115.016,1568.9
116.468,1532.18
117.92,1511.43
119.372,1499.19
120.823,1458.35
122.275,1470.69
123.727,1441.82
125.179,1398.81
126.631,1378
128.082,1376.47
129.534,1341.55
130.986,1319.03
132.438,1305.01
133.889,1283.56
135.341,1260.31
136.793,1232.03
138.245,1214.89
139.697,1214.92
141.148,1217.99
142.6,1205.24
144.052,1205.9
145.504,1202.19
146.956,1192.32
148.407,1169.6
149.859,1145.62
151.311,1126.38
152.763,1129.7
154.215,1130.3
155.666,1120.21
157.118,1072.94
158.57,1051.82
160.022,1049.55
161.473,1048.39
162.925,1030.62
164.377,1037.11
165.829,1040.6
167.281,1030.22
168.732,1012.79
170.184,1024.61
171.636,1003.42
173.088,978.462
174.54,970.962
175.991,973.979
177.443,928.771
178.895,935.923
180.347,935.915
181.798,926.591
183.25,903.66
184.702,918.387
186.154,913.099
187.606,905.367
189.057,891.063
190.509,877.107
191.961,864.353
193.413,872.433
194.865,888.908
196.316,889.944
197.768,875.723
199.22,871.886
200.672,872.93
202.124,879.676
203.575,870.767
205.027,845.929
206.479,843.377
207.931,850.473
209.382,847.812
210.834,849.468
212.286,867.32
213.738,858.386
215.19,848.714
216.641,858.518
218.093,872.98
219.545,880.986
220.997,881.052
222.449,842.586
223.9,852.446
225.352,863.168
226.804,859.861
228.256,835.568
229.707,839.248
231.159,851.088
232.611,851.522
234.063,857.242
235.515,855.477
236.966,862.09
238.418,859.886
239.87,855.933
241.322,852.601
242.774,844.963
244.225,842.683
245.677,843.269
247.129,846.986
248.581,837.865
250.033,819.685
251.484,829.893
252.936,810.132
254.388,799.019
255.84,807.366
257.291,820.543
258.743,806.456
260.195,803.253
261.647,801.228
263.099,804.383
264.55,804.587
266.002,790.666
267.454,796.779
268.906,803.554
270.358,805.806
271.809,795.233
273.261,777.587
274.713,784.673
276.165,784.763
277.616,779.706
279.068,772.174
280.52,770.551
281.972,764.546
283.424,745.057
284.875,734.128
286.327,739.095
287.779,743.11
289.231,743.039
290.683,747.134
292.134,742.913
293.586,726.039
295.038,706.992
296.49,722.155
297.941,721.199
299.393,716.362
300.845,713.371
302.297,709.573
303.749,707.262
305.2,695.728
306.652,695.853
308.104,692.342
309.556,677.459
311.008,687.138
312.459,700.727
313.911,684.711
315.363,678.707
316.815,685.755
318.267,660.015
319.718,678.992
321.17,675.736
322.622,677.677
324.074,680.731
325.525,671.729
326.977,680.428
328.429,681.117
329.881,657.327
331.333,640.799
332.784,657.794
334.236,651.497
335.688,636.859
337.14,654.332
338.592,660.897
340.043,648.231
341.495,643.514
342.947,653.85
344.399,650.37
345.85,642.309
347.302,642.047
348.754,648.969
350.206,643.245
351.658,636.679
353.109,636.869
354.561,640.972
356.013,639.998
357.465,619.944
358.917,622.968
360.368,625.322
361.82,624.944
363.272,627.484
364.724,634.515
366.176,623.622
367.627,615.302
369.079,616.688
370.531,626.488
371.983,629.83
373.434,614.148
374.886,616.932
376.338,620.429
377.79,620.886
379.242,616.897
380.693,621.435
382.145,600.357
383.597,610.164
385.049,622.647
386.501,631.267
387.952,633.646
389.404,625.222
390.856,615.959
392.308,616.667
393.759,620.312
395.211,621.343
396.663,609.387
398.115,626.817
399.567,620.076
401.018,610.731
402.47,606.765
403.922,616.733
405.374,616.395
406.826,618.657
408.277,617.621
409.729,615.745
411.181,617.32
412.633,627.744
414.085,619.318
415.536,609.135
416.988,612.169
418.44,619.778
419.892,617.187
421.343,636.185
422.795,615.038
424.247,606.921
425.699,608.431
427.151,610.661
428.602,606.147
430.054,597.453
431.506,616.784
432.958,619.941
434.41,614.011
435.861,617.816
437.313,599.38
438.765,598.75
440.217,621.515
441.668,631.73
443.12,620.089
444.572,592.853
446.024,613.073
447.476,603.381
448.927,600.476
450.379,601.258
451.831,602.432
453.283,607.346
454.735,590.277
456.186,596.059
457.638,604.259
459.09,610.451
460.542,612.342
461.993,610.7
463.445,610.291
464.897,600.25
466.349,601.447
467.801,605.772
469.252,591.076
470.704,593.026
472.156,601.747
473.608,610.577
475.06,608.056
476.511,592.193
477.963,588.116
479.415,600.5
480.867,607.495
482.319,603.58
483.77,591.382
485.222,582.53
486.674,599.645
488.126,609.296
489.577,599.14
491.029,593.702
492.481,592.494
493.933,577.94
495.385,579.995
496.836,580.04
498.288,589.046
499.74,588.818
501.192,580.158
502.644,576.011
504.095,581.408
505.547,586.894
506.999,591.385
508.451,590.147
509.902,581.493
511.354,592.011
512.806,579.407
514.258,581.726
515.71,585.675
517.161,588.152
518.613,580.825
520.065,563.336
521.517,585.301
522.969,585.11
524.42,574.728
525.872,565.6
527.324,573.596
528.776,574.747
530.228,583.023
531.679,593.526
533.131,584.995
534.583,574.227
536.035,578.457
537.486,597.194
538.938,591.438
540.39,577.928
541.842,575.946
543.294,580.997
544.745,586.182
546.197,585.525
547.649,581.623
549.101,575.164
550.553,585.751
552.004,593.464
553.456,580.425
554.908,582.354
556.36,572.443
557.811,573.523
559.263,576.378
560.715,584.125
562.167,586.652
563.619,604.618
565.07,588.941
566.522,586.369
567.974,589.372
569.426,581.725
570.878,571.236
572.329,581.585
573.781,569.745
575.233,579.513
576.685,587.009
578.137,586.592
579.588,573.963
581.04,567.081
582.492,577.544
583.944,572.3
585.395,573.59
586.847,577.947
588.299,576.536
589.751,573.428
591.203,572.417
592.654,567.409
594.106,574.391
595.558,584.005
597.01,579.473
598.462,569.663
599.913,579.039
601.365,564.376
602.817,562.842
604.269,576.204
605.72,574.895
607.172,587.197
608.624,590.645
610.076,592.026
611.528,582.16
612.979,571.867
614.431,574.04
615.883,565.292
617.335,571.095
618.787,578.063
620.238,589.802
621.69,586.484
623.142,567.601
624.594,582.919
626.046,580.741
627.497,587.476
628.949,583.083
630.401,586.247
631.853,590.943
633.304,573.075
634.756,567.729
636.208,581.481
637.66,584.581
639.112,586.527
640.563,590.752
642.015,587.842
643.467,581.223
644.919,584.791
646.371,594.792
647.822,598.708
649.274,597.128
650.726,596.364
652.178,604.582
653.629,583.397
655.081,585.253
656.533,595.71
657.985,601.392
659.437,600.1
660.888,607.552
662.34,597.086
663.792,589.532
665.244,595.345
666.696,595.631
668.147,594.952
669.599,613.924
671.051,617.325
672.503,599.051
673.954,598.067
675.406,597.245
676.858,591.834
678.31,603.397
679.762,618.474
681.213,606.943
682.665,595.189
684.117,593.662
685.569,603.85
687.021,621.96
688.472,621.991
689.924,611.294
691.376,606.29
692.828,611.124
694.28,617.694
695.731,610.365
697.183,609.384
698.635,596.807
700.087,597.8
701.538,600.667
702.99,602.095
704.442,599.089
705.894,604.528
707.346,619.984
708.797,624.823
710.249,611.049
711.701,614.133
713.153,614.416
714.605,603.508
716.056,606.26
717.508,607.405
718.96,620.962
720.412,612.291
721.863,606.144
723.315,609.211
724.767,613.397
726.219,613.701
727.671,614.647
729.122,599.047
730.574,597.561
732.026,602.814
733.478,616.412
734.93,625.231
736.381,619.19
737.833,603.018
739.285,608.975
740.737,610.586
742.189,612.789
743.64,618.554
745.092,615.097
746.544,613.689
747.996,621.773
749.447,612.469
750.899,620.764
752.351,621.881
753.803,606.802
755.255,615.246
756.706,607.405
758.158,606.599
759.61,623.519
761.062,629.136
762.514,630.876
763.965,625.147
765.417,614.016
766.869,614.995
768.321,623.056
769.772,620.601
771.224,624.268
772.676,627.842
774.128,613.296
775.58,617.195
777.031,608.151
778.483,618.924
779.935,609.794
781.387,606.745
782.839,615.406
784.29,620.725
785.742,626.345
787.194,638.939
788.646,629.803
790.098,633.715
791.549,635.651
793.001,631.181
794.453,638.404
795.905,630.756
797.356,616.242
798.808,617.826
800.26,612.552
801.712,619.491
803.164,635.506
804.615,636.693
806.067,642.977
807.519,627.063
808.971,632.083
810.423,631.437
811.874,631.863
813.326,626.59
814.778,636.592
816.23,638.237
817.681,638.422
819.133,629.267
820.585,640.375
822.037,641.751
823.489,634.582
824.94,630.873
826.392,643.464
827.844,650.013
829.296,654.122
830.748,656.27
832.199,658.105
833.651,648.613
835.103,650.638
836.555,652.468
838.007,651.884
839.458,647.684
840.91,652.946
842.362,657.526
843.814,661.397
845.265,647.831
846.717,645.305
848.169,665.585
849.621,682.133
851.073,684.753
852.524,678.091
853.976,676.152
855.428,671.106
856.88,674.092
858.332,671.252
859.783,677.957
861.235,679.625
862.687,673.169
864.139,667.428
865.59,664.167
867.042,667.164
868.494,659.975
869.946,659.322
871.398,671.973
872.849,665.679
874.301,647.273
875.753,653.679
877.205,657.632
878.657,667.135
880.108,662.577
881.56,664.105
883.012,664.875
884.464,668.288
885.915,669.864
887.367,671.948
888.819,667.744
890.271,685.065
891.723,677.428
893.174,691.033
894.626,687.075
896.078,676.656
897.53,682.233
898.982,683.414
900.433,679.328
901.885,691.563
903.337,671.711
904.789,678.263
906.241,693.883
907.692,696.016
909.144,683.389
910.596,680.327
912.048,693.968
913.499,694.304
914.951,696.298
916.403,696.361
917.855,695.22
919.307,701.91
920.758,704.27
922.21,701.994
923.662,708.151
925.114,710.662
926.566,710.067
928.017,702.491
929.469,697.689
930.921,706.866
932.373,707.017
933.824,706.191
935.276,705.563
936.728,727.259
938.18,720.496
939.632,709.99
941.083,717.255
942.535,691.327
943.987,713.593
945.439,718.037
946.891,706.38
948.342,705.837
949.794,705.691
951.246,707.467
952.698,711.586
954.15,706.679
955.601,711.987
957.053,715.044
958.505,709.389
959.957,719.334
961.408,714.916
962.86,698.888
964.312,701.927
965.764,727.387
967.216,707.889
968.667,711.174
970.119,717.555
971.571,716.668
973.023,707.427
974.475,706.644
975.926,722.074
977.378,721.523
978.83,711.054
980.282,715.555
981.733,712.832
983.185,721.762
984.637,730.411
986.089,721.956
987.541,723.428
988.992,718.31
990.444,722.089
991.896,728.873
993.348,716.79
994.8,722.115
996.251,742.355
997.703,741.966
999.155,729.783
1000.61,746.016
1002.06,744.788
1003.51,747.423
1004.96,742.204
1006.41,745.939
1007.87,744.723
1009.32,760.53
1010.77,763.859
1012.22,749.612
1013.67,772.738
1015.12,753.127
1016.58,763.967
1018.03,769.452
1019.48,772.575
1020.93,774.6
1022.38,766.612
1023.84,775.017
1025.29,794.628
1026.74,805.684
1028.19,802.383
1029.64,804.547
1031.09,820.064
1032.55,825.162
1034,813.819
1035.45,822.394
1036.9,833.447
1038.35,829.289
1039.8,829.795
1041.26,835.951
1042.71,842.56
1044.16,862.538
1045.61,866.284
1047.06,849.698
1048.52,855.8
1049.97,879.925
1051.42,866.483
1052.87,878.126
1054.32,892.472
1055.77,876.386
1057.23,877.414
1058.68,909.461
1060.13,899.889
1061.58,925.564
1063.03,920.542
1064.49,925.68
1065.94,942.271
1067.39,953.409
1068.84,946.987
1070.29,955.506
1071.74,967.962
1073.2,964.142
1074.65,986.029
1076.1,981.206
1077.55,1009.23
1079,1005.6
1080.46,999.894
1081.91,1008.81
1083.36,1018.85
1084.81,999.794
1086.26,1026.31
1087.71,1022.18
1089.17,1003.23
1090.62,1008.97
1092.07,1014.83
1093.52,992.717
1094.97,980.236
1096.42,1020.89
1097.88,1024.45
1099.33,991.498
1100.78,995.551
1102.23,996.314
1103.68,992.551
1105.14,996.28
1106.59,989.369
1108.04,975.918
1109.49,968.658
1110.94,989.957
1112.39,983.037
1113.85,977.725
1115.3,960.437
1116.75,954.023
1118.2,951.304
1119.65,948.893
1121.11,956.575
1122.56,944.227
1124.01,949.887
1125.46,919.307
1126.91,935.409
1128.36,918.967
1129.82,915.843
1131.27,924.337
1132.72,931.829
1134.17,931.232
1135.62,921.163
1137.07,918.519
1138.53,913.804
1139.98,915.909
1141.43,914.044
1142.88,902.052
1144.33,911.823
1145.79,921.942
1147.24,904.282
1148.69,888.991
1150.14,912.196
1151.59,915.138
1153.04,920.674
1154.5,912.975
1155.95,911.914
1157.4,912.362
1158.85,907.008
1160.3,911.417
1161.76,921.122
1163.21,908.26
1164.66,913.522
1166.11,916
1167.56,905.732
1169.01,903.271
1170.47,913.373
1171.92,923.765
1173.37,917.235
1174.82,919.771
1176.27,913.29
1177.72,923.417
1179.18,930.992
1180.63,943.622
1182.08,937.779
1183.53,925.008
1184.98,924.171
1186.44,924.801
1187.89,927.627
1189.34,937.912
1190.79,927.097
1192.24,944.923
1193.69,926.865
1195.15,937.324
1196.6,942.901
1198.05,949.688
1199.5,950.874
1200.95,955.266
1202.41,964.399
1203.86,953.923
1205.31,964.904
1206.76,974.551
1208.21,971.103
1209.66,961.191
1211.12,956.219
1212.57,962.509
1214.02,968.128
1215.47,967.995
1216.92,960.694
1218.37,983.369
1219.83,985.117
1221.28,979.913
1222.73,992.211
1224.18,984.637
1225.63,968.725
1227.09,964.946
1228.54,988.498
1229.99,1002.39
1231.44,978.753
1232.89,973.482
1234.34,1006.13
1235.8,1001.01
1237.25,997.598
1238.7,1009.94
1240.15,1016.42
1241.6,1011.02
1243.06,1012.55
1244.51,1029.32
1245.96,1027.72
1247.41,1045.2
1248.86,1058.98
1250.31,1050.48
1251.77,1036.96
1253.22,1049.54
1254.67,1060.14
1256.12,1071.27
1257.57,1094.1
1259.02,1102.61
1260.48,1104.42
1261.93,1120.02
1263.38,1101.12
1264.83,1138.29
1266.28,1136.01
1267.74,1132.08
1269.19,1150.18
1270.64,1171.85
1272.09,1184.54
1273.54,1199.7
1274.99,1208.7
1276.45,1222.14
1277.9,1235.85
1279.35,1273.09
1280.8,1246.67
1282.25,1279.42
1283.71,1308.43
1285.16,1331.17
1286.61,1349.47
1288.06,1368.1
1289.51,1406.41
1290.96,1453.57
1292.42,1448.05
1293.87,1497.96
1295.32,1535.53
1296.77,1563.56
1298.22,1619.79
1299.67,1678.5
1301.13,1730.23
1302.58,1769.06
1304.03,1806.39
1305.48,1867.32
1306.93,1945.85
1308.39,2002.74
1309.84,2107.43
1311.29,2184.93
1312.74,2262.19
1314.19,2372.01
1315.64,2480.92
1317.1,2573.38
1318.55,2680.99
1320,2800.07
1321.45,2896.39
1322.9,3010.88
1324.36,3134.5
1325.81,3260.17
1327.26,3395.6
1328.71,3453.46
1330.16,3515.23
1331.61,3613.76
1333.07,3685.21
1334.52,3726.05
1335.97,3789.78
1337.42,3769.55
1338.87,3747.85
1340.33,3689.9
1341.78,3658.4
1343.23,3556.83
1344.68,3444.35
1346.13,3360.14
1347.58,3264.1
1349.04,3147.83
1350.49,3019.47
1351.94,2874.95
1353.39,2775.48
1354.84,2677.99
1356.29,2515.41
1357.75,2432.05
1359.2,2333.25
1360.65,2251.55
1362.1,2152.75
1363.55,2059.46
1365.01,2008.22
1366.46,1938.06
1367.91,1845.88
1369.36,1806.97
1370.81,1746.09
1372.26,1689.38
1373.72,1682.12
1375.17,1640.99
1376.62,1614.71
1378.07,1570.49
1379.52,1531.23
1380.98,1505.16
1382.43,1477.42
1383.88,1468.19
1385.33,1446.12
1386.78,1418.45
1388.23,1418.41
1389.69,1391.3
1391.14,1370.82
1392.59,1372.97
1394.04,1371.26
1395.49,1343.36
1396.94,1324.83
1398.4,1317.29
1399.85,1314.37
1401.3,1312.45
1402.75,1306.6
1404.2,1310.81
1405.66,1312.35
1407.11,1292.44
1408.56,1301.46
1410.01,1288.65
1411.46,1302.05
1412.91,1311.54
1414.37,1288.39
1415.82,1293.05
1417.27,1299.37
1418.72,1307.18
1420.17,1306.73
1421.63,1307.18
1423.08,1312.86
1424.53,1311.88
1425.98,1304.57
1427.43,1339.06
1428.88,1307.24
1430.34,1328.92
1431.79,1327.47
1433.24,1335.87
1434.69,1331.95
1436.14,1345.45
1437.59,1367.32
1439.05,1363.97
1440.5,1376.93
1441.95,1367.37
1443.4,1368.34
1444.85,1367.42
1446.31,1381.18
1447.76,1380.15
1449.21,1384.82
1450.66,1404.87
1452.11,1428.19
1453.56,1441.78
1455.02,1449.92
1456.47,1444.34
1457.92,1443.01
1459.37,1474.46
1460.82,1498.09
1462.28,1507.34
1463.73,1500.52
1465.18,1544.01
1466.63,1522.11
1468.08,1555.51
1469.53,1572.36
1470.99,1574.02
1472.44,1586.08
1473.89,1604.84
1475.34,1636.16
1476.79,1683.57
1478.24,1693.1
1479.7,1698.3
1481.15,1739.81
1482.6,1762.42
1484.05,1790.77
1485.5,1833.24
1486.96,1851.97
1488.41,1880.86
1489.86,1910.21
1491.31,1944.9
1492.76,1967.76
1494.21,1981.47
1495.67,2051.3
1497.12,2138.57
1498.57,2161.7
1500.02,2185.1
1501.47,2243.19
1502.93,2315.93
1504.38,2316.11
1505.83,2423.48
1507.28,2462.68
1508.73,2559.7
1510.18,2648.85
1511.64,2733.79
1513.09,2834.21
1514.54,2912.73
1515.99,3038.79
1517.44,3196.69
1518.89,3328.94
1520.35,3437.08
1521.8,3566.72
1523.25,3754.75
1524.7,3952.49
1526.15,4254.85
1527.61,4462.5
1529.06,4786.59
1530.51,5092.35
1531.96,5460.56
1533.41,5884.44
1534.86,6320.87
1536.32,6823.21
1537.77,7426.36
1539.22,8079.04
1540.67,8786.05
1542.12,9510.29
1543.58,10460.9
1545.03,11424.3
1546.48,12508.3
1547.93,13554.5
1549.38,14665.9
1550.83,15814
1552.29,17072.8
1553.74,18286.9
1555.19,19473.9
1556.64,20724.5
1558.09,21882.2
1559.54,22932.2
1561,23867.8
1562.45,24624.2
1563.9,25095.5
1565.35,25423
1566.8,25485.5
1568.26,25312.8
1569.71,24659.6
1571.16,23859.1
1572.61,22895.2
1574.06,21735.7
1575.51,20496.9
1576.97,19178.7
1578.42,17855.9
1579.87,16592.8
1581.32,15335.2
1582.77,14149.2
1584.23,13050.1
1585.68,11983.3
1587.13,11095.1
1588.58,10165.2
1590.03,9336.42
1591.48,8608.36
1592.94,7904.27
1594.39,7399.39
1595.84,6950.56
1597.29,6475.18
1598.74,6152.74
1600.2,5832.37
1601.65,5513.58
1603.1,5216.85
1604.55,4966.77
1606,4719.56
1607.45,4483.1
1608.91,4286.42
1610.36,4101.83
1611.81,3914.38
1613.26,3683.13
1614.71,3509.02
1616.16,3347.84
1617.62,3183.36
1619.07,3049.77
1620.52,2884.68
1621.97,2798.79
1623.42,2690.5
1624.88,2571.22
1626.33,2494.74
1627.78,2399.02
1629.23,2317.68
1630.68,2242.2
1632.13,2148.95
1633.59,2106.26
1635.04,2085.43
1636.49,2045.25
1637.94,1973.94
1639.39,1904
1640.85,1883.17
1642.3,1842.37
1643.75,1806.95
1645.2,1768.21
1646.65,1760.45
1648.1,1740.9
1649.56,1716.28
1651.01,1665.7
1652.46,1642.26
1653.91,1616.69
1655.36,1593.95
1656.81,1590.63
1658.27,1547.35
1659.72,1509.31
1661.17,1502.48
1662.62,1486.43
1664.07,1459.69
1665.53,1454.26
1666.98,1454.12
1668.43,1418.03
1669.88,1379.6
1671.33,1372.25
1672.78,1368.11
1674.24,1331.7
1675.69,1306.84
1677.14,1318.13
1678.59,1319.24
1680.04,1298.2
1681.5,1278.57
1682.95,1277.08
1684.4,1280.85
1685.85,1271
1687.3,1258.69
1688.75,1243.78
1690.21,1228.73
1691.66,1219.62
1693.11,1189.22
1694.56,1203.93
1696.01,1208.21
1697.46,1189.48
1698.92,1182.32
1700.37,1168.58
1701.82,1162.65
1703.27,1160.66
1704.72,1169.64
1706.18,1170.01
1707.63,1162.56
1709.08,1149.15
1710.53,1155.04
1711.98,1149.95
1713.43,1125.36
1714.89,1132.92
1716.34,1132.2
1717.79,1133.38
1719.24,1120.04
1720.69,1131.42
1722.15,1155.73
1723.6,1131.61
1725.05,1144.98
1726.5,1130.61
1727.95,1113.03
1729.4,1124.28
1730.86,1124.08
1732.31,1138.58
1733.76,1148.43
1735.21,1111.73
1736.66,1101.61
1738.11,1114.06
1739.57,1107.6
1741.02,1091.83
1742.47,1097.3
1743.92,1101.92
1745.37,1083.7
1746.83,1073.73
1748.28,1075.81
1749.73,1084.59
1751.18,1089.97
1752.63,1077.73
1754.08,1058.1
1755.54,1079.14
1756.99,1081.75
1758.44,1065.87
1759.89,1037.69
1761.34,1054.39
1762.8,1045.09
1764.25,1038.39
1765.7,1031.82
1767.15,1041.11
1768.6,1045.2
1770.05,1042.48
1771.51,1031.74
1772.96,1005.65
1774.41,1003.61
1775.86,1010.91
1777.31,1013.27
1778.76,999.007
1780.22,985.498
1781.67,1001.8
1783.12,1011.6
1784.57,1003.61
1786.02,978.164
1787.48,980.733
1788.93,999.256
1790.38,981.123
1791.83,969.835
1793.28,992.957
1794.73,1017.98
1796.19,973.581
1797.64,956.451
1799.09,972.711
1800.54,966.537
1801.99,965.774
1803.45,975.239
1804.9,976.258
1806.35,974.766
1807.8,978.578
1809.25,971.41
1810.7,960.172
1812.16,954.619
1813.61,954.479
1815.06,955.423
1816.51,949.705
1817.96,959.584
1819.41,965.385
1820.87,956.898
1822.32,947.02
1823.77,959.012
1825.22,964.067
1826.67,980.418
1828.13,950.542
1829.58,973.018
1831.03,964.573
1832.48,957.288
1833.93,953.244
1835.38,939.835
1836.84,984.471
1838.29,975.214
1839.74,993.968
1841.19,999.148
1842.64,993.537
1844.1,1000.72
1845.55,996.007
1847,999.803
1848.45,996.413
1849.9,989.253
1851.35,1003.16
1852.81,1024.03
1854.26,1025.47
1855.71,1020.31
1857.16,1034.07
1858.61,1037.4
1860.07,1019.01
1861.52,1010.63
1862.97,1009.06
1864.42,1019.8
1865.87,1024.42
1867.32,1050.38
1868.78,1033.96
1870.23,1009.83
1871.68,1000.3
1873.13,1015
1874.58,991.374
1876.03,986.559
1877.49,1016.25
1878.94,997.946
1880.39,975.512
1881.84,979.962
1883.29,989.775
1884.75,987.181
1886.2,985.606
1887.65,964.622
1889.1,953.028
1890.55,961.962
1892,964.921
1893.46,948.454
1894.91,951.197
1896.36,954.785
1897.81,940.871
1899.26,936.114
1900.72,930.561
1902.17,929.243
1903.62,925.489
1905.07,931.423
1906.52,915.329
1907.97,913.265
1909.43,926.26
1910.88,917.392
1912.33,919.638
1913.78,909.925
1915.23,919.083
1916.68,919.24
1918.14,900.776
1919.59,908.632
1921.04,883.646
1922.49,906.702
1923.94,902.939
1925.4,908.226
1926.85,911.028
1928.3,896.856
1929.75,874.041
1931.2,903.304
1932.65,913.016
1934.11,906.95
1935.56,910.854
1937.01,891.287
1938.46,905.906
1939.91,903.967
1941.37,912.644
1942.82,912.867
1944.27,914.235
1945.72,930.52
1947.17,915.022
1948.62,913.912
1950.08,903.677
1951.53,909.552
1952.98,912.644
1954.43,913.605
1955.88,903.08
1957.33,923.301
1958.79,931.158
1960.24,905.757
1961.69,894.983
1963.14,913.622
1964.59,911.16
1966.05,923.31
1967.5,926.625
1968.95,925.323
1970.4,936.793
1971.85,936.57
1973.3,933.495
1974.76,944.335
1976.21,940.058
1977.66,936.246
1979.11,937.415
1980.56,930.321
1982.02,941.484
1983.47,931.987
1984.92,927.428
1986.37,938.956
1987.82,951.909
1989.27,948.885
1990.73,943.987
1992.18,942.006
1993.63,943.763
1995.08,946.465
1996.53,961.15
1997.98,930.901
1999.44,930.752
2000.89,969.396
2002.34,933.213
2003.79,945.702
2005.24,939.404
2006.7,961.175
2008.15,939.777
2009.6,953.783
2011.05,950.119
2012.5,947.351
2013.95,955.664
2015.41,935.028
2016.86,919.332
2018.31,919.091
2019.76,915.644
2021.21,911.566
2022.67,904.124
2024.12,895.787
2025.57,921.619
2027.02,914.326
2028.47,920.484
2029.92,886.862
2031.38,902.367
2032.83,907.572
2034.28,904.911
2035.73,884.218
2037.18,891.842
2038.63,881.425
2040.09,879.08
2041.54,858.444
2042.99,877.447
2044.44,882.925
2045.89,871.132
2047.35,862.14
2048.8,870.9
2050.25,865.521
2051.7,866.657
2053.15,877.695
2054.6,867.237
2056.06,845.079
2057.51,858.85
2058.96,854.732
2060.41,846.279
2061.86,850.722
2063.32,857.018
2064.77,848.85
2066.22,840.33
2067.67,841.338
2069.12,853.258
2070.57,835.401
2072.03,850.157
2073.48,847.213
2074.93,838.426
2076.38,833.059
2077.83,846.63
2079.28,848.518
2080.74,837.23
2082.19,833.297
2083.64,846.85
2085.09,858.609
2086.54,850.812
2088,841.271
2089.45,836.207
2090.9,822.323
2092.35,819.104
2093.8,826.133
2095.25,831.099
2096.71,822.351
2098.16,842.586
2099.61,851.204
2101.06,854.559
2102.51,853.146
2103.97,849.014
2105.42,831.283
2106.87,827.929
2108.32,826.073
2109.77,819.314
2111.22,821.09
2112.68,819.238
2114.13,824.227
2115.58,819.364
2117.03,824.735
2118.48,838.348
2119.94,832.957
2121.39,848.939
2122.84,837.876
2124.29,843.686
2125.74,848.844
2127.19,851.369
2128.65,870.51
2130.1,844.944
2131.55,839.32
2133,848.761
2134.45,844.058
2135.9,843.265
2137.36,851.938
2138.81,840.98
2140.26,836.541
2141.71,823.507
2143.16,849.149
2144.62,851.595
2146.07,845.974
2147.52,842.171
2148.97,845.103
2150.42,857.922
2151.87,844.62
2153.33,870.361
2154.78,864.494
2156.23,857.342
2157.68,851.822
2159.13,859.67
2160.58,867.817
2162.04,862.48
2163.49,889.422
2164.94,884.732
2166.39,864.162
2167.84,869.284
2169.3,868.09
2170.75,874.704
2172.2,876.552
2173.65,874.704
2175.1,885.875
2176.55,894.909
2178.01,892.248
2179.46,874.994
2180.91,889.571
2182.36,894.436
2183.81,904.605
2185.27,899.044
2186.72,910.058
2188.17,916.953
2189.62,899.856
2191.07,900.759
2192.52,907.53
2193.98,907.033
2195.43,895.895
2196.88,906.155
2198.33,905.599
2199.78,892.223
2201.24,894.022
2202.69,906.428
2204.14,917.119
2205.59,885.262
2207.04,917.881
2208.49,909.511
2209.95,907.472
2211.4,926.16
2212.85,910.489
2214.3,905.591
2215.75,892.356
2217.2,908.517
2218.66,909.61
2220.11,926.16
2221.56,922.29
2223.01,911.044
2224.46,922.34
2225.92,928.564
2227.37,927.379
2228.82,895.373
2230.27,933.047
2231.72,901.141
2233.17,901.522
2234.63,926.848
2236.08,927.934
2237.53,923.119
2238.98,916.157
2240.43,945.777
2241.89,925.812
2243.34,937.39
2244.79,923.508
2246.24,942.528
2247.69,939.379
2249.14,939.047
2250.6,932.509
2252.05,935.906
2253.5,924.312
2254.95,934.58
2256.4,937.464
2257.85,957.006
2259.31,957.363
2260.76,954.578
2262.21,946.572
2263.66,960.089
2265.11,962.749
2266.57,957.537
2268.02,958.606
2269.47,979.846
2270.92,974.377
2272.37,963.404
2273.82,972.272
2275.28,977.559
2276.73,975.355
2278.18,962.658
2279.63,978.993
2281.08,985.888
2282.54,976.548
2283.99,989.526
2285.44,991.755
2286.89,995.526
2288.34,994.905
2289.79,977.559
2291.25,999.993
2292.7,1006.9
2294.15,997.764
2295.6,1006.6
2297.05,1026.88
2298.5,1026.12
2299.96,986.75
2301.41,1000.49
2302.86,1016.06
2304.31,1027.23
2305.76,1032.08
2307.22,1012.79
2308.67,1029.21
2310.12,1019.69
2311.57,1041.56
2313.02,1044.37
2314.47,1047.49
2315.93,1047.02
2317.38,1046.92
2318.83,1040.59
2320.28,1046.83
2321.73,1041.52
2323.19,1055.97
2324.64,1057.9
2326.09,1056.87
2327.54,1065.25
2328.99,1075.28
2330.44,1075.93
2331.9,1080.87
2333.35,1104.68
2334.8,1095.11
2336.25,1104.83
2337.7,1096.71
2339.16,1103.34
2340.61,1120.05
2342.06,1125.14
2343.51,1115.76
2344.96,1139.46
2346.41,1122.51
2347.87,1114.34
2349.32,1133.78
2350.77,1151.36
2352.22,1177.68
2353.67,1152.09
2355.12,1155
2356.58,1158.52
2358.03,1189.1
2359.48,1182.24
2360.93,1211.32
2362.38,1187.98
2363.84,1198.97
2365.29,1216.7
2366.74,1238.32
2368.19,1218.18
2369.64,1251.06
2371.09,1247.04
2372.55,1264.25
2374,1274.51
2375.45,1284.19
2376.9,1308.58
2378.35,1319.08
2379.8,1319.42
2381.26,1340
2382.71,1337.19
2384.16,1355.05
2385.61,1393.56
2387.06,1429.34
2388.52,1432.53
2389.97,1415.56
2391.42,1426.34
2392.87,1489.61
2394.32,1515.04
2395.77,1570.83
2397.23,1571.16
2398.68,1578.48
2400.13,1596.45
2401.58,1637.63
2403.03,1652.53
2404.49,1694.19
2405.94,1719.93
2407.39,1737.98
2408.84,1769.37
2410.29,1812.88
2411.74,1816.17
2413.2,1835.19
2414.65,1868.71
2416.1,1884.04
2417.55,1914.85
2419,1931.26
2420.46,1944.92
2421.91,1935.98
2423.36,1952.53
2424.81,1985.08
2426.26,1998.29
2427.71,1963.04
2429.17,1983.78
2430.62,2011.95
2432.07,1991.41
2433.52,1972.87
2434.97,1997.74
2436.42,1991.64
2437.88,1986.47
2439.33,1968.02
2440.78,1973.22
2442.23,1944.62
2443.68,1932.41
2445.14,1923.64
2446.59,1905.21
2448.04,1887.02
2449.49,1876.73
2450.94,1905.91
2452.39,1872.49
2453.85,1891.43
2455.3,1871.35
2456.75,1821.99
2458.2,1799.76
2459.65,1795.93
2461.1,1817.17
2462.56,1792.28
2464.01,1777.47
2465.46,1800.36
2466.91,1781.9
2468.36,1760.29
2469.82,1761.74
2471.27,1735.4
2472.72,1742.64
2474.17,1747.67
2475.62,1734.91
2477.07,1775.76
2478.53,1747.51
2479.98,1739.16
2481.43,1715.14
2482.88,1731.43
2484.33,1746.77
2485.79,1742.24
2487.24,1723.35
2488.69,1712.52
2490.14,1722.52
2491.59,1738.49
2493.04,1740.3
2494.5,1712.25
2495.95,1769.29
2497.4,1741.52
2498.85,1740.96
2500.3,1729.12
2501.76,1766.21
2503.21,1746.19
2504.66,1739.05
2506.11,1775.49
2507.56,1753.16
2509.01,1765.42
2510.47,1769.51
2511.92,1777.61
2513.37,1798.6
2514.82,1799.03
2516.27,1809.1
2517.72,1811.96
2519.18,1846.51
2520.63,1851.44
2522.08,1868.76
2523.53,1887.73
2524.98,1876.48
2526.44,1891.58
2527.89,1898.47
2529.34,1914.49
2530.79,1962.37
2532.24,1980.63
2533.69,1995.41
2535.15,2030.1
2536.6,2035.53
2538.05,2035.91
2539.5,2061.85
2540.95,2104.23
2542.41,2109.78
2543.86,2121.56
2545.31,2161
2546.76,2203.56
2548.21,2231.49
2549.66,2249.42
2551.12,2294
2552.57,2331.05
2554.02,2346.37
2555.47,2396.61
2556.92,2407.51
2558.37,2451.35
2559.83,2476.8
2561.28,2553.12
2562.73,2579.76
2564.18,2631.4
2565.63,2678.13
2567.09,2746.51
2568.54,2792.96
2569.99,2829.82
2571.44,2873.81
2572.89,2912.14
2574.34,3014.57
2575.8,3087.22
2577.25,3142.08
2578.7,3213.28
2580.15,3275.42
2581.6,3391.18
2583.06,3492.71
2584.51,3523.43
2585.96,3625.42
2587.41,3739.35
2588.86,3824.3
2590.31,3921.7
2591.77,4059.1
2593.22,4189.96
2594.67,4290.09
2596.12,4403.39
2597.57,4555.94
2599.02,4751.14
2600.48,4902.79
2601.93,5027.16
2603.38,5237.21
2604.83,5436.85
2606.28,5598.79
2607.74,5744.55
2609.19,6010.25
2610.64,6291.59
2612.09,6516.42
2613.54,6775.58
2614.99,6985.5
2616.45,7262.04
2617.9,7580.27
2619.35,7867.19
2620.8,8088.41
2622.25,8374.58
2623.71,8756.79
2625.16,9097.07
2626.61,9454.51
2628.06,9816.26
2629.51,10200
2630.96,10578.9
2632.42,10928.3
2633.87,11304.2
2635.32,11715.7
2636.77,12011.3
2638.22,12396.3
2639.68,12777.5
2641.13,13090.4
2642.58,13430.5
2644.03,13812.1
2645.48,14060.3
2646.93,14380.1
2648.39,14747.9
2649.84,14808.4
2651.29,15071.2
2652.74,15263.2
2654.19,15396
2655.64,15554.3
2657.1,15612
2658.55,15624.4
2660,15604.6
2661.45,15568.9
2662.9,15388.2
2664.36,15368.2
2665.81,15162.7
2667.26,15019.1
2668.71,14841.5
2670.16,14534.1
2671.61,14210
2673.07,13868.6
2674.52,13677.8
2675.97,13236.3
2677.42,12876.1
2678.87,12490.4
2680.32,12140.1
2681.78,11785.3
2683.23,11437.4
2684.68,10997.8
2686.13,10563
2687.58,10141.4
2689.04,9743.49
2690.49,9397.33
2691.94,9050.66
2693.39,8612.84
2694.84,8328.58
2696.29,7982.38
2697.75,7653.78
2699.2,7324.78
2700.65,7052.16
2702.1,6773.9
2703.55,6435.5
2705.01,6171.9
2706.46,5888.25
2707.91,5665.3
2709.36,5524.62
2710.81,5260.22
2712.26,4994.04
2713.72,4846.52
2715.17,4713.61
2716.62,4539.07
2718.07,4350.72
2719.52,4158.96
2720.98,4029.43
2722.43,3890.29
2723.88,3785.93
2725.33,3656.76
2726.78,3526.91
2728.23,3411.27
2729.69,3305.95
2731.14,3217.95
2732.59,3151.97
2734.04,3061.19
2735.49,2972.31
2736.94,2900.65
2738.4,2835.78
2739.85,2755.91
2741.3,2702.08
2742.75,2636.5
2744.2,2603.48
2745.66,2507.58
2747.11,2485.08
2748.56,2422.77
2750.01,2377.39
2751.46,2322.24
2752.91,2267.08
2754.37,2232.52
2755.82,2225.98
2757.27,2169.38
2758.72,2132.12
2760.17,2115.07
2761.63,2070.95
2763.08,2024.49
2764.53,2055.22
2765.98,1968.86
2767.43,1978.55
2768.88,1932.4
2770.34,1888.92
2771.79,1875.54
2773.24,1852.09
2774.69,1866.15
2776.14,1870.94
2777.59,1804.75
2779.05,1826.13
2780.5,1757.22
2781.95,1721.9
2783.4,1751.81
2784.85,1704.96
2786.31,1663.77
2787.76,1668.35
2789.21,1652.32
2790.66,1657.61
2792.11,1655.18
2793.56,1616.74
2795.02,1621.09
2796.47,1577.24
2797.92,1556.56
2799.37,1569.75
2800.82,1535.39
2802.28,1543.85
2803.73,1517.94
2805.18,1523.67
2806.63,1538.43
2808.08,1517.14
2809.53,1489.98
2810.99,1493.53
2812.44,1450.65
2813.89,1477.7
2815.34,1467.09
2816.79,1451.6
2818.24,1442.77
2819.7,1422.06
2821.15,1407.93
2822.6,1422.37
2824.05,1368.82
2825.5,1372.95
2826.96,1385.46
2828.41,1400.57
2829.86,1377.92
2831.31,1387.71
2832.76,1370.24
2834.21,1347.12
2835.67,1367.55
2837.12,1362.2
2838.57,1338.97
2840.02,1372.08
2841.47,1342.33
2842.93,1348.99
2844.38,1323.38
2845.83,1339.46
2847.28,1333.73
2848.73,1328.5
2850.18,1316.81
2851.64,1347.68
2853.09,1336.24
2854.54,1332.88
2855.99,1318.16
2857.44,1305.92
2858.9,1288.45
2860.35,1332.06
2861.8,1298.76
2863.25,1329.06
2864.7,1336.25
2866.15,1327.32
2867.61,1317.15
2869.06,1314.11
2870.51,1345.4
2871.96,1317.65
2873.41,1290.09
2874.86,1321.16
2876.32,1300.65
2877.77,1345.08
2879.22,1333.02
2880.67,1321.11
2882.12,1293.31
2883.58,1293.51
2885.03,1309.25
2886.48,1331.95
2887.93,1329.75
2889.38,1358.22
2890.83,1332.89
2892.29,1334.03
2893.74,1323.13
2895.19,1341
2896.64,1334.79
2898.09,1311.45
2899.54,1335.57
2901,1328.9
2902.45,1333.73
2903.9,1337.03
2905.35,1358.36
2906.8,1346.48
2908.26,1330.26
2909.71,1323.68
2911.16,1311.39
2912.61,1330.45
2914.06,1336.73
2915.51,1324.03
2916.97,1326.64
2918.42,1300.98
2919.87,1311.1
2921.32,1274.08
2922.77,1295.9
2924.23,1273.56
2925.68,1266.48
2927.13,1273.21
2928.58,1280.05
2930.03,1251.65
2931.48,1265.66
2932.94,1230.02
2934.39,1218.43
2935.84,1208.56
2937.29,1196.84
2938.74,1221.71
2940.2,1210.78
2941.65,1162.73
2943.1,1146.16
2944.55,1162.39
2946,1146.35
2947.45,1139.6
2948.91,1142.32
2950.36,1122.17
2951.81,1115.79
2953.26,1100.56
2954.71,1071.31
2956.16,1090.31
2957.62,1070.4
2959.07,1050
2960.52,1054.73
2961.97,1047.02
2963.42,1043.97
2964.88,1025.08
2966.33,1036.21
2967.78,1029.91
2969.23,1013.56
2970.68,1015.57
2972.13,1013.56
2973.59,1016.12
2975.04,1009.53
2976.49,987.131
2977.94,991.184
2979.39,966.843
2980.84,978.322
2982.3,972.81
2983.75,976.241
2985.2,956.832
2986.65,956.741
2988.1,963.272
2989.56,945.545
2991.01,946.025
2992.46,955.672
2993.91,933.694
2995.36,943.97
2996.81,963.959
2998.27,940.092
2999.72,934.249
3001.17,915.03
3002.62,909.138
3004.07,909.975
3005.53,932.376
3006.98,918.751
3008.43,924.967
3009.88,929.285
3011.33,917.774
3012.78,920.218
3014.24,913.837
3015.69,921.785
3017.14,912.378
3018.59,908.533
3020.04,890.947
3021.5,913.033
3022.95,910.564
3024.4,901.199
3025.85,897.56
3027.3,899.541
3028.75,921.685
3030.21,897.113
3031.66,898.248
3033.11,905.334
3034.56,889.513
3036.01,886.538
3037.46,902.566
3038.92,902.682
3040.37,887.35
3041.82,901.141
3043.27,881.035
3044.72,900.668
3046.18,885.95
3047.63,893.16
3049.08,889.356
3050.53,913.033
3051.98,904.945
3053.43,899.964
3054.89,902.177
3056.34,919.423
3057.79,908.143
3059.24,893.442
3060.69,897.71
3062.15,908.798
3063.6,892.389
3065.05,894.262
3066.5,919.796
3067.95,916.232
3069.4,927.942
3070.86,929.757
3072.31,933.627
3073.76,912.03
3075.21,920.989
3076.66,943.929
3078.11,937.191
3079.57,934.895
3081.02,953.849
3082.47,946.746
3083.92,952.083
3085.37,955.548
3086.83,984.587
3088.28,964.946
3089.73,966.495
3091.18,985.54
3092.63,1004.07
3094.08,1014.48
3095.54,1001.07
3096.99,1017.04
3098.44,1066.07
3099.89,1036.23
3101.34,1067.03
3102.8,1067.68
3104.25,1074.04
3105.7,1093.72
3107.15,1096
3108.6,1120.3
3110.05,1140.65
3111.51,1108.64
3112.96,1144.79
3114.41,1168.73
3115.86,1183.96
3117.31,1200.66
3118.76,1216.44
3120.22,1253.02
3121.67,1230.07
3123.12,1249.8
3124.57,1287.46
3126.02,1282.98
3127.48,1281.63
3128.93,1292.96
3130.38,1307.9
3131.83,1336.21
3133.28,1346.77
3134.73,1340.28
3136.19,1366.17
3137.64,1376.14
3139.09,1367.77
3140.54,1384.84
3141.99,1380.12
3143.45,1377.32
3144.9,1415.19
3146.35,1402.69
3147.8,1388.35
3149.25,1431.29
3150.7,1399.17
3152.16,1411.8
3153.61,1393.89
3155.06,1420.74
3156.51,1412.81
3157.96,1416.09
3159.42,1390.79
3160.87,1423.67
3162.32,1421.38
3163.77,1401.88
3165.22,1427.8
3166.67,1447.91
3168.13,1425.54
3169.58,1426.65
3171.03,1472.23
3172.48,1460.32
3173.93,1463.89
3175.38,1469.63
3176.84,1499.13
3178.29,1516.29
3179.74,1562.37
3181.19,1511.24
3182.64,1534.09
3184.1,1582.28
3185.55,1558.02
3187,1557.45
3188.45,1583.74
3189.9,1643.62
3191.35,1639.49
3192.81,1649.15
3194.26,1618.72
3195.71,1660.83
3197.16,1685.99
3198.61,1676.75
3200.06,1673.09
3201.52,1691.19
3202.97,1699.04
3204.42,1685.92
3205.87,1659.45
3207.32,1652.79
3208.78,1641.6
3210.23,1630.91
3211.68,1584.48
3213.13,1547.4
3214.58,1551.33
3216.03,1521.62
3217.49,1516.23
3218.94,1505
3220.39,1445.19
3221.84,1424.35
3223.29,1372.58
3224.75,1340.75
3226.2,1315.29
3227.65,1287.33
3229.1,1270.72
3230.55,1228.66
3232,1184.79
3233.46,1166.2
3234.91,1135.07
3236.36,1102.03
3237.81,1074.67
3239.26,1068.83
3240.72,1037.25
3242.17,1024.46
3243.62,985.092
3245.07,974.866
3246.52,960.429
3247.97,955.026
3249.43,939.785
3250.88,908.376
3252.33,890.831
3253.78,899.467
3255.23,878.789
3256.68,872.383
3258.14,862.745
3259.59,829.304
3261.04,833.78
3262.49,821.419
3263.94,811.534
3265.4,827.234
3266.85,806.02
3268.3,817.703
3269.75,792.579
3271.2,810.802
3272.65,800.944
3274.11,780.735
3275.56,766.151
3277.01,797.7
3278.46,792.968
3279.91,785.042
3281.37,772.837
3282.82,767.46
3284.27,771.1
3285.72,775.374
3287.17,760.653
3288.62,759.174
3290.08,779.438
3291.53,775.704
3292.98,762.981
3294.43,759.45
3295.88,764.065
3297.33,770.808
3298.79,754.172
3300.24,733.008
3301.69,731.997
3303.14,735.056
3304.59,756.303
3306.05,740.263
3307.5,733.082
3308.95,731.744
3310.4,740.664
3311.85,764.229
3313.3,748.407
3314.76,742.132
3316.21,740.406
3317.66,737.842
3319.11,724.087
3320.56,733.306
3322.02,743.535
3323.47,745.449
3324.92,735.253
3326.37,723.976
3327.82,718.912
3329.27,735.991
3330.73,730.274
3332.18,714.504
3333.63,720.089
3335.08,716.38
3336.53,728.642
3337.98,742.752
3339.44,734.739
3340.89,734.499
3342.34,723.635
3343.79,729.146
3345.24,728.837
3346.7,720.832
3348.15,720.532
3349.6,719.296
3351.05,731.948
3352.5,724.152
3353.95,727.699
3355.41,739.6
3356.86,712.935
3358.31,722.304
3359.76,717.687
3361.21,713.027
3362.67,720.897
3364.12,693.073
3365.57,725.358
3367.02,718.954
3368.47,716.401
3369.92,725.062
3371.38,720.535
3372.83,738.468
3374.28,718.506
3375.73,711.387
3377.18,713.345
3378.63,723.66
3380.09,709.502
3381.54,697.461
3382.99,704.274
3384.44,711.041
3385.89,717.361
3387.35,711.673
3388.8,721.535
3390.25,721.021
3391.7,715.2
3393.15,712.433
3394.6,718.103
3396.06,725.521
3397.51,697.304
3398.96,705.316
3400.41,701.955
3401.86,697.659
3403.32,715.922
3404.77,727.614
3406.22,732.534
3407.67,709.452
3409.12,707.417
3410.57,706.054
3412.03,715.234
3413.48,706.69
3414.93,718.423
3416.38,700.78
3417.83,708.008
3419.28,719.12
3420.74,714.285
3422.19,726.158
3423.64,713.329
3425.09,710.028
3426.54,708.415
3428,696.507
3429.45,698.238
3430.9,698.415
3432.35,698.321
3433.8,694.302
3435.25,680.242
3436.71,695.732
3438.16,707.491
3439.61,703.268
3441.06,710.314
3442.51,699.856
3443.97,706.469
3445.42,721.956
3446.87,698.009
3448.32,696.676
3449.77,698.227
3451.22,697.953
3452.68,706.634
3454.13,695.727
3455.58,690.363
3457.03,694.143
3458.48,696.344
3459.94,678.879
3461.39,686.796
3462.84,682.061
3464.29,695.367
3465.74,703.76
3467.19,713.374
3468.65,693.717
3470.1,702.059
3471.55,693.56
3473,689.419
3474.45,701.79
3475.9,690.307
3477.36,687.154
3478.81,672.624
3480.26,680.444
3481.71,702.774
3483.16,700.482
3484.62,713.23
3486.07,699.985
3487.52,707.062
3488.97,710.708
3490.42,723.085
3491.87,682.233
3493.33,694.351
3494.78,705.696
3496.23,690.935
3497.68,688.254
3499.13,701.839
3500.58,706.944
3502.04,695.229
3503.49,710.095
3504.94,699.666
3506.39,707.165
3507.84,697.723
3509.3,677.03
3510.75,703.763
3512.2,697.612
3513.65,697.686
3515.1,702.498
3516.55,723.71
3518.01,715.698
3519.46,708.343
3520.91,694.222
3522.36,699.521
3523.81,712.912
3525.27,676.956
3526.72,686.356
3528.17,691.798
3529.62,699.947
3531.07,709.79
3532.52,700.731
3533.98,716.372
3535.43,698.5
3536.88,709.053
3538.33,700.752
3539.78,699.508
3541.24,703.513
3542.69,682.534
3544.14,703.913
3545.59,713.59
3547.04,685.681
3548.49,693.105
3549.95,694.468
3551.4,695.378
3552.85,677.414
3554.3,694.59
3555.75,689.333
3557.2,698.219
3558.66,679.008
3560.11,687.569
3561.56,696.57
3563.01,683.576
3564.46,693.683
3565.92,702.461
3567.37,693.869
3568.82,698.532
3570.27,692.65
3571.72,699.932
3573.17,687.708
3574.63,697.566
3576.08,704.18
3577.53,678.079
3578.98,686.017
3580.43,691.149
3581.89,698.776
3583.34,707.647
3584.79,696.297
3586.24,690.661
3587.69,692.822
3589.14,692.895
3590.6,695.875
3592.05,685.089
3593.5,685.23
3594.95,695.935
3596.4,681.913
3597.85,690.746
3599.31,687.08
3600.76,687.516
3602.21,686.774
3603.66,693.39
3605.11,692.391
3606.57,689.806
3608.02,698.423
3609.47,689.165
3610.92,693.236
3612.37,696.761
3613.82,689.088
3615.28,694.493
3616.73,686.325
3618.18,678.904
3619.63,704.466
3621.08,675.423
3622.54,689.071
3623.99,676.451
3625.44,695.534
3626.89,704.058
3628.34,689.762
3629.79,694.093
3631.25,691.302
3632.7,698.143
3634.15,683.101
3635.6,686.419
3637.05,709.268
3638.5,699.366
3639.96,710.291
3641.41,681.395
3642.86,682.828
3644.31,694.1
3645.76,682.312
3647.22,686.083
3648.67,691.602
3650.12,674.726
3651.57,695.152
3653.02,687.921
3654.47,693.677
3655.93,688.609
3657.38,671.289
3658.83,706.941
3660.28,696.49
3661.73,692.055
3663.19,687.583
3664.64,692.373
3666.09,701.17
3667.54,706.99
3668.99,688.316
3670.44,680.677
3671.9,703.467
3673.35,715.361
3674.8,706.419
3676.25,693.981
3677.7,705.202
3679.16,699.142
3680.61,707.191
3682.06,690.817
3683.51,694.608
3684.96,696.526
3686.41,709.375
3687.87,690.306
3689.32,687.189
3690.77,682.946
3692.22,714.951
3693.67,688.598
3695.12,690.917
3696.58,712.043
3698.03,684.297
3699.48,689.809
3700.93,703.789
3702.38,709.031
3703.84,694.283
3705.29,707.888
3706.74,706.225
3708.19,700.659
3709.64,687.477
3711.09,686.944
3712.55,695.237
3714,694.241
3715.45,710.366
3716.9,707.89
3718.35,697.46
3719.8,709.665
3721.26,691.653
3722.71,705.894
3724.16,706.073
3725.61,712.65
3727.06,715.095
3728.52,719.901
3729.97,717.697
3731.42,726.943
3732.87,702.671
3734.32,710.025
3735.77,702.435
3737.23,712.67
3738.68,712.01
3740.13,704.747
3741.58,698.247
3743.03,732.463
3744.49,712.801
3745.94,707.396
3747.39,710.884
3748.84,706.598
3750.29,708.662
3751.74,706.951
3753.2,704.057
3754.65,703.567
3756.1,717.682
3757.55,705.035
3759,713.591
3760.46,726.341
3761.91,712.897
3763.36,721.867
3764.81,722.199
3766.26,701.216
3767.71,711.499
3769.17,719.157
3770.62,720.286
3772.07,719.807
3773.52,717.766
3774.97,702.8
3776.42,710.973
3777.88,706.302
3779.33,725.211
3780.78,719.088
3782.23,717.379
3783.68,725.427
3785.14,701.6
3786.59,708.415
3788.04,719.589
3789.49,733.145
3790.94,739.089
3792.39,716.477
3793.85,714.62
3795.3,719.067
3796.75,721.965
3798.2,727.793
3799.65,703.602
3801.1,707.22
3802.56,722.645
3804.01,722.844
3805.46,738.613
3806.91,723.542
3808.36,731.714
3809.82,718.38
3811.27,710.25
3812.72,718.873
3814.17,731.904
3815.62,732.672
3817.07,735.873
3818.53,728.289
3819.98,727.323
3821.43,730.146
3822.88,726.784
3824.33,744.797
3825.79,740.245
3827.24,725.945
3828.69,726.813
3830.14,709.216
3831.59,732.169
3833.04,727.889
3834.5,726.764
3835.95,715.051
3837.4,714.148
3838.85,743.631
3840.3,718.732
3841.76,731.643
3843.21,730.313
3844.66,728.991
3846.11,729.057
3847.56,721.021
3849.01,747.561
3850.47,745.958
3851.92,747.186
3853.37,737.558
3854.82,758.112
3856.27,749.643
3857.72,753.273
3859.18,736.691
3860.63,746.101
3862.08,737.484
3863.53,750.55
3864.98,773.51
3866.44,754.228
3867.89,752.318
3869.34,742.459
3870.79,734.219
3872.24,756.857
3873.69,762.333
3875.15,749.702
3876.6,754.162
3878.05,754.098
3879.5,757.491
3880.95,775.707
3882.41,762.239
3883.86,750.066
3885.31,749.724
3886.76,767.061
3888.21,757.758
3889.66,760.412
3891.12,763.736
3892.57,740.151
3894.02,770.042
3895.47,764.229
3896.92,783.509
3898.37,758.063
3899.83,756.609
3901.28,771.363
3902.73,768.484
3904.18,773.517
3905.63,790.575
3907.09,753.572
3908.54,782.027
3909.99,784.95
3911.44,787.679
3912.89,805.984
3914.34,788.895
3915.8,785.044
3917.25,806.974
3918.7,792.494
3920.15,771.929
3921.6,797.659
3923.06,770.494
3924.51,768.409
3925.96,786.125
3927.41,805.631
3928.86,797.069
3930.31,807.75
3931.77,813.203
3933.22,813.754
3934.67,814.8
3936.12,814.928
3937.57,806.277
3939.02,783.589
3940.48,814.246
3941.93,839.441
3943.38,839.335
3944.83,814.483
3946.28,831.286
3947.74,841.903
3949.19,851.605
3950.64,838.75
3952.09,842.718
3953.54,817.866
3954.99,840.966
3956.45,836.666
3957.9,831.284
3959.35,849.209
3960.8,836.945
3962.25,849.208
3963.71,840.551
3965.16,835.038
3966.61,844.857
3968.06,849.744
3969.51,849.78
3970.96,867.286
3972.42,854.337
3973.87,855.626
3975.32,867.402
3976.77,867.974
3978.22,857.773
3979.68,875.292
3981.13,867.303
3982.58,874.306
3984.03,885.129
3985.48,888.535
3986.93,868.231
3988.39,887.408
3989.84,889.787
3991.29,874.132
3992.74,888.146
3994.19,877.331
3995.64,881.549
3997.1,895.704
3998.55,890.698
4000,893.035
