0,57985.5
1.77681,55160.3
3.2286,35529.9
4.68039,10589.3
6.13218,2170.89
7.58397,753.296
9.03575,635.586
10.4875,621.974
11.9393,620.962
13.3911,620.203
14.8429,617.793
16.2947,614.949
17.7465,610.548
19.1983,602.504
20.6501,595.592
22.1018,587.784
23.5536,582.06
25.0054,577.999
26.4572,569.395
27.909,559.192
29.3608,550.778
30.8126,538.196
32.2644,535.966
33.7161,534.468
35.1679,533.105
36.6197,533.106
38.0715,529.435
39.5233,529.352
40.9751,532.952
42.4269,537.101
43.8787,537.55
45.3304,546.676
46.7822,565.649
48.234,595.058
49.6858,654.953
51.1376,773.601
52.5894,1004.62
54.0412,1322.38
55.493,1714.5
56.9447,2137.93
58.3965,2619.82
59.8483,3008.71
61.3001,3357.38
62.7519,3624.9
64.2037,3814.32
65.6555,3881.75
67.1073,3988.19
68.559,4066.3
70.0108,4105.33
71.4626,4133.05
72.9144,4149.79
74.3662,4179.1
75.818,4245.65
77.2698,4289.93
78.7216,4372.77
80.1733,4504.11
81.6251,4578.86
83.0769,4669.41
84.5287,4726.99
85.9805,4702.69
87.4323,4599.97
88.8841,4457.62
90.3359,4286.56
91.7877,4089.65
93.2394,3888.74
94.6912,3718.69
96.143,3542.24
97.5948,3393.08
99.0466,3309.71
100.498,3273.38
101.95,3195.97
103.402,3119.9
104.854,3086.18
106.306,3068.11
107.757,3027.33
109.209,2975.42
110.661,2915.32
112.113,2884.34
113.564,2882.3
115.016,2841.35
116.468,2784.2
117.92,2751.91
119.372,2732.87
120.823,2669.3
122.275,2688.5
123.727,2643.58
125.179,2576.64
126.631,2544.26
128.082,2541.87
129.534,2487.53
130.986,2452.49
132.438,2430.67
133.889,2397.28
135.341,2361.1
136.793,2317.09
138.245,2290.41
139.697,2290.46
141.148,2295.23
142.6,2275.4
144.052,2276.43
145.504,2270.65
146.956,2255.29
148.407,2219.94
149.859,2182.61
151.311,2152.66
152.763,2157.83
154.215,2158.78
155.666,2143.07
157.118,2069.5
158.57,2036.64
160.022,2033.1
161.473,2031.3
162.925,2003.65
164.377,2013.74
165.829,2019.17
167.281,2003.01
168.732,1975.89
170.184,1994.28
171.636,1961.3
173.088,1922.47
174.54,1910.8
175.991,1915.49
177.443,1845.14
178.895,1856.27
180.347,1856.25
181.798,1841.74
183.25,1806.06
184.702,1828.97
186.154,1820.75
187.606,1808.71
189.057,1786.45
190.509,1764.73
191.961,1744.88
193.413,1757.46
194.865,1783.1
196.316,1784.71
197.768,1762.58
199.22,1756.61
200.672,1758.23
202.124,1768.73
203.575,1754.87
205.027,1716.21
206.479,1712.24
207.931,1723.28
209.382,1719.14
210.834,1721.72
212.286,1749.5
213.738,1735.6
215.19,1720.55
216.641,1735.8
218.093,1758.31
219.545,1770.77
220.997,1770.87
222.449,1711.01
223.9,1726.35
225.352,1743.04
226.804,1737.89
228.256,1700.09
229.707,1705.81
231.159,1724.24
232.611,1724.92
234.063,1733.82
235.515,1731.07
236.966,1741.36
238.418,1737.93
239.87,1731.78
241.322,1726.59
242.774,1714.71
244.225,1711.16
245.677,1712.07
247.129,1717.86
248.581,1703.66
250.033,1675.37
251.484,1691.25
252.936,1660.5
254.388,1643.21
255.84,1656.2
257.291,1676.7
258.743,1654.78
260.195,1649.8
261.647,1646.64
263.099,1651.55
264.55,1651.87
266.002,1630.21
267.454,1639.72
268.906,1650.26
270.358,1653.77
271.809,1637.31
273.261,1609.85
274.713,1620.88
276.165,1621.02
277.616,1613.15
279.068,1601.43
280.52,1598.9
281.972,1589.56
283.424,1559.23
284.875,1542.22
286.327,1549.95
287.779,1556.2
289.231,1556.09
290.683,1562.46
292.134,1555.89
293.586,1529.63
295.038,1499.99
296.49,1523.59
297.941,1522.1
299.393,1514.57
300.845,1509.91
302.297,1504
303.749,1500.41
305.2,1482.46
306.652,1482.65
308.104,1477.19
309.556,1454.03
311.008,1469.09
312.459,1490.24
313.911,1465.31
315.363,1455.97
316.815,1466.94
318.267,1426.88
319.718,1456.41
321.17,1451.34
322.622,1454.37
324.074,1459.12
325.525,1445.11
326.977,1458.65
328.429,1459.72
329.881,1422.7
331.333,1396.97
332.784,1423.42
334.236,1413.62
335.688,1390.84
337.14,1418.03
338.592,1428.25
340.043,1408.54
341.495,1401.2
342.947,1417.28
344.399,1411.87
345.85,1399.32
347.302,1398.92
348.754,1409.69
350.206,1400.78
351.658,1390.56
353.109,1390.86
354.561,1397.24
356.013,1395.73
357.465,1364.52
358.917,1369.22
360.368,1372.89
361.82,1372.3
363.272,1376.25
364.724,1387.19
366.176,1370.24
367.627,1357.29
369.079,1359.45
370.531,1374.7
371.983,1379.9
373.434,1355.5
374.886,1359.83
376.338,1365.27
377.79,1365.98
379.242,1359.77
380.693,1366.84
382.145,1334.03
383.597,1349.3
385.049,1368.72
386.501,1382.14
387.952,1385.84
389.404,1372.73
390.856,1358.32
392.308,1359.42
393.759,1365.09
395.211,1366.69
396.663,1348.09
398.115,1375.21
399.567,1364.72
401.018,1350.18
402.47,1344.01
403.922,1359.52
405.374,1358.99
406.826,1362.51
408.277,1360.9
409.729,1357.98
411.181,1360.43
412.633,1376.66
414.085,1363.54
415.536,1347.69
416.988,1352.42
418.44,1364.26
419.892,1360.23
421.343,1389.79
422.795,1356.88
424.247,1344.25
425.699,1346.6
427.151,1350.07
428.602,1343.05
430.054,1329.52
431.506,1359.6
432.958,1364.51
434.41,1355.28
435.861,1361.21
437.313,1332.51
438.765,1331.53
440.217,1366.96
441.668,1382.86
443.12,1364.74
444.572,1322.36
446.024,1353.82
447.476,1338.74
448.927,1334.22
450.379,1335.44
451.831,1337.26
453.283,1344.91
454.735,1318.35
456.186,1327.35
457.638,1340.11
459.09,1349.74
460.542,1352.69
461.993,1350.13
463.445,1349.49
464.897,1333.87
466.349,1335.73
467.801,1342.46
469.252,1319.59
470.704,1322.63
472.156,1336.2
473.608,1349.94
475.06,1346.02
476.511,1321.33
477.963,1314.98
479.415,1334.26
480.867,1345.14
482.319,1339.05
483.77,1320.07
485.222,1306.29
486.674,1332.93
488.126,1347.95
489.577,1332.14
491.029,1323.68
492.481,1321.8
493.933,1299.15
495.385,1302.35
496.836,1302.42
498.288,1316.43
499.74,1316.08
501.192,1302.6
502.644,1296.15
504.095,1304.55
505.547,1313.08
506.999,1320.07
508.451,1318.15
509.902,1304.68
511.354,1321.05
512.806,1301.43
514.258,1305.04
515.71,1311.19
517.161,1315.04
518.613,1303.64
520.065,1276.42
521.517,1310.6
522.969,1310.31
524.42,1294.15
525.872,1279.94
527.324,1292.39
528.776,1294.18
530.228,1307.06
531.679,1323.4
533.131,1310.13
534.583,1293.37
536.035,1299.95
537.486,1329.11
538.938,1320.16
540.39,1299.13
541.842,1296.04
543.294,1303.91
544.745,1311.98
546.197,1310.95
547.649,1304.88
549.101,1294.83
550.553,1311.3
552.004,1323.31
553.456,1303.02
554.908,1306.02
556.36,1290.59
557.811,1292.27
559.263,1296.72
560.715,1308.77
562.167,1312.71
563.619,1340.67
565.07,1316.27
566.522,1312.27
567.974,1316.94
569.426,1305.04
570.878,1288.71
572.329,1304.82
573.781,1286.39
575.233,1301.6
576.685,1313.26
578.137,1312.61
579.588,1292.96
581.04,1282.25
582.492,1298.53
583.944,1290.37
585.395,1292.38
586.847,1299.16
588.299,1296.96
589.751,1292.13
591.203,1290.55
592.654,1282.76
594.106,1293.62
595.558,1308.59
597.01,1301.53
598.462,1286.27
599.913,1300.86
601.365,1278.04
602.817,1275.65
604.269,1296.45
605.72,1294.41
607.172,1313.55
608.624,1318.92
610.076,1321.07
611.528,1305.71
612.979,1289.7
614.431,1293.08
615.883,1279.46
617.335,1288.5
618.787,1299.34
620.238,1317.61
621.69,1312.44
623.142,1283.06
624.594,1306.9
626.046,1303.51
627.497,1313.99
628.949,1307.15
630.401,1312.08
631.853,1319.38
633.304,1291.58
634.756,1283.26
636.208,1304.66
637.66,1309.48
639.112,1312.51
640.563,1319.09
642.015,1314.56
643.467,1304.26
644.919,1309.81
646.371,1325.37
647.822,1331.47
649.274,1329.01
650.726,1327.82
652.178,1340.61
653.629,1307.64
655.081,1310.53
656.533,1326.8
657.985,1335.64
659.437,1333.64
660.888,1345.23
662.34,1328.94
663.792,1317.19
665.244,1326.23
666.696,1326.68
668.147,1325.62
669.599,1355.15
671.051,1360.44
672.503,1332
673.954,1330.47
675.406,1329.19
676.858,1320.77
678.31,1338.77
679.762,1362.23
681.213,1344.28
682.665,1325.99
684.117,1323.62
685.569,1339.47
687.021,1367.66
688.472,1367.7
689.924,1351.05
691.376,1343.27
692.828,1350.79
694.28,1361.02
695.731,1349.61
697.183,1348.08
698.635,1328.51
700.087,1330.06
701.538,1334.52
702.99,1336.74
704.442,1332.06
705.894,1340.53
707.346,1364.58
708.797,1372.11
710.249,1350.67
711.701,1355.47
713.153,1355.91
714.605,1338.94
716.056,1343.22
717.508,1345
718.96,1366.1
720.412,1352.61
721.863,1343.04
723.315,1347.81
724.767,1354.33
726.219,1354.8
727.671,1356.27
729.122,1332
730.574,1329.68
732.026,1337.86
733.478,1359.02
734.93,1372.75
736.381,1363.34
737.833,1338.18
739.285,1347.45
740.737,1349.95
742.189,1353.38
743.64,1362.35
745.092,1356.97
746.544,1354.78
747.996,1367.36
749.447,1352.88
750.899,1365.79
752.351,1367.53
753.803,1344.06
755.255,1357.21
756.706,1345
758.158,1343.75
759.61,1370.08
761.062,1378.82
762.514,1381.53
763.965,1372.61
765.417,1355.29
766.869,1356.82
768.321,1369.36
769.772,1365.54
771.224,1371.25
772.676,1376.81
774.128,1354.17
775.58,1360.24
777.031,1346.16
778.483,1362.93
779.935,1348.72
781.387,1343.98
782.839,1357.46
784.29,1365.73
785.742,1374.48
787.194,1394.08
788.646,1379.86
790.098,1385.95
791.549,1388.96
793.001,1382
794.453,1393.25
795.905,1381.34
797.356,1358.76
798.808,1361.22
800.26,1353.01
801.712,1363.81
803.164,1388.74
804.615,1390.58
806.067,1400.36
807.519,1375.6
808.971,1383.41
810.423,1382.4
811.874,1383.07
813.326,1374.86
814.778,1390.43
816.23,1392.99
817.681,1393.27
819.133,1379.03
820.585,1396.31
822.037,1398.46
823.489,1387.3
824.94,1381.53
826.392,1401.12
827.844,1411.31
829.296,1417.71
830.748,1421.05
832.199,1423.91
833.651,1409.13
835.103,1412.29
836.555,1415.13
838.007,1414.22
839.458,1407.69
840.91,1415.88
842.362,1423
843.814,1429.03
845.265,1407.92
846.717,1403.99
848.169,1435.55
849.621,1461.3
851.073,1465.38
852.524,1455.01
853.976,1451.99
855.428,1444.14
856.88,1448.79
858.332,1444.37
859.783,1454.8
861.235,1457.4
862.687,1447.35
864.139,1438.41
865.59,1433.34
867.042,1438
868.494,1426.82
869.946,1425.8
871.398,1445.49
872.849,1435.69
874.301,1407.05
875.753,1417.02
877.205,1423.17
878.657,1437.96
880.108,1430.87
881.56,1433.24
883.012,1434.44
884.464,1439.75
885.915,1442.21
887.367,1445.45
888.819,1438.91
890.271,1465.86
891.723,1453.98
893.174,1475.15
894.626,1468.99
896.078,1452.78
897.53,1461.46
898.982,1463.29
900.433,1456.94
901.885,1475.98
903.337,1445.08
904.789,1455.28
906.241,1479.59
907.692,1482.91
909.144,1463.26
910.596,1458.49
912.048,1479.72
913.499,1480.24
914.951,1483.34
916.403,1483.44
917.855,1481.67
919.307,1492.08
920.758,1495.75
922.21,1492.21
923.662,1501.79
925.114,1505.7
926.566,1504.77
928.017,1492.98
929.469,1485.51
930.921,1499.79
932.373,1500.03
933.824,1498.74
935.276,1497.76
936.728,1531.53
938.18,1521
939.632,1504.65
941.083,1515.96
942.535,1475.61
943.987,1510.26
945.439,1517.18
946.891,1499.04
948.342,1498.19
949.794,1497.96
951.246,1500.73
952.698,1507.14
954.15,1499.5
955.601,1507.76
957.053,1512.52
958.505,1503.72
959.957,1519.2
961.408,1512.32
962.86,1487.38
964.312,1492.11
965.764,1531.73
967.216,1501.38
968.667,1506.5
970.119,1516.43
971.571,1515.05
973.023,1500.66
974.475,1499.45
975.926,1523.46
977.378,1522.6
978.83,1506.31
980.282,1513.31
981.733,1509.08
983.185,1522.97
984.637,1536.43
986.089,1523.28
987.541,1525.57
988.992,1517.6
990.444,1523.48
991.896,1534.04
993.348,1515.24
994.8,1523.52
996.251,1555.02
997.703,1554.42
999.155,1535.46
1000.61,1560.72
1002.06,1558.81
1003.51,1562.91
1004.96,1554.79
1006.41,1560.6
1007.87,1558.71
1009.32,1583.31
1010.77,1588.49
1012.22,1566.32
1013.67,1602.31
1015.12,1571.79
1016.58,1588.66
1018.03,1597.19
1019.48,1602.05
1020.93,1605.2
1022.38,1592.77
1023.84,1605.85
1025.29,1636.37
1026.74,1653.58
1028.19,1648.44
1029.64,1651.81
1031.09,1675.96
1032.55,1683.89
1034,1666.24
1035.45,1679.58
1036.9,1696.79
1038.35,1690.32
1039.8,1691.1
1041.26,1700.68
1042.71,1710.97
1044.16,1742.06
1045.61,1747.89
1047.06,1722.08
1048.52,1731.57
1049.97,1769.12
1051.42,1748.2
1052.87,1766.32
1054.32,1788.64
1055.77,1763.61
1057.23,1765.21
1058.68,1815.08
1060.13,1800.19
1061.58,1840.14
1063.03,1832.33
1064.49,1840.32
1065.94,1866.15
1067.39,1883.48
1068.84,1873.48
1070.29,1886.74
1071.74,1906.13
1073.2,1900.18
1074.65,1934.24
1076.1,1926.74
1077.55,1970.34
1079,1964.7
1080.46,1955.82
1081.91,1969.7
1083.36,1985.32
1084.81,1955.67
1086.26,1996.94
1087.71,1990.5
1089.17,1961.01
1090.62,1969.94
1092.07,1979.06
1093.52,1944.65
1094.97,1925.23
1096.42,1988.5
1097.88,1994.04
1099.33,1942.76
1100.78,1949.06
1102.23,1950.25
1103.68,1944.39
1105.14,1950.2
1106.59,1939.44
1108.04,1918.51
1109.49,1907.21
1110.94,1940.36
1112.39,1929.59
1113.85,1921.32
1115.3,1894.42
1116.75,1884.43
1118.2,1880.2
1119.65,1876.45
1121.11,1888.41
1122.56,1869.19
1124.01,1878
1125.46,1830.41
1126.91,1855.47
1128.36,1829.88
1129.82,1825.02
1131.27,1838.24
1132.72,1849.89
1134.17,1848.97
1135.62,1833.3
1137.07,1829.18
1138.53,1821.84
1139.98,1825.12
1141.43,1822.22
1142.88,1803.55
1144.33,1818.76
1145.79,1834.51
1147.24,1807.02
1148.69,1783.23
1150.14,1819.34
1151.59,1823.92
1153.04,1832.53
1154.5,1820.55
1155.95,1818.9
1157.4,1819.6
1158.85,1811.27
1160.3,1818.13
1161.76,1833.23
1163.21,1813.21
1164.66,1821.4
1166.11,1825.26
1167.56,1809.28
1169.01,1805.45
1170.47,1821.17
1171.92,1837.35
1173.37,1827.18
1174.82,1831.13
1176.27,1821.04
1177.72,1836.8
1179.18,1848.59
1180.63,1868.25
1182.08,1859.16
1183.53,1839.28
1184.98,1837.98
1186.44,1838.96
1187.89,1843.36
1189.34,1859.36
1190.79,1842.53
1192.24,1870.27
1193.69,1842.17
1195.15,1858.45
1196.6,1867.13
1198.05,1877.69
1199.5,1879.53
1200.95,1886.37
1202.41,1900.58
1203.86,1884.28
1205.31,1901.37
1206.76,1916.38
1208.21,1911.02
1209.66,1895.59
1211.12,1887.85
1212.57,1897.64
1214.02,1906.39
1215.47,1906.18
1216.92,1894.82
1218.37,1930.1
1219.83,1932.83
1221.28,1924.73
1222.73,1943.87
1224.18,1932.08
1225.63,1907.31
1227.09,1901.43
1228.54,1938.09
1229.99,1959.7
1231.44,1922.92
1232.89,1914.72
1234.34,1965.53
1235.8,1957.56
1237.25,1952.25
1238.7,1971.45
1240.15,1981.54
1241.6,1973.14
1243.06,1975.52
1244.51,2001.62
1245.96,1999.13
1247.41,2026.33
1248.86,2047.78
1250.31,2034.55
1251.77,2013.5
1253.22,2033.08
1254.67,2049.59
1256.12,2066.91
1257.57,2102.43
1259.02,2115.67
1260.48,2118.5
1261.93,2142.77
1263.38,2113.35
1264.83,2171.2
1266.28,2167.65
1267.74,2161.54
1269.19,2189.7
1270.64,2223.43
1272.09,2243.18
1273.54,2266.77
1274.99,2280.79
1276.45,2301.69
1277.9,2323.03
1279.35,2380.99
1280.8,2339.87
1282.25,2390.84
1283.71,2435.98
1285.16,2471.37
1286.61,2499.85
1288.06,2528.84
1289.51,2588.47
1290.96,2661.87
1292.42,2653.28
1293.87,2730.95
1295.32,2789.41
1296.77,2833.04
1298.22,2920.55
1299.67,3011.92
1301.13,3092.43
1302.58,3152.85
1304.03,3210.94
1305.48,3305.78
1306.93,3427.99
1308.39,3516.52
1309.84,3679.44
1311.29,3800.06
1312.74,3920.29
1314.19,4091.21
1315.64,4260.69
1317.1,4404.59
1318.55,4572.06
1320,4757.39
1321.45,4907.28
1322.9,5085.46
1324.36,5277.85
1325.81,5473.42
1327.26,5684.19
1328.71,5774.24
1330.16,5870.36
1331.61,6023.7
1333.07,6134.9
1334.52,6198.46
1335.97,6297.64
1337.42,6266.15
1338.87,6232.38
1340.33,6142.2
1341.78,6093.18
1343.23,5935.11
1344.68,5760.05
1346.13,5629
1347.58,5479.54
1349.04,5298.59
1350.49,5098.82
1351.94,4873.92
1353.39,4719.12
1354.84,4567.39
1356.29,4314.37
1357.75,4184.64
1359.2,4030.88
1360.65,3903.74
1362.1,3749.98
1363.55,3604.79
1365.01,3525.05
1366.46,3415.86
1367.91,3272.41
1369.36,3211.86
1370.81,3117.1
1372.26,3028.84
1373.72,3017.54
1375.17,2953.55
1376.62,2912.65
1378.07,2843.83
1379.52,2782.72
1380.98,2742.16
1382.43,2698.99
1383.88,2684.62
1385.33,2650.27
1386.78,2607.21
1388.23,2607.14
1389.69,2564.96
1391.14,2533.09
1392.59,2536.43
1394.04,2533.77
1395.49,2490.34
1396.94,2461.51
1398.4,2449.78
1399.85,2445.23
1401.3,2442.24
1402.75,2433.14
1404.2,2439.68
1405.66,2442.08
1407.11,2411.1
1408.56,2425.14
1410.01,2405.21
1411.46,2426.05
1412.91,2440.83
1414.37,2404.8
1415.82,2412.06
1417.27,2421.89
1418.72,2434.05
1420.17,2433.34
1421.63,2434.03
1423.08,2442.88
1424.53,2441.36
1425.98,2429.98
1427.43,2483.65
1428.88,2434.14
1430.34,2467.88
1431.79,2465.62
1433.24,2478.7
1434.69,2472.59
1436.14,2493.61
1437.59,2527.63
1439.05,2522.42
1440.5,2542.59
1441.95,2527.71
1443.4,2529.22
1444.85,2527.8
1446.31,2549.21
1447.76,2547.6
1449.21,2554.87
1450.66,2586.07
1452.11,2622.36
1453.56,2643.52
1455.02,2656.18
1456.47,2647.5
1457.92,2645.42
1459.37,2694.37
1460.82,2731.15
1462.28,2745.55
1463.73,2734.93
1465.18,2802.62
1466.63,2768.53
1468.08,2820.51
1469.53,2846.74
1470.99,2849.32
1472.44,2868.09
1473.89,2897.29
1475.34,2946.03
1476.79,3019.8
1478.24,3034.64
1479.7,3042.73
1481.15,3107.33
1482.6,3142.52
1484.05,3186.64
1485.5,3252.74
1486.96,3281.89
1488.41,3326.85
1489.86,3372.52
1491.31,3426.51
1492.76,3462.08
1494.21,3483.43
1495.67,3592.1
1497.12,3727.91
1498.57,3763.91
1500.02,3800.32
1501.47,3890.73
1502.93,4003.93
1504.38,4004.21
1505.83,4171.3
1507.28,4232.3
1508.73,4383.31
1510.18,4522.05
1511.64,4654.23
1513.09,4810.51
1514.54,4932.72
1515.99,5128.9
1517.44,5374.64
1518.89,5580.45
1520.35,5748.74
1521.8,5950.5
1523.25,6243.13
1524.7,6550.86
1526.15,7021.41
1527.61,7344.57
1529.06,7848.94
1530.51,8324.79
1531.96,8897.82
1533.41,9557.5
1534.86,10236.7
1536.32,11018.5
1537.77,11957.1
1539.22,12972.9
1540.67,14073.2
1542.12,15200.3
1543.58,16679.8
1545.03,18179
1546.48,19866
1547.93,21494.1
1549.38,23223.8
1550.83,25010.6
1552.29,26969.6
1553.74,28859.1
1555.19,30706.4
1556.64,32652.6
1558.09,34454.3
1559.54,36088.4
1561,37544.4
1562.45,38721.7
1563.9,39455
1565.35,39964.7
1566.8,40062
1568.26,39793.3
1569.71,38776.8
1571.16,37531
1572.61,36030.8
1574.06,34226.4
1575.51,32298.4
1576.97,30246.9
1578.42,28188.3
1579.87,26222.6
1581.32,24265.4
1582.77,22419.7
1584.23,20709.2
1585.68,19048.9
1587.13,17666.7
1588.58,16219.6
1590.03,14929.7
1591.48,13796.7
1592.94,12700.9
1594.39,11915.2
1595.84,11216.7
1597.29,10476.8
1598.74,9975.04
1600.2,9476.46
1601.65,8980.33
1603.1,8518.55
1604.55,8129.34
1606,7744.63
1607.45,7376.63
1608.91,7070.54
1610.36,6783.27
1611.81,6491.54
1613.26,6131.67
1614.71,5860.7
1616.16,5609.86
1617.62,5353.88
1619.07,5145.99
1620.52,4889.06
1621.97,4755.39
1623.42,4586.86
1624.88,4401.22
1626.33,4282.21
1627.78,4133.24
1629.23,4006.65
1630.68,3889.18
1632.13,3744.07
1633.59,3677.62
1635.04,3645.21
1636.49,3582.67
1637.94,3471.7
1639.39,3362.86
1640.85,3330.44
1642.3,3266.94
1643.75,3211.82
1645.2,3151.53
1646.65,3139.45
1648.1,3109.02
1649.56,3070.72
1651.01,2991.99
1652.46,2955.52
1653.91,2915.73
1655.36,2880.34
1656.81,2875.17
1658.27,2807.8
1659.72,2748.62
1661.17,2737.98
1662.62,2713.01
1664.07,2671.39
1665.53,2662.94
1666.98,2662.72
1668.43,2606.55
1669.88,2546.75
1671.33,2535.31
1672.78,2528.87
1674.24,2472.2
1675.69,2433.51
1677.14,2451.08
1678.59,2452.81
1680.04,2420.07
1681.5,2389.51
1682.95,2387.2
1684.4,2393.07
1685.85,2377.74
1687.3,2358.57
1688.75,2335.38
1690.21,2311.96
1691.66,2297.77
1693.11,2250.46
1694.56,2273.36
1696.01,2280.01
1697.46,2250.86
1698.92,2239.72
1700.37,2218.34
1701.82,2209.12
1703.27,2206.02
1704.72,2219.99
1706.18,2220.57
1707.63,2208.97
1709.08,2188.11
1710.53,2197.28
1711.98,2189.34
1713.43,2151.08
1714.89,2162.85
1716.34,2161.73
1717.79,2163.56
1719.24,2142.8
1720.69,2160.5
1722.15,2198.35
1723.6,2160.81
1725.05,2181.62
1726.5,2159.25
1727.95,2131.89
1729.4,2149.4
1730.86,2149.09
1732.31,2171.66
1733.76,2186.98
1735.21,2129.87
1736.66,2114.11
1738.11,2133.5
1739.57,2123.44
1741.02,2098.89
1742.47,2107.42
1743.92,2114.6
1745.37,2086.24
1746.83,2070.74
1748.28,2073.96
1749.73,2087.63
1751.18,2096
1752.63,2076.95
1754.08,2046.41
1755.54,2079.15
1756.99,2083.21
1758.44,2058.5
1759.89,2014.65
1761.34,2040.64
1762.8,2026.16
1764.25,2015.73
1765.7,2005.5
1767.15,2019.96
1768.6,2026.33
1770.05,2022.1
1771.51,2005.39
1772.96,1964.79
1774.41,1961.6
1775.86,1972.96
1777.31,1976.64
1778.76,1954.44
1780.22,1933.42
1781.67,1958.79
1783.12,1974.05
1784.57,1961.61
1786.02,1922
1787.48,1926
1788.93,1954.83
1790.38,1926.61
1791.83,1909.04
1793.28,1945.03
1794.73,1983.96
1796.19,1914.87
1797.64,1888.21
1799.09,1913.52
1800.54,1903.91
1801.99,1902.72
1803.45,1917.45
1804.9,1919.04
1806.35,1916.72
1807.8,1922.65
1809.25,1911.49
1810.7,1894
1812.16,1885.36
1813.61,1885.14
1815.06,1886.61
1816.51,1877.71
1817.96,1893.09
1819.41,1902.12
1820.87,1888.91
1822.32,1873.54
1823.77,1892.2
1825.22,1900.07
1826.67,1925.51
1828.13,1879.02
1829.58,1914
1831.03,1900.85
1832.48,1889.52
1833.93,1883.22
1835.38,1862.35
1836.84,1931.82
1838.29,1917.41
1839.74,1946.6
1841.19,1954.66
1842.64,1945.93
1844.1,1957.11
1845.55,1949.77
1847,1955.68
1848.45,1950.4
1849.9,1939.26
1851.35,1960.9
1852.81,1993.39
1854.26,1995.62
1855.71,1987.6
1857.16,2009.01
1858.61,2014.2
1860.07,1985.58
1861.52,1972.54
1862.97,1970.09
1864.42,1986.8
1865.87,1993.99
1867.32,2034.39
1868.78,2008.83
1870.23,1971.29
1871.68,1956.45
1873.13,1979.33
1874.58,1942.56
1876.03,1935.07
1877.49,1981.28
1878.94,1952.79
1880.39,1917.88
1881.84,1924.8
1883.29,1940.07
1884.75,1936.04
1886.2,1933.59
1887.65,1900.93
1889.1,1882.89
1890.55,1896.79
1892,1901.39
1893.46,1875.77
1894.91,1880.04
1896.36,1885.62
1897.81,1863.97
1899.26,1856.56
1900.72,1847.92
1902.17,1845.87
1903.62,1840.03
1905.07,1849.26
1906.52,1824.22
1907.97,1821
1909.43,1841.23
1910.88,1827.43
1912.33,1830.92
1913.78,1815.81
1915.23,1830.06
1916.68,1830.3
1918.14,1801.57
1919.59,1813.79
1921.04,1774.91
1922.49,1810.79
1923.94,1804.93
1925.4,1813.16
1926.85,1817.52
1928.3,1795.47
1929.75,1759.96
1931.2,1805.5
1932.65,1820.62
1934.11,1811.18
1935.56,1817.25
1937.01,1786.8
1938.46,1809.55
1939.91,1806.53
1941.37,1820.04
1942.82,1820.39
1944.27,1822.51
1945.72,1847.86
1947.17,1823.74
1948.62,1822.01
1950.08,1806.08
1951.53,1815.23
1952.98,1820.04
1954.43,1821.53
1955.88,1805.15
1957.33,1836.62
1958.79,1848.85
1960.24,1809.32
1961.69,1792.55
1963.14,1821.56
1964.59,1817.73
1966.05,1836.64
1967.5,1841.8
1968.95,1839.77
1970.4,1857.62
1971.85,1857.27
1973.3,1852.49
1974.76,1869.36
1976.21,1862.7
1977.66,1856.77
1979.11,1858.59
1980.56,1847.55
1982.02,1864.92
1983.47,1850.14
1984.92,1843.05
1986.37,1860.99
1987.82,1881.15
1989.27,1876.44
1990.73,1868.82
1992.18,1865.73
1993.63,1868.47
1995.08,1872.67
1996.53,1895.53
1997.98,1848.45
1999.44,1848.22
2000.89,1908.36
2002.34,1852.05
2003.79,1871.49
2005.24,1861.68
2006.7,1895.56
2008.15,1862.26
2009.6,1884.06
2011.05,1878.36
2012.5,1874.05
2013.95,1886.99
2015.41,1854.87
2016.86,1830.45
2018.31,1830.07
2019.76,1824.71
2021.21,1818.36
2022.67,1806.78
2024.12,1793.8
2025.57,1834.01
2027.02,1822.66
2028.47,1832.24
2029.92,1779.91
2031.38,1804.04
2032.83,1812.14
2034.28,1808
2035.73,1775.8
2037.18,1787.66
2038.63,1771.45
2040.09,1767.8
2041.54,1735.69
2042.99,1765.26
2044.44,1773.79
2045.89,1755.43
2047.35,1741.44
2048.8,1755.07
2050.25,1746.7
2051.7,1748.47
2053.15,1765.65
2054.6,1749.37
2056.06,1714.89
2057.51,1736.32
2058.96,1729.91
2060.41,1716.76
2061.86,1723.67
2063.32,1733.47
2064.77,1720.76
2066.22,1707.5
2067.67,1709.07
2069.12,1727.62
2070.57,1699.83
2072.03,1722.79
2073.48,1718.21
2074.93,1704.53
2076.38,1696.18
2077.83,1717.3
2079.28,1720.24
2080.74,1702.67
2082.19,1696.55
2083.64,1717.65
2085.09,1735.95
2086.54,1723.81
2088,1708.96
2089.45,1701.08
2090.9,1679.47
2092.35,1674.46
2093.8,1685.4
2095.25,1693.13
2096.71,1679.52
2098.16,1711.01
2099.61,1724.42
2101.06,1729.64
2102.51,1727.44
2103.97,1721.01
2105.42,1693.42
2106.87,1688.2
2108.32,1685.31
2109.77,1674.79
2111.22,1677.55
2112.68,1674.67
2114.13,1682.44
2115.58,1674.87
2117.03,1683.23
2118.48,1704.41
2119.94,1696.02
2121.39,1720.9
2122.84,1703.68
2124.29,1712.72
2125.74,1720.75
2127.19,1724.68
2128.65,1754.47
2130.1,1714.68
2131.55,1705.93
2133,1720.62
2134.45,1713.3
2135.9,1712.07
2137.36,1725.56
2138.81,1708.51
2140.26,1701.6
2141.71,1681.32
2143.16,1721.22
2144.62,1725.03
2146.07,1716.28
2147.52,1710.36
2148.97,1714.93
2150.42,1734.87
2151.87,1714.17
2153.33,1754.23
2154.78,1745.1
2156.23,1733.97
2157.68,1725.38
2159.13,1737.6
2160.58,1750.27
2162.04,1741.97
2163.49,1783.9
2164.94,1776.6
2166.39,1744.59
2167.84,1752.56
2169.3,1750.7
2170.75,1760.99
2172.2,1763.87
2173.65,1760.99
2175.1,1778.38
2176.55,1792.44
2178.01,1788.3
2179.46,1761.44
2180.91,1784.13
2182.36,1791.7
2183.81,1807.53
2185.27,1798.87
2186.72,1816.01
2188.17,1826.74
2189.62,1800.14
2191.07,1801.54
2192.52,1812.08
2193.98,1811.31
2195.43,1793.97
2196.88,1809.94
2198.33,1809.07
2199.78,1788.26
2201.24,1791.06
2202.69,1810.36
2204.14,1827
2205.59,1777.42
2207.04,1828.19
2208.49,1815.16
2209.95,1811.99
2211.4,1841.07
2212.85,1816.68
2214.3,1809.06
2215.75,1788.46
2217.2,1813.61
2218.66,1815.32
2220.11,1841.07
2221.56,1835.05
2223.01,1817.55
2224.46,1835.13
2225.92,1844.81
2227.37,1842.97
2228.82,1793.16
2230.27,1851.79
2231.72,1802.14
2233.17,1802.73
2234.63,1842.14
2236.08,1843.83
2237.53,1836.34
2238.98,1825.51
2240.43,1871.6
2241.89,1840.53
2243.34,1858.55
2244.79,1836.95
2246.24,1866.55
2247.69,1861.64
2249.14,1861.13
2250.6,1850.95
2252.05,1856.24
2253.5,1838.2
2254.95,1854.18
2256.4,1858.66
2257.85,1889.08
2259.31,1889.63
2260.76,1885.3
2262.21,1872.84
2263.66,1893.88
2265.11,1898.02
2266.57,1889.9
2268.02,1891.57
2269.47,1924.62
2270.92,1916.11
2272.37,1899.03
2273.82,1912.83
2275.28,1921.06
2276.73,1917.63
2278.18,1897.87
2279.63,1923.29
2281.08,1934.03
2282.54,1919.49
2283.99,1939.69
2285.44,1943.16
2286.89,1949.02
2288.34,1948.06
2289.79,1921.06
2291.25,1955.98
2292.7,1966.73
2294.15,1952.51
2295.6,1966.26
2297.05,1997.82
2298.5,1996.64
2299.96,1935.37
2301.41,1956.75
2302.86,1980.98
2304.31,1998.37
2305.76,2005.92
2307.22,1975.89
2308.67,2001.44
2310.12,1986.63
2311.57,2020.67
2313.02,2025.04
2314.47,2029.89
2315.93,2029.17
2317.38,2029
2318.83,2019.16
2320.28,2028.87
2321.73,2020.61
2323.19,2043.1
2324.64,2046.09
2326.09,2044.49
2327.54,2057.53
2328.99,2073.14
2330.44,2074.16
2331.9,2081.84
2333.35,2118.9
2334.8,2104
2336.25,2119.13
2337.7,2106.49
2339.16,2116.81
2340.61,2142.82
2342.06,2150.74
2343.51,2136.14
2344.96,2173.03
2346.41,2146.64
2347.87,2133.94
2349.32,2164.18
2350.77,2191.55
2352.22,2232.5
2353.67,2192.68
2355.12,2197.21
2356.58,2202.69
2358.03,2250.27
2359.48,2239.6
2360.93,2284.86
2362.38,2248.53
2363.84,2265.65
2365.29,2293.23
2366.74,2326.88
2368.19,2295.54
2369.64,2346.71
2371.09,2340.45
2372.55,2367.24
2374,2383.21
2375.45,2398.27
2376.9,2436.23
2378.35,2452.56
2379.8,2453.08
2381.26,2485.12
2382.71,2480.75
2384.16,2508.54
2385.61,2568.48
2387.06,2624.16
2388.52,2629.12
2389.97,2602.71
2391.42,2619.49
2392.87,2717.96
2394.32,2757.53
2395.77,2844.35
2397.23,2844.87
2398.68,2856.26
2400.13,2884.22
2401.58,2948.31
2403.03,2971.5
2404.49,3036.33
2405.94,3076.39
2407.39,3104.48
2408.84,3153.33
2410.29,3221.05
2411.74,3226.17
2413.2,3255.77
2414.65,3307.94
2416.1,3331.79
2417.55,3379.74
2419,3405.28
2420.46,3426.53
2421.91,3412.63
2423.36,3438.39
2424.81,3489.04
2426.26,3509.59
2427.71,3454.74
2429.17,3487.01
2430.62,3530.85
2432.07,3498.89
2433.52,3470.04
2434.97,3508.74
2436.42,3499.25
2437.88,3491.2
2439.33,3462.48
2440.78,3470.58
2442.23,3426.07
2443.68,3407.07
2445.14,3393.43
2446.59,3364.74
2448.04,3336.43
2449.49,3320.41
2450.94,3365.83
2452.39,3313.81
2453.85,3343.29
2455.3,3312.04
2456.75,3235.23
2458.2,3200.62
2459.65,3194.68
2461.1,3227.72
2462.56,3188.99
2464.01,3165.94
2465.46,3201.56
2466.91,3172.83
2468.36,3139.2
2469.82,3141.46
2471.27,3100.46
2472.72,3111.73
2474.17,3119.56
2475.62,3099.7
2477.07,3163.27
2478.53,3119.32
2479.98,3106.32
2481.43,3068.94
2482.88,3094.28
2484.33,3118.16
2485.79,3111.11
2487.24,3081.72
2488.69,3064.86
2490.14,3080.43
2491.59,3105.27
2493.04,3108.1
2494.5,3064.44
2495.95,3153.21
2497.4,3109.99
2498.85,3109.11
2500.3,3090.7
2501.76,3148.41
2503.21,3117.27
2504.66,3106.15
2506.11,3162.86
2507.56,3128.11
2509.01,3147.19
2510.47,3153.56
2511.92,3166.16
2513.37,3198.82
2514.82,3199.5
2516.27,3215.17
2517.72,3219.62
2519.18,3273.39
2520.63,3281.06
2522.08,3308.01
2523.53,3337.54
2524.98,3320.03
2526.44,3343.53
2527.89,3354.24
2529.34,3379.19
2530.79,3453.7
2532.24,3482.11
2533.69,3505.11
2535.15,3559.11
2536.6,3567.56
2538.05,3568.15
2539.5,3608.52
2540.95,3674.46
2542.41,3683.1
2543.86,3701.44
2545.31,3762.82
2546.76,3829.05
2548.21,3872.52
2549.66,3900.41
2551.12,3969.8
2552.57,4027.45
2554.02,4051.3
2555.47,4129.49
2556.92,4146.45
2558.37,4214.69
2559.83,4254.28
2561.28,4373.07
2562.73,4414.52
2564.18,4494.88
2565.63,4567.61
2567.09,4674.03
2568.54,4746.32
2569.99,4803.68
2571.44,4872.14
2572.89,4931.8
2574.34,5091.2
2575.8,5204.27
2577.25,5289.64
2578.7,5400.44
2580.15,5497.16
2581.6,5677.31
2583.06,5835.32
2584.51,5883.12
2585.96,6041.85
2587.41,6219.16
2588.86,6351.36
2590.31,6502.93
2591.77,6716.77
2593.22,6920.42
2594.67,7076.25
2596.12,7252.59
2597.57,7489.99
2599.02,7793.78
2600.48,8029.79
2601.93,8223.34
2603.38,8550.23
2604.83,8860.92
2606.28,9112.95
2607.74,9339.79
2609.19,9753.29
2610.64,10191.1
2612.09,10541
2613.54,10944.3
2614.99,11271
2616.45,11701.4
2617.9,12196.7
2619.35,12643.2
2620.8,12987.5
2622.25,13432.8
2623.71,14027.6
2625.16,14557.2
2626.61,15113.5
2628.06,15676.5
2629.51,16273.6
2630.96,16863.4
2632.42,17407
2633.87,17992.1
2635.32,18632.6
2636.77,19092.5
2638.22,19691.7
2639.68,20285
2641.13,20771.9
2642.58,21301.2
2644.03,21895.1
2645.48,22281.4
2646.93,22779
2648.39,23351.5
2649.84,23445.5
2651.29,23854.5
2652.74,24153.3
2654.19,24360.1
2655.64,24606.4
2657.1,24696.2
2658.55,24715.5
2660,24684.7
2661.45,24629.1
2662.9,24348
2664.36,24316.7
2665.81,23997
2667.26,23773.5
2668.71,23497.1
2670.16,23018.7
2671.61,22514.3
2673.07,21982.9
2674.52,21686
2675.97,20999
2677.42,20438.3
2678.87,19838.2
2680.32,19293
2681.78,18740.8
2683.23,18199.5
2684.68,17515.3
2686.13,16838.7
2687.58,16182.4
2689.04,15563.2
2690.49,15024.5
2691.94,14485
2693.39,13803.6
2694.84,13361.2
2696.29,12822.5
2697.75,12311.1
2699.2,11799.1
2700.65,11374.8
2702.1,10941.7
2703.55,10415.1
2705.01,10004.9
2706.46,9563.42
2707.91,9216.45
2709.36,8997.51
2710.81,8586.03
2712.26,8171.79
2713.72,7942.2
2715.17,7735.37
2716.62,7463.73
2718.07,7170.61
2719.52,6872.19
2720.98,6670.6
2722.43,6454.06
2723.88,6291.65
2725.33,6090.63
2726.78,5888.54
2728.23,5708.58
2729.69,5544.66
2731.14,5407.72
2732.59,5305.03
2734.04,5163.76
2735.49,5025.44
2736.94,4913.91
2738.4,4812.96
2739.85,4688.66
2741.3,4604.89
2742.75,4502.82
2744.2,4451.43
2745.66,4302.18
2747.11,4267.18
2748.56,4170.2
2750.01,4099.58
2751.46,4013.76
2752.91,3927.91
2754.37,3874.12
2755.82,3863.94
2757.27,3775.86
2758.72,3717.88
2760.17,3691.33
2761.63,3622.68
2763.08,3550.38
2764.53,3598.19
2765.98,3463.8
2767.43,3478.87
2768.88,3407.06
2770.34,3339.39
2771.79,3318.56
2773.24,3282.07
2774.69,3303.94
2776.14,3311.4
2777.59,3208.4
2779.05,3241.68
2780.5,3134.43
2781.95,3079.46
2783.4,3126.01
2784.85,3053.09
2786.31,2988.99
2787.76,2996.12
2789.21,2971.18
2790.66,2979.4
2792.11,2975.63
2793.56,2915.81
2795.02,2922.58
2796.47,2854.32
2797.92,2822.15
2799.37,2842.68
2800.82,2789.19
2802.28,2802.36
2803.73,2762.04
2805.18,2770.96
2806.63,2793.93
2808.08,2760.79
2809.53,2718.53
2810.99,2724.05
2812.44,2657.32
2813.89,2699.41
2815.34,2682.9
2816.79,2658.8
2818.24,2645.05
2819.7,2612.82
2821.15,2590.84
2822.6,2613.31
2824.05,2529.97
2825.5,2536.4
2826.96,2555.86
2828.41,2579.39
2829.86,2544.13
2831.31,2559.37
2832.76,2532.18
2834.21,2496.2
2835.67,2527.99
2837.12,2519.67
2838.57,2483.51
2840.02,2535.05
2841.47,2488.75
2842.93,2499.1
2844.38,2459.25
2845.83,2484.28
2847.28,2475.36
2848.73,2467.22
2850.18,2449.03
2851.64,2497.06
2853.09,2479.27
2854.54,2474.04
2855.99,2451.14
2857.44,2432.07
2858.9,2404.9
2860.35,2472.77
2861.8,2420.93
2863.25,2468.1
2864.7,2479.28
2866.15,2465.39
2867.61,2449.56
2869.06,2444.83
2870.51,2493.52
2871.96,2450.34
2873.41,2407.45
2874.86,2455.81
2876.32,2423.88
2877.77,2493.03
2879.22,2474.26
2880.67,2455.73
2882.12,2412.46
2883.58,2412.77
2885.03,2437.26
2886.48,2472.6
2887.93,2469.17
2889.38,2513.47
2890.83,2474.06
2892.29,2475.82
2893.74,2458.86
2895.19,2486.67
2896.64,2477.01
2898.09,2440.69
2899.54,2478.22
2901,2467.84
2902.45,2475.36
2903.9,2480.49
2905.35,2513.69
2906.8,2495.21
2908.26,2469.97
2909.71,2459.71
2911.16,2440.6
2912.61,2470.26
2914.06,2480.03
2915.51,2460.27
2916.97,2464.33
2918.42,2424.4
2919.87,2440.14
2921.32,2382.53
2922.77,2416.49
2924.23,2381.72
2925.68,2370.7
2927.13,2381.18
2928.58,2391.82
2930.03,2347.62
2931.48,2369.42
2932.94,2313.96
2934.39,2295.93
2935.84,2280.57
2937.29,2262.32
2938.74,2301.02
2940.2,2284.02
2941.65,2209.23
2943.1,2183.45
2944.55,2208.72
2946,2183.75
2947.45,2173.25
2948.91,2177.48
2950.36,2146.11
2951.81,2136.19
2953.26,2112.49
2954.71,2066.96
2956.16,2096.53
2957.62,2065.55
2959.07,2033.8
2960.52,2041.16
2961.97,2029.17
2963.42,2024.42
2964.88,1995.02
2966.33,2012.34
2967.78,2002.54
2969.23,1977.09
2970.68,1980.21
2972.13,1977.09
2973.59,1981.07
2975.04,1970.82
2976.49,1935.96
2977.94,1942.27
2979.39,1904.39
2980.84,1922.25
2982.3,1913.67
2983.75,1919.01
2985.2,1888.81
2986.65,1888.66
2988.1,1898.83
2989.56,1871.24
2991.01,1871.99
2992.46,1887
2993.91,1852.8
2995.36,1868.79
2996.81,1899.9
2998.27,1862.75
2999.72,1853.66
3001.17,1823.75
3002.62,1814.58
3004.07,1815.88
3005.53,1850.75
3006.98,1829.54
3008.43,1839.22
3009.88,1845.94
3011.33,1828.02
3012.78,1831.83
3014.24,1821.89
3015.69,1834.26
3017.14,1819.62
3018.59,1813.64
3020.04,1786.27
3021.5,1820.64
3022.95,1816.8
3024.4,1802.23
3025.85,1796.56
3027.3,1799.65
3028.75,1834.11
3030.21,1795.87
3031.66,1797.63
3033.11,1808.66
3034.56,1784.04
3036.01,1779.41
3037.46,1804.35
3038.92,1804.53
3040.37,1780.67
3041.82,1802.14
3043.27,1770.85
3044.72,1801.4
3046.18,1778.49
3047.63,1789.72
3049.08,1783.79
3050.53,1820.64
3051.98,1808.06
3053.43,1800.3
3054.89,1803.75
3056.34,1830.59
3057.79,1813.03
3059.24,1790.15
3060.69,1796.8
3062.15,1814.05
3063.6,1788.52
3065.05,1791.43
3066.5,1831.17
3067.95,1825.62
3069.4,1843.85
3070.86,1846.67
3072.31,1852.69
3073.76,1819.08
3075.21,1833.02
3076.66,1868.72
3078.11,1858.24
3079.57,1854.67
3081.02,1884.16
3082.47,1873.11
3083.92,1881.42
3085.37,1886.81
3086.83,1932
3088.28,1901.43
3089.73,1903.84
3091.18,1933.48
3092.63,1962.32
3094.08,1978.52
3095.54,1957.65
3096.99,1982.51
3098.44,2058.81
3099.89,2012.38
3101.34,2060.3
3102.8,2061.32
3104.25,2071.22
3105.7,2101.85
3107.15,2105.39
3108.6,2143.21
3110.05,2174.87
3111.51,2125.06
3112.96,2181.32
3114.41,2218.57
3115.86,2242.27
3117.31,2268.26
3118.76,2292.82
3120.22,2349.75
3121.67,2314.04
3123.12,2344.75
3124.57,2403.35
3126.02,2396.39
3127.48,2394.27
3128.93,2411.92
3130.38,2435.16
3131.83,2479.21
3133.28,2495.66
3134.73,2485.56
3136.19,2525.85
3137.64,2541.37
3139.09,2528.34
3140.54,2554.9
3141.99,2547.56
3143.45,2543.2
3144.9,2602.14
3146.35,2582.68
3147.8,2560.37
3149.25,2627.19
3150.7,2577.21
3152.16,2596.87
3153.61,2568.98
3155.06,2610.77
3156.51,2598.43
3157.96,2603.53
3159.42,2564.16
3160.87,2615.33
3162.32,2611.77
3163.77,2581.41
3165.22,2621.76
3166.67,2653.06
3168.13,2618.24
3169.58,2619.96
3171.03,2690.9
3172.48,2672.37
3173.93,2677.93
3175.38,2686.86
3176.84,2732.77
3178.29,2759.48
3179.74,2831.19
3181.19,2751.61
3182.64,2787.17
3184.1,2862.17
3185.55,2824.42
3187,2823.53
3188.45,2864.44
3189.9,2957.63
3191.35,2951.21
3192.81,2966.24
3194.26,2918.88
3195.71,2984.42
3197.16,3023.57
3198.61,3009.2
3200.06,3003.5
3201.52,3031.67
3202.97,3043.88
3204.42,3023.46
3205.87,2982.27
3207.32,2971.9
3208.78,2954.49
3210.23,2937.85
3211.68,2865.6
3213.13,2807.89
3214.58,2814.01
3216.03,2767.77
3217.49,2759.37
3218.94,2741.91
3220.39,2648.83
3221.84,2616.39
3223.29,2535.82
3224.75,2486.28
3226.2,2446.66
3227.65,2403.15
3229.1,2377.3
3230.55,2311.84
3232,2243.56
3233.46,2214.64
3234.91,2166.19
3236.36,2114.77
3237.81,2072.2
3239.26,2063.1
3240.72,2013.96
3242.17,1994.05
3243.62,1932.79
3245.07,1916.87
3246.52,1894.4
3247.97,1885.99
3249.43,1862.28
3250.88,1813.39
3252.33,1786.09
3253.78,1799.53
3255.23,1767.35
3256.68,1757.38
3258.14,1742.38
3259.59,1690.34
3261.04,1697.3
3262.49,1678.07
3263.94,1662.68
3265.4,1687.12
3266.85,1654.1
3268.3,1672.28
3269.75,1633.18
3271.2,1661.54
3272.65,1646.2
3274.11,1614.75
3275.56,1592.05
3277.01,1641.15
3278.46,1633.79
3279.91,1621.45
3281.37,1602.46
3282.82,1594.09
3284.27,1599.76
3285.72,1606.41
3287.17,1583.5
3288.62,1581.2
3290.08,1612.73
3291.53,1606.92
3292.98,1587.12
3294.43,1581.63
3295.88,1588.81
3297.33,1599.3
3298.79,1573.41
3300.24,1540.47
3301.69,1538.9
3303.14,1543.66
3304.59,1576.73
3306.05,1551.77
3307.5,1540.59
3308.95,1538.51
3310.4,1552.39
3311.85,1589.06
3313.3,1564.44
3314.76,1554.68
3316.21,1551.99
3317.66,1548
3319.11,1526.59
3320.56,1540.94
3322.02,1556.86
3323.47,1559.84
3324.92,1543.97
3326.37,1526.42
3327.82,1518.54
3329.27,1545.12
3330.73,1536.22
3332.18,1511.68
3333.63,1520.37
3335.08,1514.6
3336.53,1533.68
3337.98,1555.64
3339.44,1543.17
3340.89,1542.8
3342.34,1525.89
3343.79,1534.46
3345.24,1533.98
3346.7,1521.53
3348.15,1521.06
3349.6,1519.14
3351.05,1538.83
3352.5,1526.69
3353.95,1532.21
3355.41,1550.73
3356.86,1509.24
3358.31,1523.82
3359.76,1516.63
3361.21,1509.38
3362.67,1521.63
3364.12,1478.33
3365.57,1528.57
3367.02,1518.6
3368.47,1514.63
3369.92,1528.11
3371.38,1521.06
3372.83,1548.97
3374.28,1517.91
3375.73,1506.83
3377.18,1509.87
3378.63,1525.93
3380.09,1503.89
3381.54,1485.16
3382.99,1495.76
3384.44,1506.29
3385.89,1516.12
3387.35,1507.27
3388.8,1522.62
3390.25,1521.82
3391.7,1512.76
3393.15,1508.46
3394.6,1517.28
3396.06,1528.82
3397.51,1484.91
3398.96,1497.38
3400.41,1492.15
3401.86,1485.46
3403.32,1513.89
3404.77,1532.08
3406.22,1539.74
3407.67,1503.82
3409.12,1500.65
3410.57,1498.53
3412.03,1512.81
3413.48,1499.52
3414.93,1517.78
3416.38,1490.32
3417.83,1501.57
3419.28,1518.86
3420.74,1511.34
3422.19,1529.82
3423.64,1509.85
3425.09,1504.71
3426.54,1502.2
3428,1483.67
3429.45,1486.36
3430.9,1486.64
3432.35,1486.49
3433.8,1480.24
3435.25,1458.36
3436.71,1482.46
3438.16,1500.76
3439.61,1494.19
3441.06,1505.16
3442.51,1488.88
3443.97,1499.17
3445.42,1523.28
3446.87,1486.01
3448.32,1483.93
3449.77,1486.35
3451.22,1485.92
3452.68,1499.43
3454.13,1482.46
3455.58,1474.11
3457.03,1479.99
3458.48,1483.42
3459.94,1456.24
3461.39,1468.56
3462.84,1461.19
3464.29,1481.9
3465.74,1494.96
3467.19,1509.92
3468.65,1479.33
3470.1,1492.31
3471.55,1479.08
3473,1472.64
3474.45,1491.89
3475.9,1474.02
3477.36,1469.11
3478.81,1446.5
3480.26,1458.67
3481.71,1493.42
3483.16,1489.86
3484.62,1509.7
3486.07,1489.08
3487.52,1500.1
3488.97,1505.77
3490.42,1525.03
3491.87,1461.46
3493.33,1480.31
3494.78,1497.97
3496.23,1475
3497.68,1470.83
3499.13,1491.97
3500.58,1499.91
3502.04,1481.68
3503.49,1504.82
3504.94,1488.59
3506.39,1500.26
3507.84,1485.56
3509.3,1453.36
3510.75,1494.96
3512.2,1485.39
3513.65,1485.5
3515.1,1492.99
3516.55,1526.01
3518.01,1513.54
3519.46,1502.09
3520.91,1480.11
3522.36,1488.36
3523.81,1509.2
3525.27,1453.24
3526.72,1467.87
3528.17,1476.34
3529.62,1489.02
3531.07,1504.34
3532.52,1490.24
3533.98,1514.58
3535.43,1486.77
3536.88,1503.19
3538.33,1490.28
3539.78,1488.34
3541.24,1494.57
3542.69,1461.92
3544.14,1495.2
3545.59,1510.26
3547.04,1466.82
3548.49,1478.38
3549.95,1480.5
3551.4,1481.91
3552.85,1453.96
3554.3,1480.69
3555.75,1472.51
3557.2,1486.33
3558.66,1456.44
3560.11,1469.76
3561.56,1483.77
3563.01,1463.55
3564.46,1479.28
3565.92,1492.94
3567.37,1479.57
3568.82,1486.82
3570.27,1477.67
3571.72,1489
3573.17,1469.98
3574.63,1485.32
3576.08,1495.61
3577.53,1454.99
3578.98,1467.34
3580.43,1475.33
3581.89,1487.2
3583.34,1501.01
3584.79,1483.34
3586.24,1474.57
3587.69,1477.94
3589.14,1478.05
3590.6,1482.69
3592.05,1465.9
3593.5,1466.12
3594.95,1482.78
3596.4,1460.96
3597.85,1474.7
3599.31,1469
3600.76,1469.68
3602.21,1468.52
3603.66,1478.82
3605.11,1477.26
3606.57,1473.24
3608.02,1486.65
3609.47,1472.24
3610.92,1478.58
3612.37,1484.07
3613.82,1472.12
3615.28,1480.54
3616.73,1467.82
3618.18,1456.28
3619.63,1496.06
3621.08,1450.86
3622.54,1472.1
3623.99,1452.46
3625.44,1482.16
3626.89,1495.42
3628.34,1473.17
3629.79,1479.91
3631.25,1475.57
3632.7,1486.22
3634.15,1462.81
3635.6,1467.97
3637.05,1503.53
3638.5,1488.12
3639.96,1505.12
3641.41,1460.15
3642.86,1462.38
3644.31,1479.92
3645.76,1461.58
3647.22,1467.45
3648.67,1476.04
3650.12,1449.77
3651.57,1481.56
3653.02,1470.31
3654.47,1479.27
3655.93,1471.38
3657.38,1444.42
3658.83,1499.91
3660.28,1483.64
3661.73,1476.74
3663.19,1469.78
3664.64,1477.24
3666.09,1490.93
3667.54,1499.98
3668.99,1470.92
3670.44,1459.04
3671.9,1494.5
3673.35,1513.01
3674.8,1499.1
3676.25,1479.74
3677.7,1497.2
3679.16,1487.77
3680.61,1500.3
3682.06,1474.82
3683.51,1480.71
3684.96,1483.7
3686.41,1503.7
3687.87,1474.02
3689.32,1469.17
3690.77,1462.57
3692.22,1512.37
3693.67,1471.36
3695.12,1474.97
3696.58,1507.85
3698.03,1464.67
3699.48,1473.25
3700.93,1495
3702.38,1503.16
3703.84,1480.21
3705.29,1501.38
3706.74,1498.79
3708.19,1490.13
3709.64,1469.62
3711.09,1468.79
3712.55,1481.69
3714,1480.14
3715.45,1505.24
3716.9,1501.39
3718.35,1485.15
3719.8,1504.15
3721.26,1476.12
3722.71,1498.28
3724.16,1498.56
3725.61,1508.79
3727.06,1512.6
3728.52,1520.08
3729.97,1516.65
3731.42,1531.04
3732.87,1493.26
3734.32,1504.71
3735.77,1492.9
3737.23,1508.82
3738.68,1507.8
3740.13,1496.49
3741.58,1486.38
3743.03,1539.63
3744.49,1509.03
3745.94,1500.62
3747.39,1506.05
3748.84,1499.37
3750.29,1502.59
3751.74,1499.92
3753.2,1495.42
3754.65,1494.66
3756.1,1516.62
3757.55,1496.94
3759,1510.26
3760.46,1530.1
3761.91,1509.18
3763.36,1523.14
3764.81,1523.65
3766.26,1491
3767.71,1507
3769.17,1518.92
3770.62,1520.68
3772.07,1519.93
3773.52,1516.76
3774.97,1493.46
3776.42,1506.18
3777.88,1498.91
3779.33,1528.34
3780.78,1518.81
3782.23,1516.15
3783.68,1528.68
3785.14,1491.6
3786.59,1502.2
3788.04,1519.59
3789.49,1540.69
3790.94,1549.94
3792.39,1514.75
3793.85,1511.86
3795.3,1518.78
3796.75,1523.29
3798.2,1532.36
3799.65,1494.71
3801.1,1500.34
3802.56,1524.35
3804.01,1524.66
3805.46,1549.2
3806.91,1525.74
3808.36,1538.46
3809.82,1517.71
3811.27,1505.06
3812.72,1518.48
3814.17,1538.76
3815.62,1539.95
3817.07,1544.93
3818.53,1533.13
3819.98,1531.63
3821.43,1536.02
3822.88,1530.79
3824.33,1558.82
3825.79,1551.74
3827.24,1529.48
3828.69,1530.83
3830.14,1503.45
3831.59,1539.17
3833.04,1532.51
3834.5,1530.76
3835.95,1512.53
3837.4,1511.12
3838.85,1557.01
3840.3,1518.26
3841.76,1538.35
3843.21,1536.28
3844.66,1534.22
3846.11,1534.33
3847.56,1521.82
3849.01,1563.12
3850.47,1560.63
3851.92,1562.54
3853.37,1547.56
3854.82,1579.54
3856.27,1566.36
3857.72,1572.01
3859.18,1546.21
3860.63,1560.85
3862.08,1547.44
3863.53,1567.78
3864.98,1603.51
3866.44,1573.5
3867.89,1570.53
3869.34,1555.18
3870.79,1542.36
3872.24,1577.59
3873.69,1586.11
3875.15,1566.46
3876.6,1573.4
3878.05,1573.3
3879.5,1578.58
3880.95,1606.93
3882.41,1585.97
3883.86,1567.02
3885.31,1566.49
3886.76,1593.47
3888.21,1578.99
3889.66,1583.12
3891.12,1588.3
3892.57,1551.59
3894.02,1598.11
3895.47,1589.06
3896.92,1619.07
3898.37,1579.47
3899.83,1577.21
3901.28,1600.17
3902.73,1595.69
3904.18,1603.52
3905.63,1630.06
3907.09,1572.48
3908.54,1616.76
3909.99,1621.31
3911.44,1625.56
3912.89,1654.05
3914.34,1627.45
3915.8,1621.46
3917.25,1655.59
3918.7,1633.05
3920.15,1601.05
3921.6,1641.09
3923.06,1598.81
3924.51,1595.57
3925.96,1623.14
3927.41,1653.5
3928.86,1640.17
3930.31,1656.79
3931.77,1665.28
3933.22,1666.14
3934.67,1667.77
3936.12,1667.97
3937.57,1654.5
3939.02,1619.19
3940.48,1666.9
3941.93,1706.11
3943.38,1705.95
3944.83,1667.27
3946.28,1693.42
3947.74,1709.95
3949.19,1725.04
3950.64,1705.04
3952.09,1711.21
3953.54,1672.54
3954.99,1708.49
3956.45,1701.8
3957.9,1693.42
3959.35,1721.32
3960.8,1702.23
3962.25,1721.31
3963.71,1707.84
3965.16,1699.26
3966.61,1714.54
3968.06,1722.15
3969.51,1722.2
3970.96,1749.45
3972.42,1729.3
3973.87,1731.3
3975.32,1749.63
3976.77,1750.52
3978.22,1734.64
3979.68,1761.91
3981.13,1749.47
3982.58,1760.37
3984.03,1777.22
3985.48,1782.52
3986.93,1750.92
3988.39,1780.76
3989.84,1784.47
3991.29,1760.1
3992.74,1781.91
3994.19,1765.08
3995.64,1771.65
3997.1,1793.67
3998.55,1785.88
4000,1789.52
