0,41267.3
1.77681,39256.7
3.2286,25286.1
4.68039,7536.25
6.13218,1544.98
7.58397,536.109
9.03575,452.336
10.4875,442.649
11.9393,441.928
13.3911,441.389
14.8429,439.673
16.2947,437.649
17.7465,434.517
19.1983,428.792
20.6501,423.873
22.1018,418.316
23.5536,414.243
25.0054,411.352
26.4572,405.229
27.909,397.967
29.3608,391.98
30.8126,383.026
32.2644,381.439
33.7161,380.372
35.1679,379.402
36.6197,379.403
38.0715,376.79
39.5233,376.731
40.9751,379.293
42.4269,382.246
43.8787,382.565
45.3304,389.06
46.7822,402.563
48.234,423.493
49.6858,466.119
51.1376,550.559
52.5894,714.973
54.0412,941.117
55.493,1220.18
56.9447,1521.53
58.3965,1864.48
59.8483,2141.25
61.3001,2389.39
62.7519,2579.78
64.2037,2714.59
65.6555,2762.58
67.1073,2838.33
68.559,2893.92
70.0108,2921.7
71.4626,2941.42
72.9144,2953.33
74.3662,2974.2
75.818,3021.56
77.2698,3053.07
78.7216,3112.03
80.1733,3205.5
81.6251,3258.7
83.0769,3323.15
84.5287,3364.12
85.9805,3346.83
87.4323,3273.73
88.8841,3172.42
90.3359,3050.68
91.7877,2910.53
93.2394,2767.55
94.6912,2646.53
96.143,2520.95
97.5948,2414.8
99.0466,2355.47
100.498,2329.61
101.95,2274.52
103.402,2220.38
104.854,2196.39
106.306,2183.53
107.757,2154.5
109.209,2117.56
110.661,2074.78
112.113,2052.74
113.564,2051.29
115.016,2022.14
116.468,1981.47
117.92,1958.49
119.372,1944.94
120.823,1899.7
122.275,1913.36
123.727,1881.39
125.179,1833.75
126.631,1810.71
128.082,1809.01
129.534,1770.34
130.986,1745.4
132.438,1729.87
133.889,1706.1
135.341,1680.36
136.793,1649.04
138.245,1630.05
139.697,1630.08
141.148,1633.48
142.6,1619.36
144.052,1620.1
145.504,1615.98
146.956,1605.05
148.407,1579.89
149.859,1553.33
151.311,1532.01
152.763,1535.7
154.215,1536.37
155.666,1525.19
157.118,1472.83
158.57,1449.44
160.022,1446.93
161.473,1445.64
162.925,1425.96
164.377,1433.15
165.829,1437.01
167.281,1425.51
168.732,1406.21
170.184,1419.3
171.636,1395.83
173.088,1368.19
174.54,1359.88
175.991,1363.22
177.443,1313.15
178.895,1321.07
180.347,1321.06
181.798,1310.74
183.25,1285.34
184.702,1301.65
186.154,1295.8
187.606,1287.23
189.057,1271.39
190.509,1255.93
191.961,1241.8
193.413,1250.75
194.865,1269
196.316,1270.15
197.768,1254.4
199.22,1250.15
200.672,1251.3
202.124,1258.78
203.575,1248.91
205.027,1221.4
206.479,1218.57
207.931,1226.43
209.382,1223.48
210.834,1225.32
212.286,1245.09
213.738,1235.2
215.19,1224.48
216.641,1235.34
218.093,1251.36
219.545,1260.23
220.997,1260.3
222.449,1217.7
223.9,1228.62
225.352,1240.49
226.804,1236.83
228.256,1209.92
229.707,1214
231.159,1227.11
232.611,1227.59
234.063,1233.93
235.515,1231.97
236.966,1239.3
238.418,1236.86
239.87,1232.48
241.322,1228.79
242.774,1220.33
244.225,1217.8
245.677,1218.45
247.129,1222.57
248.581,1212.47
250.033,1192.33
251.484,1203.64
252.936,1181.75
254.388,1169.44
255.84,1178.69
257.291,1193.28
258.743,1177.68
260.195,1174.13
261.647,1171.89
263.099,1175.38
264.55,1175.61
266.002,1160.19
267.454,1166.96
268.906,1174.47
270.358,1176.96
271.809,1165.25
273.261,1145.71
274.713,1153.55
276.165,1153.65
277.616,1148.05
279.068,1139.71
280.52,1137.91
281.972,1131.26
283.424,1109.68
284.875,1097.57
286.327,1103.07
287.779,1107.52
289.231,1107.44
290.683,1111.98
292.134,1107.3
293.586,1088.61
295.038,1067.52
296.49,1084.31
297.941,1083.25
299.393,1077.89
300.845,1074.58
302.297,1070.38
303.749,1067.82
305.2,1055.04
306.652,1055.18
308.104,1051.29
309.556,1034.81
311.008,1045.53
312.459,1060.58
313.911,1042.84
315.363,1036.19
316.815,1044
318.267,1015.49
319.718,1036.5
321.17,1032.9
322.622,1035.05
324.074,1038.43
325.525,1028.46
326.977,1038.09
328.429,1038.86
329.881,1012.51
331.333,994.203
332.784,1013.03
334.236,1006.05
335.688,989.84
337.14,1009.19
338.592,1016.46
340.043,1002.43
341.495,997.21
342.947,1008.66
344.399,1004.8
345.85,995.876
347.302,995.586
348.754,1003.25
350.206,996.912
351.658,989.639
353.109,989.85
354.561,994.394
356.013,993.316
357.465,971.104
358.917,974.454
360.368,977.061
361.82,976.642
363.272,979.455
364.724,987.243
366.176,975.178
367.627,965.963
369.079,967.498
370.531,978.352
371.983,982.054
373.434,964.686
374.886,967.769
376.338,971.641
377.79,972.148
379.242,967.729
380.693,972.756
382.145,949.41
383.597,960.272
385.049,974.099
386.501,983.646
387.952,986.281
389.404,976.951
390.856,966.691
392.308,967.475
393.759,971.512
395.211,972.654
396.663,959.412
398.115,978.716
399.567,971.251
401.018,960.9
402.47,956.508
403.922,967.549
405.374,967.174
406.826,969.679
408.277,968.532
409.729,966.454
411.181,968.198
412.633,979.744
414.085,970.411
415.536,959.132
416.988,962.494
418.44,970.921
419.892,968.052
421.343,989.092
422.795,965.671
424.247,956.681
425.699,958.353
427.151,960.823
428.602,955.823
430.054,946.195
431.506,967.605
432.958,971.101
434.41,964.533
435.861,968.747
437.313,948.329
438.765,947.63
440.217,972.845
441.668,984.159
443.12,971.265
444.572,941.099
446.024,963.494
447.476,952.759
448.927,949.542
450.379,950.409
451.831,951.708
453.283,957.151
454.735,938.247
456.186,944.65
457.638,953.732
459.09,960.591
460.542,962.685
461.993,960.866
463.445,960.413
464.897,949.292
466.349,950.618
467.801,955.409
469.252,939.131
470.704,941.291
472.156,950.95
473.608,960.73
475.06,957.938
476.511,940.369
477.963,935.853
479.415,949.569
480.867,957.316
482.319,952.981
483.77,939.47
485.222,929.666
486.674,948.622
488.126,959.311
489.577,948.063
491.029,942.039
492.481,940.702
493.933,924.582
495.385,926.858
496.836,926.908
498.288,936.883
499.74,936.63
501.192,927.038
502.644,922.446
504.095,928.423
505.547,934.5
506.999,939.473
508.451,938.102
509.902,928.517
511.354,940.167
512.806,926.207
514.258,928.775
515.71,933.15
517.161,935.893
518.613,927.777
520.065,908.407
521.517,932.735
522.969,932.524
524.42,921.024
525.872,910.915
527.324,919.77
528.776,921.045
530.228,930.212
531.679,941.845
533.131,932.396
534.583,920.47
536.035,925.155
537.486,945.907
538.938,939.533
540.39,924.569
541.842,922.374
543.294,927.968
544.745,933.711
546.197,932.983
547.649,928.661
549.101,921.508
550.553,933.233
552.004,941.776
553.456,927.335
554.908,929.471
556.36,918.494
557.811,919.69
559.263,922.852
560.715,931.432
562.167,934.231
563.619,954.13
565.07,936.767
566.522,933.918
567.974,937.243
569.426,928.774
570.878,917.157
572.329,928.619
573.781,915.506
575.233,926.324
576.685,934.627
578.137,934.165
579.588,920.178
581.04,912.555
582.492,924.143
583.944,918.336
585.395,919.764
586.847,924.59
588.299,923.027
589.751,919.585
591.203,918.465
592.654,912.918
594.106,920.651
595.558,931.3
597.01,926.28
598.462,915.415
599.913,925.799
601.365,909.559
602.817,907.86
604.269,922.659
605.72,921.21
607.172,934.835
608.624,938.653
610.076,940.183
611.528,929.256
612.979,917.856
614.431,920.262
615.883,910.574
617.335,917.001
618.787,924.719
620.238,937.72
621.69,934.045
623.142,913.131
624.594,930.097
626.046,927.685
627.497,935.144
628.949,930.278
630.401,933.783
631.853,938.984
633.304,919.194
634.756,913.273
636.208,928.504
637.66,931.937
639.112,934.093
640.563,938.773
642.015,935.549
643.467,928.219
644.919,932.17
646.371,943.247
647.822,947.584
649.274,945.834
650.726,944.989
652.178,954.09
653.629,930.626
655.081,932.681
656.533,944.263
657.985,950.557
659.437,949.126
660.888,957.379
662.34,945.788
663.792,937.421
665.244,943.86
666.696,944.176
668.147,943.424
669.599,964.437
671.051,968.204
672.503,947.964
673.954,946.874
675.406,945.964
676.858,939.97
678.31,952.778
679.762,969.476
681.213,956.705
682.665,943.687
684.117,941.995
685.569,953.279
687.021,973.338
688.472,973.372
689.924,961.523
691.376,955.981
692.828,961.335
694.28,968.612
695.731,960.495
697.183,959.409
698.635,945.479
700.087,946.578
701.538,949.754
702.99,951.336
704.442,948.006
705.894,954.03
707.346,971.149
708.797,976.509
710.249,961.253
711.701,964.669
713.153,964.982
714.605,952.901
716.056,955.948
717.508,957.217
718.96,972.233
720.412,962.629
721.863,955.821
723.315,959.217
724.767,963.853
726.219,964.19
727.671,965.237
729.122,947.96
730.574,946.314
732.026,952.132
733.478,967.192
734.93,976.961
736.381,970.27
737.833,952.358
739.285,958.955
740.737,960.74
742.189,963.18
743.64,969.565
745.092,965.736
746.544,964.176
747.996,973.13
749.447,962.826
750.899,972.012
752.351,973.25
753.803,956.549
755.255,965.901
756.706,957.217
758.158,956.324
759.61,975.064
761.062,981.286
762.514,983.212
763.965,976.867
765.417,964.539
766.869,965.624
768.321,974.551
769.772,971.832
771.224,975.893
772.676,979.852
774.128,963.741
775.58,968.06
777.031,958.043
778.483,969.975
779.935,959.863
781.387,956.485
782.839,966.079
784.29,971.969
785.742,978.194
787.194,992.143
788.646,982.024
790.098,986.357
791.549,988.501
793.001,983.55
794.453,991.551
795.905,983.079
797.356,967.004
798.808,968.758
800.26,962.918
801.712,970.602
803.164,988.341
804.615,989.655
806.067,996.615
807.519,978.989
808.971,984.55
810.423,983.834
811.874,984.306
813.326,978.465
814.778,989.544
816.23,991.365
817.681,991.571
819.133,981.431
820.585,993.733
822.037,995.258
823.489,987.317
824.94,983.21
826.392,997.155
827.844,1004.41
829.296,1008.96
830.748,1011.34
832.199,1013.37
833.651,1002.86
835.103,1005.1
836.555,1007.13
838.007,1006.48
839.458,1001.83
840.91,1007.66
842.362,1012.73
843.814,1017.02
845.265,1001.99
846.717,999.194
848.169,1021.66
849.621,1039.98
851.073,1042.89
852.524,1035.51
853.976,1033.36
855.428,1027.77
856.88,1031.08
858.332,1027.93
859.783,1035.36
861.235,1037.21
862.687,1030.06
864.139,1023.7
865.59,1020.08
867.042,1023.4
868.494,1015.44
869.946,1014.72
871.398,1028.73
872.849,1021.76
874.301,1001.37
875.753,1008.47
877.205,1012.85
878.657,1023.37
880.108,1018.32
881.56,1020.02
883.012,1020.87
884.464,1024.65
885.915,1026.39
887.367,1028.7
888.819,1024.05
890.271,1043.23
891.723,1034.77
893.174,1049.84
894.626,1045.46
896.078,1033.92
897.53,1040.09
898.982,1041.4
900.433,1036.88
901.885,1050.43
903.337,1028.44
904.789,1035.7
906.241,1053
907.692,1055.36
909.144,1041.37
910.596,1037.98
912.048,1053.09
913.499,1053.46
914.951,1055.67
916.403,1055.74
917.855,1054.48
919.307,1061.89
920.758,1064.5
922.21,1061.98
923.662,1068.8
925.114,1071.58
926.566,1070.92
928.017,1062.53
929.469,1057.21
930.921,1067.38
932.373,1067.54
933.824,1066.63
935.276,1065.93
936.728,1089.96
938.18,1082.47
939.632,1070.84
941.083,1078.88
942.535,1050.17
943.987,1074.83
945.439,1079.75
946.891,1066.84
948.342,1066.24
949.794,1066.08
951.246,1068.04
952.698,1072.6
954.15,1067.17
955.601,1073.05
957.053,1076.43
958.505,1070.17
959.957,1081.19
961.408,1076.29
962.86,1058.54
964.312,1061.91
965.764,1090.11
967.216,1068.51
968.667,1072.15
970.119,1079.22
971.571,1078.23
973.023,1068
974.475,1067.13
975.926,1084.22
977.378,1083.61
978.83,1072.02
980.282,1077
981.733,1073.98
983.185,1083.88
984.637,1093.45
986.089,1084.09
987.541,1085.72
988.992,1080.05
990.444,1084.24
991.896,1091.75
993.348,1078.37
994.8,1084.27
996.251,1106.68
997.703,1106.25
999.155,1092.76
1000.61,1110.74
1002.06,1109.38
1003.51,1112.3
1004.96,1106.52
1006.41,1110.65
1007.87,1109.31
1009.32,1126.81
1010.77,1130.5
1012.22,1114.72
1013.67,1140.33
1015.12,1118.61
1016.58,1130.62
1018.03,1136.7
1019.48,1140.15
1020.93,1142.4
1022.38,1133.55
1023.84,1142.86
1025.29,1164.58
1026.74,1176.83
1028.19,1173.17
1029.64,1175.57
1031.09,1192.75
1032.55,1198.4
1034,1185.84
1035.45,1195.33
1036.9,1207.57
1038.35,1202.97
1039.8,1203.53
1041.26,1210.35
1042.71,1217.67
1044.16,1239.79
1045.61,1243.94
1047.06,1225.57
1048.52,1232.33
1049.97,1259.05
1051.42,1244.16
1052.87,1257.06
1054.32,1272.95
1055.77,1255.13
1057.23,1256.27
1058.68,1291.77
1060.13,1281.16
1061.58,1309.6
1063.03,1304.04
1064.49,1309.73
1065.94,1328.11
1067.39,1340.44
1068.84,1333.33
1070.29,1342.76
1071.74,1356.56
1073.2,1352.33
1074.65,1376.57
1076.1,1371.23
1077.55,1402.26
1079,1398.24
1080.46,1391.93
1081.91,1401.8
1083.36,1412.92
1084.81,1391.82
1086.26,1421.19
1087.71,1416.61
1089.17,1395.62
1090.62,1401.98
1092.07,1408.47
1093.52,1383.98
1094.97,1370.15
1096.42,1415.19
1097.88,1419.12
1099.33,1382.63
1100.78,1387.12
1102.23,1387.96
1103.68,1383.79
1105.14,1387.92
1106.59,1380.27
1108.04,1365.37
1109.49,1357.33
1110.94,1380.92
1112.39,1373.26
1113.85,1367.37
1115.3,1348.23
1116.75,1341.12
1118.2,1338.11
1119.65,1335.44
1121.11,1343.95
1122.56,1330.27
1124.01,1336.54
1125.46,1302.67
1126.91,1320.51
1128.36,1302.29
1129.82,1298.83
1131.27,1308.24
1132.72,1316.54
1134.17,1315.88
1135.62,1304.73
1137.07,1301.8
1138.53,1296.58
1139.98,1298.91
1141.43,1296.84
1142.88,1283.56
1144.33,1294.38
1145.79,1305.59
1147.24,1286.03
1148.69,1269.09
1150.14,1294.79
1151.59,1298.05
1153.04,1304.18
1154.5,1295.66
1155.95,1294.48
1157.4,1294.98
1158.85,1289.05
1160.3,1293.93
1161.76,1304.68
1163.21,1290.43
1164.66,1296.26
1166.11,1299.01
1167.56,1287.64
1169.01,1284.91
1170.47,1296.1
1171.92,1307.61
1173.37,1300.38
1174.82,1303.18
1176.27,1296.01
1177.72,1307.22
1179.18,1315.61
1180.63,1329.6
1182.08,1323.13
1183.53,1308.99
1184.98,1308.06
1186.44,1308.76
1187.89,1311.89
1189.34,1323.28
1190.79,1311.3
1192.24,1331.04
1193.69,1311.04
1195.15,1322.63
1196.6,1328.8
1198.05,1336.32
1199.5,1337.63
1200.95,1342.5
1202.41,1352.61
1203.86,1341.01
1205.31,1353.17
1206.76,1363.86
1208.21,1360.04
1209.66,1349.06
1211.12,1343.55
1212.57,1350.52
1214.02,1356.74
1215.47,1356.6
1216.92,1348.51
1218.37,1373.62
1219.83,1375.56
1221.28,1369.8
1222.73,1383.42
1224.18,1375.03
1225.63,1357.4
1227.09,1353.22
1228.54,1379.31
1229.99,1394.69
1231.44,1368.51
1232.89,1362.67
1234.34,1398.84
1235.8,1393.17
1237.25,1389.38
1238.7,1403.05
1240.15,1410.23
1241.6,1404.25
1243.06,1405.94
1244.51,1424.52
1245.96,1422.75
1247.41,1442.11
1248.86,1457.37
1250.31,1447.95
1251.77,1432.97
1253.22,1446.91
1254.67,1458.66
1256.12,1470.98
1257.57,1496.26
1259.02,1505.69
1260.48,1507.7
1261.93,1524.97
1263.38,1504.04
1264.83,1545.21
1266.28,1542.68
1267.74,1538.33
1269.19,1558.38
1270.64,1582.38
1272.09,1596.43
1273.54,1613.22
1274.99,1623.2
1276.45,1638.08
1277.9,1653.26
1279.35,1694.51
1280.8,1665.25
1282.25,1701.52
1283.71,1733.65
1285.16,1758.84
1286.61,1779.1
1288.06,1799.74
1289.51,1842.17
1290.96,1894.41
1292.42,1888.29
1293.87,1943.57
1295.32,1985.18
1296.77,2016.23
1298.22,2078.51
1299.67,2143.53
1301.13,2200.83
1302.58,2243.83
1304.03,2285.17
1305.48,2352.67
1306.93,2439.65
1308.39,2502.65
1309.84,2618.6
1311.29,2704.44
1312.74,2790.01
1314.19,2911.64
1315.64,3032.26
1317.1,3134.67
1318.55,3253.86
1320,3385.75
1321.45,3492.43
1322.9,3619.24
1324.36,3756.16
1325.81,3895.34
1327.26,4045.34
1328.71,4109.43
1330.16,4177.84
1331.61,4286.97
1333.07,4366.11
1334.52,4411.34
1335.97,4481.93
1337.42,4459.52
1338.87,4435.48
1340.33,4371.31
1341.78,4336.42
1343.23,4223.92
1344.68,4099.33
1346.13,4006.07
1347.58,3899.7
1349.04,3770.92
1350.49,3628.75
1351.94,3468.69
1353.39,3358.52
1354.84,3250.54
1356.29,3070.47
1357.75,2978.14
1359.2,2868.71
1360.65,2778.23
1362.1,2668.8
1363.55,2565.47
1365.01,2508.72
1366.46,2431.01
1367.91,2328.92
1369.36,2285.83
1370.81,2218.39
1372.26,2155.58
1373.72,2147.54
1375.17,2101.99
1376.62,2072.88
1378.07,2023.9
1379.52,1980.41
1380.98,1951.55
1382.43,1920.83
1383.88,1910.6
1385.33,1886.16
1386.78,1855.51
1388.23,1855.46
1389.69,1825.44
1391.14,1802.76
1392.59,1805.13
1394.04,1803.24
1395.49,1772.34
1396.94,1751.81
1398.4,1743.47
1399.85,1740.23
1401.3,1738.1
1402.75,1731.63
1404.2,1736.28
1405.66,1737.99
1407.11,1715.94
1408.56,1725.93
1410.01,1711.75
1411.46,1726.58
1412.91,1737.1
1414.37,1711.45
1415.82,1716.62
1417.27,1723.62
1418.72,1732.27
1420.17,1731.77
1421.63,1732.26
1423.08,1738.56
1424.53,1737.48
1425.98,1729.38
1427.43,1767.57
1428.88,1732.34
1430.34,1756.35
1431.79,1754.74
1433.24,1764.05
1434.69,1759.7
1436.14,1774.66
1437.59,1798.87
1439.05,1795.17
1440.5,1809.52
1441.95,1798.93
1443.4,1800
1444.85,1798.99
1446.31,1814.23
1447.76,1813.08
1449.21,1818.26
1450.66,1840.46
1452.11,1866.29
1453.56,1881.35
1455.02,1890.36
1456.47,1884.18
1457.92,1882.71
1459.37,1917.54
1460.82,1943.72
1462.28,1953.96
1463.73,1946.41
1465.18,1994.58
1466.63,1970.32
1468.08,2007.31
1469.53,2025.98
1470.99,2027.81
1472.44,2041.17
1473.89,2061.95
1475.34,2096.64
1476.79,2149.14
1478.24,2159.71
1479.7,2165.46
1481.15,2211.44
1482.6,2236.48
1484.05,2267.88
1485.5,2314.92
1486.96,2335.67
1488.41,2367.66
1489.86,2400.17
1491.31,2438.59
1492.76,2463.91
1494.21,2479.1
1495.67,2556.44
1497.12,2653.09
1498.57,2678.71
1500.02,2704.62
1501.47,2768.97
1502.93,2849.53
1504.38,2849.73
1505.83,2968.65
1507.28,3012.06
1508.73,3119.53
1510.18,3218.27
1511.64,3312.34
1513.09,3423.56
1514.54,3510.53
1515.99,3650.15
1517.44,3825.04
1518.89,3971.52
1520.35,4091.28
1521.8,4234.87
1523.25,4443.13
1524.7,4662.14
1526.15,4997.02
1527.61,5227.01
1529.06,5585.96
1530.51,5924.62
1531.96,6332.43
1533.41,6801.91
1534.86,7285.29
1536.32,7841.66
1537.77,8509.7
1539.22,9232.59
1540.67,10015.6
1542.12,10817.8
1543.58,11870.7
1545.03,12937.7
1546.48,14138.3
1547.93,15297
1549.38,16528
1550.83,17799.7
1552.29,19193.8
1553.74,20538.6
1555.19,21853.3
1556.64,23238.4
1558.09,24520.6
1559.54,25683.5
1561,26719.7
1562.45,27557.6
1563.9,28079.5
1565.35,28442.3
1566.8,28511.5
1568.26,28320.3
1569.71,27596.8
1571.16,26710.2
1572.61,25642.5
1574.06,24358.4
1575.51,22986.2
1576.97,21526.2
1578.42,20061.2
1579.87,18662.2
1581.32,17269.3
1582.77,15955.7
1584.23,14738.4
1585.68,13556.8
1587.13,12573.1
1588.58,11543.2
1590.03,10625.2
1591.48,9818.85
1592.94,9039.02
1594.39,8479.83
1595.84,7982.72
1597.29,7456.2
1598.74,7099.07
1600.2,6744.24
1601.65,6391.16
1603.1,6062.51
1604.55,5785.52
1606,5511.72
1607.45,5249.83
1608.91,5031.99
1610.36,4827.54
1611.81,4619.93
1613.26,4363.81
1614.71,4170.97
1616.16,3992.45
1617.62,3810.27
1619.07,3662.32
1620.52,3479.46
1621.97,3384.33
1623.42,3264.39
1624.88,3132.28
1626.33,3047.58
1627.78,2941.56
1629.23,2851.47
1630.68,2767.87
1632.13,2664.59
1633.59,2617.3
1635.04,2594.24
1636.49,2549.73
1637.94,2470.75
1639.39,2393.29
1640.85,2370.22
1642.3,2325.03
1643.75,2285.8
1645.2,2242.9
1646.65,2234.29
1648.1,2212.64
1649.56,2185.38
1651.01,2129.35
1652.46,2103.39
1653.91,2075.08
1655.36,2049.89
1656.81,2046.21
1658.27,1998.27
1659.72,1956.15
1661.17,1948.57
1662.62,1930.8
1664.07,1901.18
1665.53,1895.17
1666.98,1895.01
1668.43,1855.04
1669.88,1812.48
1671.33,1804.34
1672.78,1799.76
1674.24,1759.42
1675.69,1731.89
1677.14,1744.4
1678.59,1745.63
1680.04,1722.32
1681.5,1700.58
1682.95,1698.93
1684.4,1703.11
1685.85,1692.2
1687.3,1678.56
1688.75,1662.05
1690.21,1645.38
1691.66,1635.29
1693.11,1601.62
1694.56,1617.91
1696.01,1622.65
1697.46,1601.9
1698.92,1593.97
1700.37,1578.75
1701.82,1572.19
1703.27,1569.99
1704.72,1579.93
1706.18,1580.34
1707.63,1572.09
1709.08,1557.24
1710.53,1563.77
1711.98,1558.12
1713.43,1530.89
1714.89,1539.27
1716.34,1538.47
1717.79,1539.77
1719.24,1524.99
1720.69,1537.6
1722.15,1564.53
1723.6,1537.82
1725.05,1552.62
1726.5,1536.71
1727.95,1517.23
1729.4,1529.69
1730.86,1529.47
1732.31,1545.54
1733.76,1556.44
1735.21,1515.8
1736.66,1504.58
1738.11,1518.38
1739.57,1511.22
1741.02,1493.75
1742.47,1499.82
1743.92,1504.93
1745.37,1484.74
1746.83,1473.71
1748.28,1476.01
1749.73,1485.73
1751.18,1491.69
1752.63,1478.13
1754.08,1456.4
1755.54,1479.7
1756.99,1482.59
1758.44,1465
1759.89,1433.79
1761.34,1452.29
1762.8,1441.99
1764.25,1434.56
1765.7,1427.28
1767.15,1437.57
1768.6,1442.11
1770.05,1439.1
1771.51,1427.2
1772.96,1398.31
1774.41,1396.04
1775.86,1404.12
1777.31,1406.74
1778.76,1390.94
1780.22,1375.98
1781.67,1394.04
1783.12,1404.9
1784.57,1396.05
1786.02,1367.86
1787.48,1370.7
1788.93,1391.22
1790.38,1371.14
1791.83,1358.63
1793.28,1384.24
1794.73,1411.95
1796.19,1362.78
1797.64,1343.81
1799.09,1361.82
1800.54,1354.98
1801.99,1354.14
1803.45,1364.62
1804.9,1365.75
1806.35,1364.1
1807.8,1368.32
1809.25,1360.38
1810.7,1347.93
1812.16,1341.78
1813.61,1341.63
1815.06,1342.67
1816.51,1336.34
1817.96,1347.28
1819.41,1353.71
1820.87,1344.31
1822.32,1333.36
1823.77,1346.65
1825.22,1352.25
1826.67,1370.36
1828.13,1337.27
1829.58,1362.16
1831.03,1352.81
1832.48,1344.74
1833.93,1340.26
1835.38,1325.41
1836.84,1374.84
1838.29,1364.59
1839.74,1385.36
1841.19,1391.1
1842.64,1384.89
1844.1,1392.84
1845.55,1387.62
1847,1391.83
1848.45,1388.07
1849.9,1380.14
1851.35,1395.54
1852.81,1418.66
1854.26,1420.25
1855.71,1414.54
1857.16,1429.78
1858.61,1433.47
1860.07,1413.1
1861.52,1403.82
1862.97,1402.08
1864.42,1413.97
1865.87,1419.09
1867.32,1447.84
1868.78,1429.65
1870.23,1402.93
1871.68,1392.38
1873.13,1408.66
1874.58,1382.49
1876.03,1377.16
1877.49,1410.05
1878.94,1389.77
1880.39,1364.92
1881.84,1369.85
1883.29,1380.72
1884.75,1377.85
1886.2,1376.1
1887.65,1352.86
1889.1,1340.02
1890.55,1349.91
1892,1353.19
1893.46,1334.95
1894.91,1337.99
1896.36,1341.97
1897.81,1326.55
1899.26,1321.29
1900.72,1315.14
1902.17,1313.68
1903.62,1309.52
1905.07,1316.09
1906.52,1298.26
1907.97,1295.98
1909.43,1310.37
1910.88,1300.55
1912.33,1303.04
1913.78,1292.28
1915.23,1302.42
1916.68,1302.6
1918.14,1282.15
1919.59,1290.85
1921.04,1263.17
1922.49,1288.71
1923.94,1284.54
1925.4,1290.4
1926.85,1293.5
1928.3,1277.8
1929.75,1252.53
1931.2,1284.95
1932.65,1295.7
1934.11,1288.98
1935.56,1293.31
1937.01,1271.64
1938.46,1287.83
1939.91,1285.68
1941.37,1295.29
1942.82,1295.54
1944.27,1297.05
1945.72,1315.09
1947.17,1297.92
1948.62,1296.69
1950.08,1285.36
1951.53,1291.87
1952.98,1295.29
1954.43,1296.36
1955.88,1284.7
1957.33,1307.09
1958.79,1315.8
1960.24,1287.66
1961.69,1275.73
1963.14,1296.37
1964.59,1293.65
1966.05,1307.1
1967.5,1310.78
1968.95,1309.33
1970.4,1322.04
1971.85,1321.79
1973.3,1318.38
1974.76,1330.39
1976.21,1325.65
1977.66,1321.43
1979.11,1322.73
1980.56,1314.87
1982.02,1327.23
1983.47,1316.71
1984.92,1311.67
1986.37,1324.43
1987.82,1338.78
1989.27,1335.43
1990.73,1330.01
1992.18,1327.81
1993.63,1329.76
1995.08,1332.75
1996.53,1349.01
1997.98,1315.51
1999.44,1315.35
2000.89,1358.15
2002.34,1318.07
2003.79,1331.91
2005.24,1324.93
2006.7,1349.04
2008.15,1325.34
2009.6,1340.85
2011.05,1336.8
2012.5,1333.73
2013.95,1342.94
2015.41,1320.08
2016.86,1302.7
2018.31,1302.43
2019.76,1298.61
2021.21,1294.1
2022.67,1285.85
2024.12,1276.62
2025.57,1305.23
2027.02,1297.15
2028.47,1303.97
2029.92,1266.73
2031.38,1283.91
2032.83,1289.67
2034.28,1286.73
2035.73,1263.81
2037.18,1272.25
2038.63,1260.71
2040.09,1258.12
2041.54,1235.26
2042.99,1256.31
2044.44,1262.37
2045.89,1249.31
2047.35,1239.35
2048.8,1249.06
2050.25,1243.1
2051.7,1244.36
2053.15,1256.58
2054.6,1245
2056.06,1220.46
2057.51,1235.71
2058.96,1231.15
2060.41,1221.79
2061.86,1226.71
2063.32,1233.68
2064.77,1224.63
2066.22,1215.2
2067.67,1216.31
2069.12,1229.52
2070.57,1209.74
2072.03,1226.08
2073.48,1222.82
2074.93,1213.09
2076.38,1207.15
2077.83,1222.18
2079.28,1224.27
2080.74,1211.76
2082.19,1207.41
2083.64,1222.42
2085.09,1235.44
2086.54,1226.81
2088,1216.24
2089.45,1210.63
2090.9,1195.25
2092.35,1191.69
2093.8,1199.47
2095.25,1204.97
2096.71,1195.29
2098.16,1217.7
2099.61,1227.24
2101.06,1230.96
2102.51,1229.39
2103.97,1224.82
2105.42,1205.18
2106.87,1201.46
2108.32,1199.41
2109.77,1191.92
2111.22,1193.89
2112.68,1191.84
2114.13,1197.36
2115.58,1191.98
2117.03,1197.93
2118.48,1213
2119.94,1207.03
2121.39,1224.73
2122.84,1212.48
2124.29,1218.92
2125.74,1224.63
2127.19,1227.42
2128.65,1248.62
2130.1,1220.31
2131.55,1214.08
2133,1224.54
2134.45,1219.33
2135.9,1218.45
2137.36,1228.05
2138.81,1215.92
2140.26,1211
2141.71,1196.57
2143.16,1224.97
2144.62,1227.67
2146.07,1221.45
2147.52,1217.24
2148.97,1220.48
2150.42,1234.68
2151.87,1219.95
2153.33,1248.46
2154.78,1241.96
2156.23,1234.04
2157.68,1227.93
2159.13,1236.62
2160.58,1245.64
2162.04,1239.73
2163.49,1269.57
2164.94,1264.38
2166.39,1241.59
2167.84,1247.27
2169.3,1245.94
2170.75,1253.27
2172.2,1255.32
2173.65,1253.27
2175.1,1265.64
2176.55,1275.65
2178.01,1272.7
2179.46,1253.59
2180.91,1269.74
2182.36,1275.12
2183.81,1286.39
2185.27,1280.23
2186.72,1292.43
2188.17,1300.06
2189.62,1281.13
2191.07,1282.13
2192.52,1289.63
2193.98,1289.08
2195.43,1276.74
2196.88,1288.1
2198.33,1287.49
2199.78,1272.67
2201.24,1274.67
2202.69,1288.41
2204.14,1300.25
2205.59,1264.96
2207.04,1301.09
2208.49,1291.82
2209.95,1289.56
2211.4,1310.26
2212.85,1292.9
2214.3,1287.48
2215.75,1272.82
2217.2,1290.72
2218.66,1291.93
2220.11,1310.26
2221.56,1305.97
2223.01,1293.52
2224.46,1306.03
2225.92,1312.92
2227.37,1311.61
2228.82,1276.16
2230.27,1317.89
2231.72,1282.55
2233.17,1282.97
2234.63,1311.02
2236.08,1312.23
2237.53,1306.89
2238.98,1299.18
2240.43,1331.99
2241.89,1309.88
2243.34,1322.7
2244.79,1307.32
2246.24,1328.39
2247.69,1324.9
2249.14,1324.53
2250.6,1317.29
2252.05,1321.06
2253.5,1308.21
2254.95,1319.59
2256.4,1322.78
2257.85,1344.43
2259.31,1344.82
2260.76,1341.74
2262.21,1332.87
2263.66,1347.84
2265.11,1350.79
2266.57,1345.01
2268.02,1346.2
2269.47,1369.72
2270.92,1363.66
2272.37,1351.51
2273.82,1361.33
2275.28,1367.19
2276.73,1364.75
2278.18,1350.69
2279.63,1368.78
2281.08,1376.41
2282.54,1366.07
2283.99,1380.44
2285.44,1382.91
2286.89,1387.09
2288.34,1386.4
2289.79,1367.19
2291.25,1392.04
2292.7,1399.69
2294.15,1389.57
2295.6,1399.35
2297.05,1421.81
2298.5,1420.98
2299.96,1377.37
2301.41,1392.59
2302.86,1409.83
2304.31,1422.21
2305.76,1427.58
2307.22,1406.21
2308.67,1424.39
2310.12,1413.85
2311.57,1438.08
2313.02,1441.19
2314.47,1444.64
2315.93,1444.13
2317.38,1444.01
2318.83,1437
2320.28,1443.92
2321.73,1438.03
2323.19,1454.04
2324.64,1456.17
2326.09,1455.03
2327.54,1464.31
2328.99,1475.42
2330.44,1476.14
2331.9,1481.61
2333.35,1507.98
2334.8,1497.38
2336.25,1508.15
2337.7,1499.15
2339.16,1506.5
2340.61,1525.01
2342.06,1530.65
2343.51,1520.26
2344.96,1546.51
2346.41,1527.73
2347.87,1518.69
2349.32,1540.21
2350.77,1559.69
2352.22,1588.83
2353.67,1560.5
2355.12,1563.72
2356.58,1567.62
2358.03,1601.48
2359.48,1593.89
2360.93,1626.1
2362.38,1600.24
2363.84,1612.42
2365.29,1632.06
2366.74,1656
2368.19,1633.7
2369.64,1670.11
2371.09,1665.66
2372.55,1684.72
2374,1696.09
2375.45,1706.81
2376.9,1733.82
2378.35,1745.44
2379.8,1745.82
2381.26,1768.62
2382.71,1765.51
2384.16,1785.29
2385.61,1827.94
2387.06,1867.57
2388.52,1871.1
2389.97,1852.3
2391.42,1864.25
2392.87,1934.33
2394.32,1962.49
2395.77,2024.28
2397.23,2024.65
2398.68,2032.75
2400.13,2052.65
2401.58,2098.26
2403.03,2114.77
2404.49,2160.91
2405.94,2189.42
2407.39,2209.41
2408.84,2244.17
2410.29,2292.37
2411.74,2296.01
2413.2,2317.08
2414.65,2354.21
2416.1,2371.18
2417.55,2405.31
2419,2423.48
2420.46,2438.61
2421.91,2428.71
2423.36,2447.04
2424.81,2483.09
2426.26,2497.72
2427.71,2458.68
2429.17,2481.65
2430.62,2512.85
2432.07,2490.1
2433.52,2469.57
2434.97,2497.11
2436.42,2490.36
2437.88,2484.63
2439.33,2464.19
2440.78,2469.95
2442.23,2438.28
2443.68,2424.76
2445.14,2415.05
2446.59,2394.63
2448.04,2374.48
2449.49,2363.08
2450.94,2395.4
2452.39,2358.38
2453.85,2379.37
2455.3,2357.13
2456.75,2302.46
2458.2,2277.83
2459.65,2273.6
2461.1,2297.11
2462.56,2269.55
2464.01,2253.15
2465.46,2278.5
2466.91,2258.05
2468.36,2234.12
2469.82,2235.73
2471.27,2206.55
2472.72,2214.57
2474.17,2220.14
2475.62,2206.01
2477.07,2251.25
2478.53,2219.97
2479.98,2210.71
2481.43,2184.11
2482.88,2202.15
2484.33,2219.14
2485.79,2214.13
2487.24,2193.21
2488.69,2181.21
2490.14,2192.29
2491.59,2209.97
2493.04,2211.98
2494.5,2180.91
2495.95,2244.09
2497.4,2213.33
2498.85,2212.71
2500.3,2199.6
2501.76,2240.67
2503.21,2218.51
2504.66,2210.59
2506.11,2250.95
2507.56,2226.23
2509.01,2239.8
2510.47,2244.34
2511.92,2253.3
2513.37,2276.55
2514.82,2277.03
2516.27,2288.18
2517.72,2291.35
2519.18,2329.62
2520.63,2335.08
2522.08,2354.25
2523.53,2375.27
2524.98,2362.81
2526.44,2379.53
2527.89,2387.16
2529.34,2404.91
2530.79,2457.94
2532.24,2478.16
2533.69,2494.53
2535.15,2532.96
2536.6,2538.97
2538.05,2539.39
2539.5,2568.12
2540.95,2615.05
2542.41,2621.2
2543.86,2634.26
2545.31,2677.94
2546.76,2725.07
2548.21,2756.01
2549.66,2775.86
2551.12,2825.24
2552.57,2866.27
2554.02,2883.24
2555.47,2938.89
2556.92,2950.96
2558.37,2999.52
2559.83,3027.7
2561.28,3112.24
2562.73,3141.74
2564.18,3198.94
2565.63,3250.7
2567.09,3326.43
2568.54,3377.88
2569.99,3418.7
2571.44,3467.42
2572.89,3509.88
2574.34,3623.32
2575.8,3703.79
2577.25,3764.55
2578.7,3843.41
2580.15,3912.24
2581.6,4040.45
2583.06,4152.9
2584.51,4186.92
2585.96,4299.88
2587.41,4426.08
2588.86,4520.16
2590.31,4628.03
2591.77,4780.22
2593.22,4925.15
2594.67,5036.05
2596.12,5161.55
2597.57,5330.5
2599.02,5546.7
2600.48,5714.67
2601.93,5852.42
2603.38,6085.06
2604.83,6306.17
2606.28,6485.53
2607.74,6646.97
2609.19,6941.26
2610.64,7252.86
2612.09,7501.88
2613.54,7788.91
2614.99,8021.42
2616.45,8327.71
2617.9,8680.17
2619.35,8997.94
2620.8,9242.97
2622.25,9559.91
2623.71,9983.25
2625.16,10360.1
2626.61,10756
2628.06,11156.7
2629.51,11581.7
2630.96,12001.4
2632.42,12388.3
2633.87,12804.7
2635.32,13260.5
2636.77,13587.8
2638.22,14014.3
2639.68,14436.5
2641.13,14783
2642.58,15159.7
2644.03,15582.4
2645.48,15857.3
2646.93,16211.4
2648.39,16618.9
2649.84,16685.8
2651.29,16976.9
2652.74,17189.5
2654.19,17336.7
2655.64,17512
2657.1,17575.9
2658.55,17589.6
2660,17567.7
2661.45,17528.1
2662.9,17328
2664.36,17305.8
2665.81,17078.3
2667.26,16919.2
2668.71,16722.5
2670.16,16382.1
2671.61,16023.1
2673.07,15644.9
2674.52,15433.6
2675.97,14944.6
2677.42,14545.6
2678.87,14118.5
2680.32,13730.5
2681.78,13337.5
2683.23,12952.3
2684.68,12465.3
2686.13,11983.8
2687.58,11516.8
2689.04,11076.1
2690.49,10692.7
2691.94,10308.7
2693.39,9823.81
2694.84,9508.97
2696.29,9125.53
2697.75,8761.58
2699.2,8397.19
2700.65,8095.24
2702.1,7787.05
2703.55,7412.25
2705.01,7120.29
2706.46,6806.13
2707.91,6559.19
2709.36,6403.38
2710.81,6110.54
2712.26,5815.73
2713.72,5652.33
2715.17,5505.13
2716.62,5311.81
2718.07,5103.21
2719.52,4890.82
2720.98,4747.36
2722.43,4593.25
2723.88,4477.66
2725.33,4334.6
2726.78,4190.77
2728.23,4062.7
2729.69,3946.05
2731.14,3848.58
2732.59,3775.5
2734.04,3674.96
2735.49,3576.52
2736.94,3497.15
2738.4,3425.31
2739.85,3336.84
2741.3,3277.22
2742.75,3204.58
2744.2,3168.01
2745.66,3061.79
2747.11,3036.88
2748.56,2967.87
2750.01,2917.6
2751.46,2856.52
2752.91,2795.43
2754.37,2757.14
2755.82,2749.9
2757.27,2687.22
2758.72,2645.95
2760.17,2627.06
2761.63,2578.2
2763.08,2526.74
2764.53,2560.77
2765.98,2465.13
2767.43,2475.86
2768.88,2424.75
2770.34,2376.59
2771.79,2361.76
2773.24,2335.8
2774.69,2351.36
2776.14,2356.67
2777.59,2283.37
2779.05,2307.05
2780.5,2230.72
2781.95,2191.6
2783.4,2224.73
2784.85,2172.83
2786.31,2127.21
2787.76,2132.29
2789.21,2114.54
2790.66,2120.39
2792.11,2117.7
2793.56,2075.13
2795.02,2079.95
2796.47,2031.38
2797.92,2008.47
2799.37,2023.09
2800.82,1985.02
2802.28,1994.39
2803.73,1965.7
2805.18,1972.04
2806.63,1988.39
2808.08,1964.81
2809.53,1934.73
2810.99,1938.66
2812.44,1891.17
2813.89,1921.13
2815.34,1909.38
2816.79,1892.22
2818.24,1882.44
2819.7,1859.5
2821.15,1843.86
2822.6,1859.85
2824.05,1800.54
2825.5,1805.12
2826.96,1818.97
2828.41,1835.71
2829.86,1810.61
2831.31,1821.46
2832.76,1802.11
2834.21,1776.5
2835.67,1799.13
2837.12,1793.21
2838.57,1767.47
2840.02,1804.15
2841.47,1771.2
2842.93,1778.57
2844.38,1750.21
2845.83,1768.02
2847.28,1761.67
2848.73,1755.88
2850.18,1742.94
2851.64,1777.12
2853.09,1764.45
2854.54,1760.74
2855.99,1744.43
2857.44,1730.87
2858.9,1711.53
2860.35,1759.83
2861.8,1722.94
2863.25,1756.5
2864.7,1764.46
2866.15,1754.58
2867.61,1743.31
2869.06,1739.95
2870.51,1774.6
2871.96,1743.86
2873.41,1713.34
2874.86,1747.76
2876.32,1725.04
2877.77,1774.25
2879.22,1760.89
2880.67,1747.7
2882.12,1716.91
2883.58,1717.13
2885.03,1734.56
2886.48,1759.71
2887.93,1757.27
2889.38,1788.8
2890.83,1760.74
2892.29,1762
2893.74,1749.93
2895.19,1769.72
2896.64,1762.85
2898.09,1737
2899.54,1763.71
2901,1756.32
2902.45,1761.67
2903.9,1765.33
2905.35,1788.95
2906.8,1775.8
2908.26,1757.83
2909.71,1750.54
2911.16,1736.93
2912.61,1758.05
2914.06,1764.99
2915.51,1750.93
2916.97,1753.82
2918.42,1725.41
2919.87,1736.6
2921.32,1695.61
2922.77,1719.78
2924.23,1695.03
2925.68,1687.18
2927.13,1694.65
2928.58,1702.22
2930.03,1670.76
2931.48,1686.28
2932.94,1646.81
2934.39,1633.97
2935.84,1623.04
2937.29,1610.05
2938.74,1637.6
2940.2,1625.5
2941.65,1572.27
2943.1,1553.93
2944.55,1571.91
2946,1554.14
2947.45,1546.66
2948.91,1549.68
2950.36,1527.35
2951.81,1520.29
2953.26,1503.42
2954.71,1471.02
2956.16,1492.07
2957.62,1470.02
2959.07,1447.42
2960.52,1452.66
2961.97,1444.13
2963.42,1440.75
2964.88,1419.82
2966.33,1432.15
2967.78,1425.17
2969.23,1407.06
2970.68,1409.28
2972.13,1407.06
2973.59,1409.9
2975.04,1402.6
2976.49,1377.79
2977.94,1382.28
2979.39,1355.32
2980.84,1368.03
2982.3,1361.93
2983.75,1365.73
2985.2,1344.23
2986.65,1344.13
2988.1,1351.36
2989.56,1331.73
2991.01,1332.26
2992.46,1342.95
2993.91,1318.6
2995.36,1329.99
2996.81,1352.13
2998.27,1325.69
2999.72,1319.22
3001.17,1297.93
3002.62,1291.41
3004.07,1292.33
3005.53,1317.15
3006.98,1302.06
3008.43,1308.94
3009.88,1313.72
3011.33,1300.97
3012.78,1303.68
3014.24,1296.61
3015.69,1305.41
3017.14,1295
3018.59,1290.74
3020.04,1271.26
3021.5,1295.72
3022.95,1292.99
3024.4,1282.61
3025.85,1278.58
3027.3,1280.78
3028.75,1305.3
3030.21,1278.09
3031.66,1279.35
3033.11,1287.19
3034.56,1269.67
3036.01,1266.38
3037.46,1284.13
3038.92,1284.26
3040.37,1267.28
3041.82,1282.55
3043.27,1260.28
3044.72,1282.03
3046.18,1265.73
3047.63,1273.71
3049.08,1269.5
3050.53,1295.72
3051.98,1286.76
3053.43,1281.25
3054.89,1283.7
3056.34,1302.8
3057.79,1290.31
3059.24,1274.02
3060.69,1278.75
3062.15,1291.03
3063.6,1272.86
3065.05,1274.93
3066.5,1303.21
3067.95,1299.26
3069.4,1312.23
3070.86,1314.24
3072.31,1318.53
3073.76,1294.61
3075.21,1304.53
3076.66,1329.94
3078.11,1322.48
3079.57,1319.94
3081.02,1340.93
3082.47,1333.06
3083.92,1338.97
3085.37,1342.81
3086.83,1374.97
3088.28,1353.22
3089.73,1354.94
3091.18,1376.03
3092.63,1396.55
3094.08,1408.08
3095.54,1393.23
3096.99,1410.92
3098.44,1465.22
3099.89,1432.18
3101.34,1466.28
3102.8,1467.01
3104.25,1474.05
3105.7,1495.85
3107.15,1498.37
3108.6,1525.29
3110.05,1547.82
3111.51,1512.37
3112.96,1552.41
3114.41,1578.92
3115.86,1595.79
3117.31,1614.29
3118.76,1631.76
3120.22,1672.28
3121.67,1646.86
3123.12,1668.72
3124.57,1710.43
3126.02,1705.47
3127.48,1703.96
3128.93,1716.52
3130.38,1733.06
3131.83,1764.42
3133.28,1776.12
3134.73,1768.93
3136.19,1797.61
3137.64,1808.65
3139.09,1799.38
3140.54,1818.28
3141.99,1813.06
3143.45,1809.95
3144.9,1851.9
3146.35,1838.05
3147.8,1822.17
3149.25,1869.73
3150.7,1834.16
3152.16,1848.15
3153.61,1828.3
3155.06,1858.04
3156.51,1849.26
3157.96,1852.89
3159.42,1824.87
3160.87,1861.29
3162.32,1858.76
3163.77,1837.15
3165.22,1865.86
3166.67,1888.14
3168.13,1863.36
3169.58,1864.59
3171.03,1915.07
3172.48,1901.88
3173.93,1905.84
3175.38,1912.2
3176.84,1944.86
3178.29,1963.87
3179.74,2014.91
3181.19,1958.28
3182.64,1983.58
3184.1,2036.96
3185.55,2010.09
3187,2009.46
3188.45,2038.57
3189.9,2104.9
3191.35,2100.33
3192.81,2111.02
3194.26,2077.32
3195.71,2123.96
3197.16,2151.82
3198.61,2141.6
3200.06,2137.54
3201.52,2157.59
3202.97,2166.28
3204.42,2151.75
3205.87,2122.43
3207.32,2115.05
3208.78,2102.66
3210.23,2090.82
3211.68,2039.4
3213.13,1998.33
3214.58,2002.68
3216.03,1969.78
3217.49,1963.8
3218.94,1951.37
3220.39,1885.13
3221.84,1862.04
3223.29,1804.7
3224.75,1769.45
3226.2,1741.25
3227.65,1710.28
3229.1,1691.88
3230.55,1645.3
3232,1596.71
3233.46,1576.12
3234.91,1541.64
3236.36,1505.05
3237.81,1474.75
3239.26,1468.28
3240.72,1433.3
3242.17,1419.13
3243.62,1375.53
3245.07,1364.21
3246.52,1348.22
3247.97,1342.23
3249.43,1325.35
3250.88,1290.56
3252.33,1271.13
3253.78,1280.7
3255.23,1257.79
3256.68,1250.7
3258.14,1240.02
3259.59,1202.99
3261.04,1207.94
3262.49,1194.25
3263.94,1183.3
3265.4,1200.69
3266.85,1177.2
3268.3,1190.14
3269.75,1162.31
3271.2,1182.49
3272.65,1171.57
3274.11,1149.19
3275.56,1133.04
3277.01,1167.98
3278.46,1162.74
3279.91,1153.96
3281.37,1140.44
3282.82,1134.49
3284.27,1138.52
3285.72,1143.25
3287.17,1126.95
3288.62,1125.31
3290.08,1147.76
3291.53,1143.62
3292.98,1129.53
3294.43,1125.62
3295.88,1130.73
3297.33,1138.2
3298.79,1119.77
3300.24,1096.33
3301.69,1095.21
3303.14,1098.6
3304.59,1122.13
3306.05,1104.37
3307.5,1096.41
3308.95,1094.93
3310.4,1104.81
3311.85,1130.91
3313.3,1113.39
3314.76,1106.44
3316.21,1104.52
3317.66,1101.68
3319.11,1086.45
3320.56,1096.66
3322.02,1107.99
3323.47,1110.11
3324.92,1098.82
3326.37,1086.33
3327.82,1080.72
3329.27,1099.64
3330.73,1093.3
3332.18,1075.84
3333.63,1082.02
3335.08,1077.91
3336.53,1091.5
3337.98,1107.12
3339.44,1098.25
3340.89,1097.98
3342.34,1085.95
3343.79,1092.05
3345.24,1091.71
3346.7,1082.84
3348.15,1082.51
3349.6,1081.14
3351.05,1095.16
3352.5,1086.52
3353.95,1090.45
3355.41,1103.63
3356.86,1074.1
3358.31,1084.48
3359.76,1079.36
3361.21,1074.2
3362.67,1082.92
3364.12,1052.1
3365.57,1087.86
3367.02,1080.77
3368.47,1077.94
3369.92,1087.53
3371.38,1082.52
3372.83,1102.38
3374.28,1080.27
3375.73,1072.38
3377.18,1074.55
3378.63,1085.98
3380.09,1070.3
3381.54,1056.96
3382.99,1064.51
3384.44,1072
3385.89,1079
3387.35,1072.7
3388.8,1083.62
3390.25,1083.05
3391.7,1076.61
3393.15,1073.54
3394.6,1079.82
3396.06,1088.04
3397.51,1056.79
3398.96,1065.66
3400.41,1061.94
3401.86,1057.18
3403.32,1077.41
3404.77,1090.36
3406.22,1095.81
3407.67,1070.24
3409.12,1067.99
3410.57,1066.48
3412.03,1076.64
3413.48,1067.18
3414.93,1080.18
3416.38,1060.64
3417.83,1068.64
3419.28,1080.95
3420.74,1075.59
3422.19,1088.74
3423.64,1074.54
3425.09,1070.88
3426.54,1069.09
3428,1055.9
3429.45,1057.82
3430.9,1058.02
3432.35,1057.91
3433.8,1053.46
3435.25,1037.89
3436.71,1055.05
3438.16,1068.07
3439.61,1063.39
3441.06,1071.2
3442.51,1059.61
3443.97,1066.94
3445.42,1084.09
3446.87,1057.57
3448.32,1056.09
3449.77,1057.81
3451.22,1057.5
3452.68,1067.12
3454.13,1055.04
3455.58,1049.1
3457.03,1053.29
3458.48,1055.72
3459.94,1036.38
3461.39,1045.15
3462.84,1039.9
3464.29,1054.64
3465.74,1063.94
3467.19,1074.58
3468.65,1052.81
3470.1,1062.05
3471.55,1052.64
3473,1048.05
3474.45,1061.75
3475.9,1049.04
3477.36,1045.54
3478.81,1029.45
3480.26,1038.11
3481.71,1062.85
3483.16,1060.31
3484.62,1074.43
3486.07,1059.76
3487.52,1067.59
3488.97,1071.63
3490.42,1085.34
3491.87,1040.09
3493.33,1053.52
3494.78,1066.08
3496.23,1049.73
3497.68,1046.76
3499.13,1061.81
3500.58,1067.46
3502.04,1054.49
3503.49,1070.95
3504.94,1059.4
3506.39,1067.71
3507.84,1057.25
3509.3,1034.33
3510.75,1063.94
3512.2,1057.13
3513.65,1057.21
3515.1,1062.54
3516.55,1086.03
3518.01,1077.16
3519.46,1069.01
3520.91,1053.37
3522.36,1059.24
3523.81,1074.07
3525.27,1034.25
3526.72,1044.66
3528.17,1050.69
3529.62,1059.71
3531.07,1070.62
3532.52,1060.58
3533.98,1077.91
3535.43,1058.11
3536.88,1069.8
3538.33,1060.61
3539.78,1059.23
3541.24,1063.66
3542.69,1040.43
3544.14,1064.11
3545.59,1074.82
3547.04,1043.91
3548.49,1052.14
3549.95,1053.65
3551.4,1054.65
3552.85,1034.76
3554.3,1053.78
3555.75,1047.96
3557.2,1057.8
3558.66,1036.52
3560.11,1046
3561.56,1055.97
3563.01,1041.58
3564.46,1052.78
3565.92,1062.5
3567.37,1052.98
3568.82,1058.15
3570.27,1051.63
3571.72,1059.7
3573.17,1046.16
3574.63,1057.08
3576.08,1064.4
3577.53,1035.49
3578.98,1044.29
3580.43,1049.97
3581.89,1058.42
3583.34,1068.24
3584.79,1055.67
3586.24,1049.43
3587.69,1051.82
3589.14,1051.9
3590.6,1055.2
3592.05,1043.26
3593.5,1043.41
3594.95,1055.27
3596.4,1039.74
3597.85,1049.52
3599.31,1045.46
3600.76,1045.95
3602.21,1045.12
3603.66,1052.45
3605.11,1051.34
3606.57,1048.48
3608.02,1058.03
3609.47,1047.77
3610.92,1052.28
3612.37,1056.18
3613.82,1047.69
3615.28,1053.67
3616.73,1044.63
3618.18,1036.41
3619.63,1064.72
3621.08,1032.55
3622.54,1047.67
3623.99,1033.69
3625.44,1054.83
3626.89,1064.27
3628.34,1048.43
3629.79,1053.23
3631.25,1050.14
3632.7,1057.72
3634.15,1041.06
3635.6,1044.73
3637.05,1070.04
3638.5,1059.07
3639.96,1071.17
3641.41,1039.17
3642.86,1040.75
3644.31,1053.24
3645.76,1040.18
3647.22,1044.36
3648.67,1050.47
3650.12,1031.78
3651.57,1054.4
3653.02,1046.39
3654.47,1052.77
3655.93,1047.16
3657.38,1027.97
3658.83,1067.46
3660.28,1055.88
3661.73,1050.97
3663.19,1046.02
3664.64,1051.32
3666.09,1061.07
3667.54,1067.51
3668.99,1046.83
3670.44,1038.37
3671.9,1063.61
3673.35,1076.79
3674.8,1066.88
3676.25,1053.11
3677.7,1065.53
3679.16,1058.82
3680.61,1067.74
3682.06,1049.6
3683.51,1053.8
3684.96,1055.93
3686.41,1070.16
3687.87,1049.04
3689.32,1045.58
3690.77,1040.88
3692.22,1076.33
3693.67,1047.14
3695.12,1049.71
3696.58,1073.11
3698.03,1042.38
3699.48,1048.48
3700.93,1063.97
3702.38,1069.78
3703.84,1053.44
3705.29,1068.51
3706.74,1066.67
3708.19,1060.5
3709.64,1045.9
3711.09,1045.31
3712.55,1054.5
3714,1053.39
3715.45,1071.25
3716.9,1068.51
3718.35,1056.96
3719.8,1070.48
3721.26,1050.53
3722.71,1066.3
3724.16,1066.5
3725.61,1073.78
3727.06,1076.49
3728.52,1081.81
3729.97,1079.37
3731.42,1089.61
3732.87,1062.73
3734.32,1070.88
3735.77,1062.47
3737.23,1073.81
3738.68,1073.07
3740.13,1065.03
3741.58,1057.83
3743.03,1095.73
3744.49,1073.95
3745.94,1067.96
3747.39,1071.83
3748.84,1067.08
3750.29,1069.37
3751.74,1067.47
3753.2,1064.27
3754.65,1063.72
3756.1,1079.36
3757.55,1065.35
3759,1074.83
3760.46,1088.95
3761.91,1074.06
3763.36,1083.99
3764.81,1084.36
3766.26,1061.12
3767.71,1072.51
3769.17,1080.99
3770.62,1082.24
3772.07,1081.71
3773.52,1079.45
3774.97,1062.87
3776.42,1071.93
3777.88,1066.75
3779.33,1087.7
3780.78,1080.91
3782.23,1079.02
3783.68,1087.93
3785.14,1061.54
3786.59,1069.09
3788.04,1081.47
3789.49,1096.48
3790.94,1103.07
3792.39,1078.02
3793.85,1075.97
3795.3,1080.89
3796.75,1084.1
3798.2,1090.56
3799.65,1063.76
3801.1,1067.77
3802.56,1084.85
3804.01,1085.07
3805.46,1102.54
3806.91,1085.85
3808.36,1094.9
3809.82,1080.13
3811.27,1071.13
3812.72,1080.68
3814.17,1095.11
3815.62,1095.96
3817.07,1099.5
3818.53,1091.1
3819.98,1090.03
3821.43,1093.16
3822.88,1089.44
3824.33,1109.39
3825.79,1104.35
3827.24,1088.51
3828.69,1089.47
3830.14,1069.98
3831.59,1095.4
3833.04,1090.66
3834.5,1089.42
3835.95,1076.44
3837.4,1075.44
3838.85,1108.1
3840.3,1080.52
3841.76,1094.82
3843.21,1093.35
3844.66,1091.88
3846.11,1091.96
3847.56,1083.05
3849.01,1112.45
3850.47,1110.67
3851.92,1112.03
3853.37,1101.37
3854.82,1124.14
3856.27,1114.76
3857.72,1118.78
3859.18,1100.41
3860.63,1110.83
3862.08,1101.29
3863.53,1115.76
3864.98,1141.19
3866.44,1119.83
3867.89,1117.72
3869.34,1106.8
3870.79,1097.67
3872.24,1122.75
3873.69,1128.81
3875.15,1114.82
3876.6,1119.76
3878.05,1119.69
3879.5,1123.45
3880.95,1143.62
3882.41,1128.71
3883.86,1115.22
3885.31,1114.85
3886.76,1134.05
3888.21,1123.74
3889.66,1126.68
3891.12,1130.36
3892.57,1104.24
3894.02,1137.35
3895.47,1130.91
3896.92,1152.26
3898.37,1124.08
3899.83,1122.47
3901.28,1138.81
3902.73,1135.62
3904.18,1141.2
3905.63,1160.09
3907.09,1119.11
3908.54,1150.62
3909.99,1153.86
3911.44,1156.88
3912.89,1177.16
3914.34,1158.23
3915.8,1153.96
3917.25,1178.25
3918.7,1162.22
3920.15,1139.44
3921.6,1167.94
3923.06,1137.85
3924.51,1135.54
3925.96,1155.16
3927.41,1176.77
3928.86,1167.28
3930.31,1179.11
3931.77,1185.15
3933.22,1185.76
3934.67,1186.92
3936.12,1187.06
3937.57,1177.48
3939.02,1152.35
3940.48,1186.31
3941.93,1214.21
3943.38,1214.1
3944.83,1186.57
3946.28,1205.18
3947.74,1216.94
3949.19,1227.69
3950.64,1213.45
3952.09,1217.84
3953.54,1190.32
3954.99,1215.9
3956.45,1211.14
3957.9,1205.18
3959.35,1225.03
3960.8,1211.45
3962.25,1225.03
3963.71,1215.44
3965.16,1209.34
3966.61,1220.21
3968.06,1225.62
3969.51,1225.66
3970.96,1245.05
3972.42,1230.71
3973.87,1232.14
3975.32,1245.18
3976.77,1245.82
3978.22,1234.52
3979.68,1253.92
3981.13,1245.07
3982.58,1252.83
3984.03,1264.82
3985.48,1268.59
3986.93,1246.1
3988.39,1267.34
3989.84,1269.97
3991.29,1252.64
3992.74,1268.16
3994.19,1256.18
3995.64,1260.85
3997.1,1276.53
3998.55,1270.98
4000,1273.57
