0,18325.5
1.77681,17426.5
3.2286,11179.5
4.68039,3242.64
6.13218,563.64
7.58397,112.52
9.03575,75.0606
10.4875,70.7289
11.9393,70.4066
13.3911,70.1653
14.8429,69.3982
16.2947,68.4932
17.7465,67.0928
19.1983,64.5329
20.6501,62.3334
22.1018,59.8486
23.5536,58.0271
25.0054,56.7346
26.4572,53.9966
27.909,50.7496
29.3608,48.0722
30.8126,44.0682
32.2644,43.3586
33.7161,42.8819
35.1679,42.4482
36.6197,42.4483
38.0715,41.2801
39.5233,41.2536
40.9751,42.3993
42.4269,43.7196
43.8787,43.8625
45.3304,46.7666
46.7822,52.8046
48.234,62.1634
49.6858,81.2237
51.1376,118.981
52.5894,192.499
54.0412,293.619
55.493,418.402
56.9447,553.153
58.3965,706.504
59.8483,830.259
61.3001,941.216
62.7519,1026.35
64.2037,1086.63
65.6555,1108.09
67.1073,1141.96
68.559,1166.82
70.0108,1179.24
71.4626,1188.06
72.9144,1193.38
74.3662,1202.71
75.818,1223.89
77.2698,1237.98
78.7216,1264.35
80.1733,1306.14
81.6251,1329.93
83.0769,1358.75
84.5287,1377.07
85.9805,1369.33
87.4323,1336.65
88.8841,1291.35
90.3359,1236.91
91.7877,1174.25
93.2394,1110.31
94.6912,1056.2
96.143,1000.04
97.5948,952.577
99.0466,926.047
100.498,914.485
101.95,889.85
103.402,865.643
104.854,854.914
106.306,849.164
107.757,836.186
109.209,819.666
110.661,800.539
112.113,790.681
113.564,790.032
115.016,777.001
116.468,758.814
117.92,748.537
119.372,742.479
120.823,722.249
122.275,728.36
123.727,714.065
125.179,692.763
126.631,682.457
128.082,681.698
129.534,664.406
130.986,653.254
132.438,646.31
133.889,635.684
135.341,624.171
136.793,610.167
138.245,601.675
139.697,601.691
141.148,603.21
142.6,596.897
144.052,597.226
145.504,595.387
146.956,590.498
148.407,579.248
149.859,567.37
151.311,557.84
152.763,559.486
154.215,559.786
155.666,554.786
157.118,531.375
158.57,520.917
160.022,519.793
161.473,519.218
162.925,510.418
164.377,513.632
165.829,515.36
167.281,510.217
168.732,501.586
170.184,507.438
171.636,496.944
173.088,484.585
174.54,480.871
175.991,482.365
177.443,459.975
178.895,463.518
180.347,463.513
181.798,458.896
183.25,447.539
184.702,454.833
186.154,452.214
187.606,448.385
189.057,441.301
190.509,434.389
191.961,428.072
193.413,432.074
194.865,440.233
196.316,440.747
197.768,433.703
199.22,431.803
200.672,432.32
202.124,435.661
203.575,431.249
205.027,418.948
206.479,417.684
207.931,421.198
209.382,419.88
210.834,420.7
212.286,429.542
213.738,425.117
215.19,420.327
216.641,425.183
218.093,432.345
219.545,436.31
220.997,436.343
222.449,417.292
223.9,422.176
225.352,427.485
226.804,425.848
228.256,413.817
229.707,415.639
231.159,421.503
232.611,421.718
234.063,424.551
235.515,423.676
236.966,426.952
238.418,425.86
239.87,423.902
241.322,422.252
242.774,418.469
244.225,417.341
245.677,417.631
247.129,419.471
248.581,414.954
250.033,405.951
251.484,411.006
252.936,401.219
254.388,395.716
255.84,399.849
257.291,406.375
258.743,399.399
260.195,397.812
261.647,396.81
263.099,398.372
264.55,398.473
266.002,391.579
267.454,394.606
268.906,397.961
270.358,399.077
271.809,393.841
273.261,385.101
274.713,388.611
276.165,388.655
277.616,386.151
279.068,382.421
280.52,381.617
281.972,378.643
283.424,368.991
284.875,363.578
286.327,366.038
287.779,368.027
289.231,367.991
290.683,370.019
292.134,367.929
293.586,359.572
295.038,350.139
296.49,357.649
297.941,357.175
299.393,354.78
300.845,353.298
302.297,351.417
303.749,350.273
305.2,344.561
306.652,344.622
308.104,342.884
309.556,335.513
311.008,340.307
312.459,347.036
313.911,339.104
315.363,336.131
316.815,339.621
318.267,326.874
319.718,336.272
321.17,334.659
322.622,335.621
324.074,337.133
325.525,332.675
326.977,336.983
328.429,337.324
329.881,325.542
331.333,317.357
332.784,325.774
334.236,322.655
335.688,315.406
337.14,324.059
338.592,327.31
340.043,321.038
341.495,318.702
342.947,323.82
344.399,322.097
345.85,318.105
347.302,317.975
348.754,321.403
350.206,318.568
351.658,315.316
353.109,315.41
354.561,317.442
356.013,316.96
357.465,307.028
358.917,308.526
360.368,309.692
361.82,309.504
363.272,310.762
364.724,314.245
366.176,308.85
367.627,304.73
369.079,305.416
370.531,310.269
371.983,311.924
373.434,304.158
374.886,305.537
376.338,307.268
377.79,307.495
379.242,305.519
380.693,307.767
382.145,297.328
383.597,302.185
385.049,308.367
386.501,312.636
387.952,313.814
389.404,309.642
390.856,305.055
392.308,305.405
393.759,307.211
395.211,307.721
396.663,301.8
398.115,310.432
399.567,307.094
401.018,302.466
402.47,300.502
403.922,305.438
405.374,305.271
406.826,306.391
408.277,305.878
409.729,304.949
411.181,305.729
412.633,310.891
414.085,306.718
415.536,301.675
416.988,303.178
418.44,306.946
419.892,305.663
421.343,315.072
422.795,304.599
424.247,300.579
425.699,301.327
427.151,302.431
428.602,300.195
430.054,295.89
431.506,305.463
432.958,307.027
434.41,304.09
435.861,305.974
437.313,296.844
438.765,296.532
440.217,307.807
441.668,312.866
443.12,307.1
444.572,293.612
446.024,303.625
447.476,298.825
448.927,297.387
450.379,297.774
451.831,298.355
453.283,300.789
454.735,292.336
456.186,295.199
457.638,299.26
459.09,302.327
460.542,303.263
461.993,302.45
463.445,302.247
464.897,297.275
466.349,297.868
467.801,300.01
469.252,292.732
470.704,293.697
472.156,298.016
473.608,302.389
475.06,301.141
476.511,293.285
477.963,291.266
479.415,297.399
480.867,300.863
482.319,298.924
483.77,292.883
485.222,288.499
486.674,296.975
488.126,301.755
489.577,296.725
491.029,294.032
492.481,293.434
493.933,286.226
495.385,287.244
496.836,287.266
498.288,291.726
499.74,291.613
501.192,287.324
502.644,285.271
504.095,287.943
505.547,290.66
506.999,292.884
508.451,292.271
509.902,287.985
511.354,293.195
512.806,286.952
514.258,288.101
515.71,290.057
517.161,291.284
518.613,287.655
520.065,278.993
521.517,289.871
522.969,289.777
524.42,284.635
525.872,280.114
527.324,284.074
528.776,284.644
530.228,288.743
531.679,293.945
533.131,289.72
534.583,284.387
536.035,286.482
537.486,295.761
538.938,292.911
540.39,286.22
541.842,285.238
543.294,287.74
544.745,290.308
546.197,289.983
547.649,288.05
549.101,284.851
550.553,290.094
552.004,293.914
553.456,287.457
554.908,288.412
556.36,283.503
557.811,284.038
559.263,285.452
560.715,289.289
562.167,290.54
563.619,299.438
565.07,291.674
566.522,290.4
567.974,291.887
569.426,288.1
570.878,282.906
572.329,288.031
573.781,282.167
575.233,287.005
576.685,290.717
578.137,290.511
579.588,284.256
581.04,280.848
582.492,286.03
583.944,283.433
585.395,284.071
586.847,286.229
588.299,285.53
589.751,283.991
591.203,283.491
592.654,281.01
594.106,284.468
595.558,289.23
597.01,286.985
598.462,282.127
599.913,286.77
601.365,279.508
602.817,278.748
604.269,285.366
605.72,284.718
607.172,290.81
608.624,292.518
610.076,293.202
611.528,288.316
612.979,283.218
614.431,284.294
615.883,279.962
617.335,282.836
618.787,286.287
620.238,292.1
621.69,290.457
623.142,281.106
624.594,288.692
626.046,287.613
627.497,290.949
628.949,288.773
630.401,290.34
631.853,292.666
633.304,283.816
634.756,281.169
636.208,287.98
637.66,289.515
639.112,290.479
640.563,292.571
642.015,291.13
643.467,287.852
644.919,289.619
646.371,294.572
647.822,296.511
649.274,295.729
650.726,295.351
652.178,299.421
653.629,288.928
655.081,289.848
656.533,295.026
657.985,297.84
659.437,297.201
660.888,300.891
662.34,295.708
663.792,291.967
665.244,294.846
666.696,294.987
668.147,294.651
669.599,304.047
671.051,305.731
672.503,296.681
673.954,296.194
675.406,295.787
676.858,293.107
678.31,298.834
679.762,306.3
681.213,300.589
682.665,294.769
684.117,294.012
685.569,299.058
687.021,308.027
688.472,308.042
689.924,302.744
691.376,300.266
692.828,302.66
694.28,305.914
695.731,302.285
697.183,301.799
698.635,295.57
700.087,296.062
701.538,297.482
702.99,298.189
704.442,296.7
705.894,299.393
707.346,307.048
708.797,309.445
710.249,302.623
711.701,304.151
713.153,304.291
714.605,298.889
716.056,300.251
717.508,300.818
718.96,307.533
720.412,303.238
721.863,300.194
723.315,301.713
724.767,303.786
726.219,303.937
727.671,304.405
729.122,296.679
730.574,295.943
732.026,298.545
733.478,305.279
734.93,309.647
736.381,306.655
737.833,298.646
739.285,301.596
740.737,302.394
742.189,303.485
743.64,306.34
745.092,304.628
746.544,303.93
747.996,307.934
749.447,303.327
750.899,307.434
752.351,307.988
753.803,300.52
755.255,304.702
756.706,300.818
758.158,300.419
759.61,308.799
761.062,311.581
762.514,312.442
763.965,309.605
765.417,304.093
766.869,304.578
768.321,308.57
769.772,307.354
771.224,309.17
772.676,310.94
774.128,303.736
775.58,305.667
777.031,301.188
778.483,306.523
779.935,302.002
781.387,300.491
782.839,304.781
784.29,307.415
785.742,310.199
787.194,316.436
788.646,311.911
790.098,313.849
791.549,314.807
793.001,312.593
794.453,316.171
795.905,312.383
797.356,305.195
798.808,305.979
800.26,303.368
801.712,306.804
803.164,314.735
804.615,315.323
806.067,318.436
807.519,310.554
808.971,313.04
810.423,312.72
811.874,312.931
813.326,310.32
814.778,315.274
816.23,316.088
817.681,316.18
819.133,311.646
820.585,317.147
822.037,317.829
823.489,314.278
824.94,312.441
826.392,318.677
827.844,321.92
829.296,323.955
830.748,325.019
832.199,325.928
833.651,321.227
835.103,322.23
836.555,323.136
838.007,322.847
839.458,320.766
840.91,323.373
842.362,325.641
843.814,327.558
845.265,320.84
846.717,319.588
848.169,329.632
849.621,337.828
851.073,339.125
852.524,335.826
853.976,334.865
855.428,332.367
856.88,333.845
858.332,332.439
859.783,335.759
861.235,336.586
862.687,333.388
864.139,330.545
865.59,328.93
867.042,330.414
868.494,326.854
869.946,326.53
871.398,332.796
872.849,329.679
874.301,320.563
875.753,323.736
877.205,325.693
878.657,330.4
880.108,328.142
881.56,328.899
883.012,329.281
884.464,330.971
885.915,331.751
887.367,332.784
888.819,330.701
890.271,339.28
891.723,335.497
893.174,342.235
894.626,340.275
896.078,335.115
897.53,337.877
898.982,338.462
900.433,336.439
901.885,342.498
903.337,332.666
904.789,335.911
906.241,343.647
907.692,344.703
909.144,338.45
910.596,336.933
912.048,343.689
913.499,343.855
914.951,344.843
916.403,344.874
917.855,344.309
919.307,347.622
920.758,348.791
922.21,347.664
923.662,350.713
925.114,351.957
926.566,351.662
928.017,347.91
929.469,345.532
930.921,350.077
932.373,350.151
933.824,349.742
935.276,349.431
936.728,360.177
938.18,356.827
939.632,351.624
941.083,355.222
942.535,342.381
943.987,353.408
945.439,355.609
946.891,349.836
948.342,349.567
949.794,349.495
951.246,350.374
952.698,352.414
954.15,349.984
955.601,352.613
957.053,354.127
958.505,351.326
959.957,356.252
961.408,354.064
962.86,346.126
964.312,347.631
965.764,360.24
967.216,350.583
968.667,352.21
970.119,355.37
971.571,354.931
973.023,350.354
974.475,349.967
975.926,357.608
977.378,357.336
978.83,352.151
980.282,354.38
981.733,353.031
983.185,357.454
984.637,361.737
986.089,357.55
987.541,358.279
988.992,355.744
990.444,357.616
991.896,360.976
993.348,354.992
994.8,357.629
996.251,367.653
997.703,367.46
999.155,361.426
1000.61,369.466
1002.06,368.858
1003.51,370.163
1004.96,367.578
1006.41,369.427
1007.87,368.825
1009.32,376.654
1010.77,378.303
1012.22,371.246
1013.67,382.7
1015.12,372.988
1016.58,378.356
1018.03,381.073
1019.48,382.619
1020.93,383.622
1022.38,379.666
1023.84,383.828
1025.29,393.541
1026.74,399.017
1028.19,397.381
1029.64,398.454
1031.09,406.138
1032.55,408.663
1034,403.045
1035.45,407.292
1036.9,412.766
1038.35,410.707
1039.8,410.957
1041.26,414.006
1042.71,417.279
1044.16,427.173
1045.61,429.029
1047.06,420.814
1048.52,423.837
1049.97,435.784
1051.42,429.127
1052.87,434.894
1054.32,441.998
1055.77,434.032
1057.23,434.541
1058.68,450.412
1060.13,445.672
1061.58,458.387
1063.03,455.9
1064.49,458.445
1065.94,466.662
1067.39,472.178
1068.84,468.997
1070.29,473.216
1071.74,479.385
1073.2,477.493
1074.65,488.333
1076.1,485.944
1077.55,499.821
1079,498.023
1080.46,495.199
1081.91,499.615
1083.36,504.586
1084.81,495.15
1086.26,508.284
1087.71,506.236
1089.17,496.849
1090.62,499.693
1092.07,502.595
1093.52,491.645
1094.97,485.464
1096.42,505.6
1097.88,507.36
1099.33,491.041
1100.78,493.048
1102.23,493.426
1103.68,491.563
1105.14,493.41
1106.59,489.987
1108.04,483.325
1109.49,479.73
1110.94,490.278
1112.39,486.851
1113.85,484.22
1115.3,475.658
1116.75,472.482
1118.2,471.135
1119.65,469.941
1121.11,473.746
1122.56,467.63
1124.01,470.433
1125.46,455.288
1126.91,463.263
1128.36,455.12
1129.82,453.573
1131.27,457.78
1132.72,461.49
1134.17,461.194
1135.62,456.208
1137.07,454.898
1138.53,452.563
1139.98,453.606
1141.43,452.682
1142.88,446.743
1144.33,451.582
1145.79,456.594
1147.24,447.847
1148.69,440.275
1150.14,451.767
1151.59,453.224
1153.04,455.966
1154.5,452.153
1155.95,451.627
1157.4,451.849
1158.85,449.197
1160.3,451.381
1161.76,456.187
1163.21,449.817
1164.66,452.423
1166.11,453.651
1167.56,448.565
1169.01,447.346
1170.47,452.35
1171.92,457.496
1173.37,454.262
1174.82,455.518
1176.27,452.309
1177.72,457.324
1179.18,461.076
1180.63,467.331
1182.08,464.437
1183.53,458.112
1184.98,457.698
1186.44,458.01
1187.89,459.409
1189.34,464.503
1190.79,459.146
1192.24,467.975
1193.69,459.031
1195.15,464.211
1196.6,466.973
1198.05,470.335
1199.5,470.922
1200.95,473.097
1202.41,477.62
1203.86,472.432
1205.31,477.871
1206.76,482.648
1208.21,480.941
1209.66,476.032
1211.12,473.569
1212.57,476.684
1214.02,479.467
1215.47,479.401
1216.92,475.786
1218.37,487.015
1219.83,487.881
1221.28,485.304
1222.73,491.394
1224.18,487.643
1225.63,479.763
1227.09,477.891
1228.54,489.556
1229.99,496.435
1231.44,484.729
1232.89,482.119
1234.34,498.29
1235.8,495.753
1237.25,494.062
1238.7,500.174
1240.15,503.383
1241.6,500.711
1243.06,501.467
1244.51,509.774
1245.96,508.982
1247.41,517.638
1248.86,524.463
1250.31,520.252
1251.77,513.554
1253.22,519.784
1254.67,525.038
1256.12,530.55
1257.57,541.854
1259.02,546.069
1260.48,546.968
1261.93,554.692
1263.38,545.33
1264.83,563.738
1266.28,562.609
1267.74,560.664
1269.19,569.628
1270.64,580.361
1272.09,586.645
1273.54,594.151
1274.99,598.613
1276.45,605.266
1277.9,612.055
1279.35,630.5
1280.8,617.415
1282.25,633.635
1283.71,648.001
1285.16,659.263
1286.61,668.326
1288.06,677.552
1289.51,696.527
1290.96,719.884
1292.42,717.151
1293.87,741.867
1295.32,760.473
1296.77,774.358
1298.22,802.206
1299.67,831.281
1301.13,856.901
1302.58,876.13
1304.03,894.616
1305.48,924.795
1306.93,963.688
1308.39,991.86
1309.84,1043.71
1311.29,1082.09
1312.74,1120.35
1314.19,1174.74
1315.64,1228.68
1317.1,1274.47
1318.55,1327.77
1320,1386.74
1321.45,1434.44
1322.9,1491.14
1324.36,1552.37
1325.81,1614.6
1327.26,1681.68
1328.71,1710.33
1330.16,1740.92
1331.61,1789.72
1333.07,1825.11
1334.52,1845.33
1335.97,1876.9
1337.42,1866.87
1338.87,1856.13
1340.33,1827.43
1341.78,1811.83
1343.23,1761.53
1344.68,1705.82
1346.13,1664.11
1347.58,1616.55
1349.04,1558.97
1350.49,1495.4
1351.94,1423.82
1353.39,1374.56
1354.84,1326.28
1356.29,1245.76
1357.75,1204.47
1359.2,1155.55
1360.65,1115.09
1362.1,1066.15
1363.55,1019.95
1365.01,994.573
1366.46,959.826
1367.91,914.177
1369.36,894.907
1370.81,864.752
1372.26,836.666
1373.72,833.071
1375.17,812.705
1376.62,799.69
1378.07,777.789
1379.52,758.342
1380.98,745.434
1382.43,731.697
1383.88,727.125
1385.33,716.195
1386.78,702.49
1388.23,702.47
1389.69,689.044
1391.14,678.903
1392.59,679.965
1394.04,679.12
1395.49,665.301
1396.94,656.123
1398.4,652.392
1399.85,650.944
1401.3,649.991
1402.75,647.098
1404.2,649.179
1405.66,649.942
1407.11,640.083
1408.56,644.549
1410.01,638.208
1411.46,644.84
1412.91,649.544
1414.37,638.076
1415.82,640.387
1417.27,643.515
1418.72,647.385
1420.17,647.159
1421.63,647.381
1423.08,650.196
1424.53,649.712
1425.98,646.092
1427.43,663.17
1428.88,647.414
1430.34,658.151
1431.79,657.433
1433.24,661.594
1434.69,659.649
1436.14,666.339
1437.59,677.166
1439.05,675.508
1440.5,681.927
1441.95,677.191
1443.4,677.671
1444.85,677.22
1446.31,684.033
1447.76,683.52
1449.21,685.835
1450.66,695.763
1452.11,707.313
1453.56,714.044
1455.02,718.075
1456.47,715.312
1457.92,714.651
1459.37,730.227
1460.82,741.933
1462.28,746.514
1463.73,743.136
1465.18,764.676
1466.63,753.828
1468.08,770.368
1469.53,778.717
1470.99,779.537
1472.44,785.509
1473.89,794.802
1475.34,810.312
1476.79,833.789
1478.24,838.513
1479.7,841.086
1481.15,861.645
1482.6,872.842
1484.05,886.883
1485.5,907.918
1486.96,917.194
1488.41,931.502
1489.86,946.035
1491.31,963.216
1492.76,974.536
1494.21,981.328
1495.67,1015.91
1497.12,1059.13
1498.57,1070.59
1500.02,1082.17
1501.47,1110.94
1502.93,1146.97
1504.38,1147.06
1505.83,1200.23
1507.28,1219.64
1508.73,1267.7
1510.18,1311.85
1511.64,1353.91
1513.09,1403.65
1514.54,1442.54
1515.99,1504.97
1517.44,1583.17
1518.89,1648.67
1520.35,1702.22
1521.8,1766.42
1523.25,1859.55
1524.7,1957.48
1526.15,2107.22
1527.61,2210.06
1529.06,2370.57
1530.51,2522
1531.96,2704.35
1533.41,2914.28
1534.86,3130.42
1536.32,3379.21
1537.77,3677.92
1539.22,4001.16
1540.67,4351.31
1542.12,4709.99
1543.58,5180.8
1545.03,5657.89
1546.48,6194.74
1547.93,6712.88
1549.38,7263.31
1550.83,7831.93
1552.29,8455.34
1553.74,9056.63
1555.19,9644.5
1556.64,10263.9
1558.09,10837.2
1559.54,11357.2
1561,11820.6
1562.45,12195.2
1563.9,12428.6
1565.35,12590.8
1566.8,12621.7
1568.26,12536.2
1569.71,12212.7
1571.16,11816.3
1572.61,11338.9
1574.06,10764.7
1575.51,10151.1
1576.97,9498.26
1578.42,8843.17
1579.87,8217.62
1581.32,7594.78
1582.77,7007.41
1584.23,6463.08
1585.68,5934.73
1587.13,5494.86
1588.58,5034.35
1590.03,4623.88
1591.48,4263.31
1592.94,3914.6
1594.39,3664.56
1595.84,3442.28
1597.29,3206.84
1598.74,3047.16
1600.2,2888.49
1601.65,2730.61
1603.1,2583.66
1604.55,2459.8
1606,2337.37
1607.45,2220.26
1608.91,2122.86
1610.36,2031.44
1611.81,1938.6
1613.26,1824.08
1614.71,1737.85
1616.16,1658.02
1617.62,1576.56
1619.07,1510.41
1620.52,1428.64
1621.97,1386.11
1623.42,1332.47
1624.88,1273.4
1626.33,1235.52
1627.78,1188.12
1629.23,1147.83
1630.68,1110.45
1632.13,1064.27
1633.59,1043.13
1635.04,1032.81
1636.49,1012.91
1637.94,977.598
1639.39,942.961
1640.85,932.643
1642.3,912.437
1643.75,894.895
1645.2,875.711
1646.65,871.865
1648.1,862.183
1649.56,849.993
1651.01,824.94
1652.46,813.333
1653.91,800.671
1655.36,789.408
1656.81,787.763
1658.27,766.326
1659.72,747.49
1661.17,744.104
1662.62,736.158
1664.07,722.914
1665.53,720.225
1666.98,720.156
1668.43,702.281
1669.88,683.249
1671.33,679.608
1672.78,677.56
1674.24,659.526
1675.69,647.213
1677.14,652.807
1678.59,653.357
1680.04,642.936
1681.5,633.213
1682.95,632.478
1684.4,634.345
1685.85,629.465
1687.3,623.366
1688.75,615.987
1690.21,608.533
1691.66,604.018
1693.11,588.963
1694.56,596.249
1696.01,598.367
1697.46,589.091
1698.92,585.544
1700.37,578.74
1701.82,575.805
1703.27,574.82
1704.72,579.265
1706.18,579.45
1707.63,575.76
1709.08,569.119
1710.53,572.037
1711.98,569.513
1713.43,557.335
1714.89,561.082
1716.34,560.725
1717.79,561.308
1719.24,554.7
1720.69,560.336
1722.15,572.378
1723.6,560.434
1725.05,567.054
1726.5,559.937
1727.95,551.228
1729.4,556.802
1730.86,556.703
1732.31,563.886
1733.76,568.762
1735.21,550.588
1736.66,545.572
1738.11,551.741
1739.57,548.54
1741.02,540.729
1742.47,543.442
1743.92,545.728
1745.37,536.703
1746.83,531.769
1748.28,532.795
1749.73,537.146
1751.18,539.81
1752.63,533.747
1754.08,524.028
1755.54,534.445
1756.99,535.738
1758.44,527.874
1759.89,513.919
1761.34,522.19
1762.8,517.584
1764.25,514.264
1765.7,511.009
1767.15,515.61
1768.6,517.638
1770.05,516.292
1771.51,510.972
1772.96,498.052
1774.41,497.038
1775.86,500.654
1777.31,501.824
1778.76,494.76
1780.22,488.07
1781.67,496.143
1783.12,500.999
1784.57,497.042
1786.02,484.438
1787.48,485.71
1788.93,494.883
1790.38,485.903
1791.83,480.313
1793.28,491.764
1794.73,504.155
1796.19,482.168
1797.64,473.684
1799.09,481.737
1800.54,478.679
1801.99,478.302
1803.45,482.989
1804.9,483.494
1806.35,482.755
1807.8,484.643
1809.25,481.092
1810.7,475.527
1812.16,472.777
1813.61,472.707
1815.06,473.175
1816.51,470.343
1817.96,475.236
1819.41,478.109
1820.87,473.906
1822.32,469.013
1823.77,474.952
1825.22,477.456
1826.67,485.554
1828.13,470.758
1829.58,481.889
1831.03,477.706
1832.48,474.099
1833.93,472.096
1835.38,465.455
1836.84,487.561
1838.29,482.976
1839.74,492.265
1841.19,494.83
1842.64,492.051
1844.1,495.61
1845.55,493.274
1847,495.154
1848.45,493.475
1849.9,489.929
1851.35,496.816
1852.81,507.155
1854.26,507.865
1855.71,505.312
1857.16,512.126
1858.61,513.776
1860.07,504.668
1861.52,500.518
1862.97,499.739
1864.42,505.058
1865.87,507.344
1867.32,520.203
1868.78,512.068
1870.23,500.12
1871.68,495.4
1873.13,502.681
1874.58,490.98
1876.03,488.595
1877.49,503.301
1878.94,494.235
1880.39,483.124
1881.84,485.328
1883.29,490.188
1884.75,488.903
1886.2,488.123
1887.65,477.731
1889.1,471.989
1890.55,476.413
1892,477.879
1893.46,469.723
1894.91,471.082
1896.36,472.859
1897.81,465.968
1899.26,463.612
1900.72,460.862
1902.17,460.209
1903.62,458.35
1905.07,461.289
1906.52,453.318
1907.97,452.296
1909.43,458.732
1910.88,454.34
1912.33,455.453
1913.78,450.642
1915.23,455.178
1916.68,455.255
1918.14,446.111
1919.59,450.002
1921.04,437.627
1922.49,449.046
1923.94,447.182
1925.4,449.801
1926.85,451.188
1928.3,444.17
1929.75,432.87
1931.2,447.363
1932.65,452.173
1934.11,449.169
1935.56,451.102
1937.01,441.411
1938.46,448.652
1939.91,447.691
1941.37,451.988
1942.82,452.099
1944.27,452.776
1945.72,460.842
1947.17,453.166
1948.62,452.616
1950.08,447.547
1951.53,450.457
1952.98,451.988
1954.43,452.465
1955.88,447.252
1957.33,457.267
1958.79,461.158
1960.24,448.578
1961.69,443.242
1963.14,452.473
1964.59,451.254
1966.05,457.271
1967.5,458.912
1968.95,458.268
1970.4,463.949
1971.85,463.838
1973.3,462.315
1974.76,467.684
1976.21,465.566
1977.66,463.678
1979.11,464.256
1980.56,460.743
1982.02,466.272
1983.47,461.568
1984.92,459.311
1986.37,465.02
1987.82,471.435
1989.27,469.937
1990.73,467.511
1992.18,466.53
1993.63,467.4
1995.08,468.738
1996.53,476.011
1997.98,461.03
1999.44,460.956
2000.89,480.095
2002.34,462.175
2003.79,468.361
2005.24,465.241
2006.7,476.024
2008.15,465.426
2009.6,472.363
2011.05,470.548
2012.5,469.178
2013.95,473.294
2015.41,463.074
2016.86,455.301
2018.31,455.182
2019.76,453.474
2021.21,451.455
2022.67,447.769
2024.12,443.64
2025.57,456.433
2027.02,452.822
2028.47,455.871
2029.92,439.22
2031.38,446.899
2032.83,449.477
2034.28,448.159
2035.73,437.91
2037.18,441.686
2038.63,436.527
2040.09,435.366
2041.54,425.146
2042.99,434.557
2044.44,437.27
2045.89,431.43
2047.35,426.976
2048.8,431.315
2050.25,428.651
2051.7,429.213
2053.15,434.68
2054.6,429.501
2056.06,418.527
2057.51,425.347
2058.96,423.307
2060.41,419.121
2061.86,421.321
2063.32,424.44
2064.77,420.395
2066.22,416.175
2067.67,416.674
2069.12,422.578
2070.57,413.734
2072.03,421.042
2073.48,419.584
2074.93,415.232
2076.38,412.574
2077.83,419.295
2079.28,420.23
2080.74,414.64
2082.19,412.692
2083.64,419.404
2085.09,425.228
2086.54,421.366
2088,416.641
2089.45,414.133
2090.9,407.257
2092.35,405.663
2093.8,409.144
2095.25,411.603
2096.71,407.271
2098.16,417.292
2099.61,421.56
2101.06,423.222
2102.51,422.522
2103.97,420.475
2105.42,411.695
2106.87,410.034
2108.32,409.114
2109.77,405.767
2111.22,406.646
2112.68,405.729
2114.13,408.2
2115.58,405.792
2117.03,408.452
2118.48,415.194
2119.94,412.523
2121.39,420.439
2122.84,414.96
2124.29,417.837
2125.74,420.392
2127.19,421.642
2128.65,431.122
2130.1,418.46
2131.55,415.675
2133,420.35
2134.45,418.021
2135.9,417.629
2137.36,421.924
2138.81,416.497
2140.26,414.298
2141.71,407.844
2143.16,420.542
2144.62,421.754
2146.07,418.97
2147.52,417.087
2148.97,418.539
2150.42,424.887
2151.87,418.3
2153.33,431.048
2154.78,428.142
2156.23,424.6
2157.68,421.866
2159.13,425.753
2160.58,429.788
2162.04,427.145
2163.49,440.488
2164.94,438.165
2166.39,427.978
2167.84,430.514
2169.3,429.923
2170.75,433.199
2172.2,434.114
2173.65,433.199
2175.1,438.731
2176.55,443.205
2178.01,441.888
2179.46,433.342
2180.91,440.562
2182.36,442.971
2183.81,448.007
2185.27,445.253
2186.72,450.708
2188.17,454.123
2189.62,445.655
2191.07,446.103
2192.52,449.456
2193.98,449.21
2195.43,443.693
2196.88,448.775
2198.33,448.5
2199.78,441.875
2201.24,442.766
2202.69,448.91
2204.14,454.205
2205.59,438.428
2207.04,454.582
2208.49,450.437
2209.95,449.427
2211.4,458.683
2212.85,450.921
2214.3,448.496
2215.75,441.941
2217.2,449.944
2218.66,450.486
2220.11,458.683
2221.56,456.766
2223.01,451.196
2224.46,456.791
2225.92,459.873
2227.37,459.286
2228.82,443.435
2230.27,462.093
2231.72,446.292
2233.17,446.48
2234.63,459.023
2236.08,459.561
2237.53,457.176
2238.98,453.729
2240.43,468.398
2241.89,458.51
2243.34,464.244
2244.79,457.369
2246.24,466.789
2247.69,465.229
2249.14,465.065
2250.6,461.827
2252.05,463.509
2253.5,457.767
2254.95,462.853
2256.4,464.281
2257.85,473.959
2259.31,474.136
2260.76,472.756
2262.21,468.792
2263.66,475.486
2265.11,476.803
2266.57,474.222
2268.02,474.751
2269.47,485.271
2270.92,482.562
2272.37,477.128
2273.82,481.519
2275.28,484.138
2276.73,483.046
2278.18,476.758
2279.63,484.848
2281.08,488.263
2282.54,483.637
2283.99,490.065
2285.44,491.169
2286.89,493.036
2288.34,492.728
2289.79,484.138
2291.25,495.248
2292.7,498.671
2294.15,494.144
2295.6,498.52
2297.05,508.563
2298.5,508.189
2299.96,488.69
2301.41,495.495
2302.86,503.207
2304.31,508.74
2305.76,511.141
2307.22,501.586
2308.67,509.716
2310.12,505.005
2311.57,515.836
2313.02,517.227
2314.47,518.771
2315.93,518.541
2317.38,518.487
2318.83,515.356
2320.28,518.446
2321.73,515.815
2323.19,522.973
2324.64,523.926
2326.09,523.417
2327.54,527.566
2328.99,532.533
2330.44,532.857
2331.9,535.303
2333.35,547.095
2334.8,542.354
2336.25,547.169
2337.7,543.146
2339.16,546.43
2340.61,554.708
2342.06,557.228
2343.51,552.582
2344.96,564.321
2346.41,555.923
2347.87,551.881
2349.32,561.505
2350.77,570.215
2352.22,583.246
2353.67,570.576
2355.12,572.016
2356.58,573.761
2358.03,588.902
2359.48,585.508
2360.93,599.91
2362.38,588.348
2363.84,593.794
2365.29,602.574
2366.74,613.282
2368.19,603.308
2369.64,619.59
2371.09,617.6
2372.55,626.124
2374,631.206
2375.45,635.999
2376.9,648.079
2378.35,653.275
2379.8,653.443
2381.26,663.638
2382.71,662.247
2384.16,671.092
2385.61,690.165
2387.06,707.883
2388.52,709.464
2389.97,701.058
2391.42,706.398
2392.87,737.734
2394.32,750.327
2395.77,777.957
2397.23,778.121
2398.68,781.745
2400.13,790.644
2401.58,811.038
2403.03,818.418
2404.49,839.051
2405.94,851.799
2407.39,860.738
2408.84,876.281
2410.29,897.834
2411.74,899.463
2413.2,908.882
2414.65,925.484
2416.1,933.074
2417.55,948.334
2419,956.46
2420.46,963.224
2421.91,958.8
2423.36,966.996
2424.81,983.114
2426.26,989.656
2427.71,972.2
2429.17,982.47
2430.62,996.42
2432.07,986.25
2433.52,977.068
2434.97,989.385
2436.42,986.365
2437.88,983.804
2439.33,974.663
2440.78,977.241
2442.23,963.077
2443.68,957.031
2445.14,952.688
2446.59,943.56
2448.04,934.551
2449.49,929.453
2450.94,943.905
2452.39,927.352
2453.85,936.735
2455.3,926.79
2456.75,902.344
2458.2,891.332
2459.65,889.44
2461.1,899.955
2462.56,887.63
2464.01,880.296
2465.46,891.632
2466.91,882.487
2468.36,871.787
2469.82,872.505
2471.27,859.458
2472.72,863.045
2474.17,865.536
2475.62,859.215
2477.07,879.446
2478.53,865.458
2479.98,861.321
2481.43,849.427
2482.88,857.492
2484.33,865.089
2485.79,862.848
2487.24,853.494
2488.69,848.13
2490.14,853.084
2491.59,860.989
2493.04,861.887
2494.5,847.994
2495.95,876.244
2497.4,862.491
2498.85,862.212
2500.3,856.351
2501.76,874.718
2503.21,864.806
2504.66,861.268
2506.11,879.315
2507.56,868.257
2509.01,874.328
2510.47,876.355
2511.92,880.365
2513.37,890.758
2514.82,890.975
2516.27,895.962
2517.72,897.378
2519.18,914.489
2520.63,916.931
2522.08,925.505
2523.53,934.904
2524.98,929.33
2526.44,936.808
2527.89,940.219
2529.34,948.157
2530.79,971.868
2532.24,980.91
2533.69,988.228
2535.15,1005.41
2536.6,1008.1
2538.05,1008.29
2539.5,1021.14
2540.95,1042.12
2542.41,1044.87
2543.86,1050.71
2545.31,1070.24
2546.76,1091.32
2548.21,1105.15
2549.66,1114.03
2551.12,1136.11
2552.57,1154.45
2554.02,1162.04
2555.47,1186.92
2556.92,1192.32
2558.37,1214.04
2559.83,1226.64
2561.28,1264.44
2562.73,1277.63
2564.18,1303.21
2565.63,1326.35
2567.09,1360.21
2568.54,1383.22
2569.99,1401.47
2571.44,1423.26
2572.89,1442.24
2574.34,1492.97
2575.8,1528.95
2577.25,1556.12
2578.7,1591.38
2580.15,1622.16
2581.6,1679.49
2583.06,1729.77
2584.51,1744.98
2585.96,1795.5
2587.41,1851.92
2588.86,1893.99
2590.31,1942.23
2591.77,2010.28
2593.22,2075.09
2594.67,2124.67
2596.12,2180.79
2597.57,2256.34
2599.02,2353.01
2600.48,2428.12
2601.93,2489.71
2603.38,2593.74
2604.83,2692.61
2606.28,2772.81
2607.74,2845
2609.19,2976.59
2610.64,3115.92
2612.09,3227.27
2613.54,3355.62
2614.99,3459.58
2616.45,3596.54
2617.9,3754.14
2619.35,3896.24
2620.8,4005.8
2622.25,4147.52
2623.71,4336.82
2625.16,4505.34
2626.61,4682.36
2628.06,4861.52
2629.51,5051.55
2630.96,5239.24
2632.42,5412.24
2633.87,5598.42
2635.32,5802.24
2636.77,5948.6
2638.22,6139.29
2639.68,6328.09
2641.13,6483.03
2642.58,6651.48
2644.03,6840.48
2645.48,6963.41
2646.93,7121.75
2648.39,7303.95
2649.84,7333.87
2651.29,7464.02
2652.74,7559.12
2654.19,7624.91
2655.64,7703.3
2657.1,7731.87
2658.55,7738.02
2660,7728.21
2661.45,7710.52
2662.9,7621.05
2664.36,7611.12
2665.81,7509.37
2667.26,7438.24
2668.71,7350.28
2670.16,7198.05
2671.61,7037.53
2673.07,6868.43
2674.52,6773.95
2675.97,6555.31
2677.42,6376.89
2678.87,6185.92
2680.32,6012.42
2681.78,5836.68
2683.23,5664.42
2684.68,5446.68
2686.13,5231.36
2687.58,5022.53
2689.04,4825.48
2690.49,4654.04
2691.94,4482.36
2693.39,4265.52
2694.84,4124.74
2696.29,3953.29
2697.75,3790.55
2699.2,3627.61
2700.65,3492.59
2702.1,3354.79
2703.55,3187.19
2705.01,3056.64
2706.46,2916.16
2707.91,2805.75
2709.36,2736.08
2710.81,2605.13
2712.26,2473.31
2713.72,2400.25
2715.17,2334.42
2716.62,2247.98
2718.07,2154.7
2719.52,2059.74
2720.98,1995.58
2722.43,1926.68
2723.88,1874.99
2725.33,1811.02
2726.78,1746.71
2728.23,1689.44
2729.69,1637.28
2731.14,1593.7
2732.59,1561.02
2734.04,1516.06
2735.49,1472.04
2736.94,1436.55
2738.4,1404.43
2739.85,1364.87
2741.3,1338.21
2742.75,1305.73
2744.2,1289.38
2745.66,1241.88
2747.11,1230.74
2748.56,1199.88
2750.01,1177.41
2751.46,1150.1
2752.91,1122.78
2754.37,1105.66
2755.82,1102.42
2757.27,1074.39
2758.72,1055.94
2760.17,1047.49
2761.63,1025.64
2763.08,1002.63
2764.53,1017.85
2765.98,975.082
2767.43,979.88
2768.88,957.027
2770.34,935.491
2771.79,928.862
2773.24,917.251
2774.69,924.212
2776.14,926.585
2777.59,893.807
2779.05,904.396
2780.5,870.268
2781.95,852.776
2783.4,867.588
2784.85,844.382
2786.31,823.984
2787.76,826.253
2789.21,818.315
2790.66,820.934
2792.11,819.731
2793.56,800.696
2795.02,802.85
2796.47,781.13
2797.92,770.889
2799.37,777.424
2800.82,760.403
2802.28,764.593
2803.73,751.763
2805.18,754.599
2806.63,761.909
2808.08,751.365
2809.53,737.915
2810.99,739.672
2812.44,718.436
2813.89,731.832
2815.34,726.579
2816.79,718.908
2818.24,714.532
2819.7,704.276
2821.15,697.282
2822.6,704.432
2824.05,677.909
2825.5,679.957
2826.96,686.151
2828.41,693.637
2829.86,682.416
2831.31,687.267
2832.76,678.615
2834.21,667.164
2835.67,677.281
2837.12,674.634
2838.57,663.125
2840.02,679.526
2841.47,664.792
2842.93,668.087
2844.38,655.405
2845.83,663.372
2847.28,660.531
2848.73,657.941
2850.18,652.154
2851.64,667.439
2853.09,661.775
2854.54,660.113
2855.99,652.823
2857.44,646.757
2858.9,638.109
2860.35,659.706
2861.8,643.211
2863.25,658.221
2864.7,661.779
2866.15,657.359
2867.61,652.323
2869.06,650.816
2870.51,666.31
2871.96,652.569
2873.41,638.922
2874.86,654.309
2876.32,644.151
2877.77,666.154
2879.22,660.182
2880.67,654.284
2882.12,640.514
2883.58,640.613
2885.03,648.407
2886.48,659.653
2887.93,658.561
2889.38,672.66
2890.83,660.117
2892.29,660.679
2893.74,655.282
2895.19,664.131
2896.64,661.057
2898.09,649.499
2899.54,661.442
2901,658.139
2902.45,660.531
2903.9,662.165
2905.35,672.729
2906.8,666.848
2908.26,658.816
2909.71,655.553
2911.16,649.47
2912.61,658.91
2914.06,662.017
2915.51,655.729
2916.97,657.022
2918.42,644.315
2919.87,649.322
2921.32,630.992
2922.77,641.799
2924.23,630.734
2925.68,627.224
2927.13,630.561
2928.58,633.947
2930.03,619.882
2931.48,626.818
2932.94,609.169
2934.39,603.431
2935.84,598.543
2937.29,592.735
2938.74,605.052
2940.2,599.643
2941.65,575.842
2943.1,567.637
2944.55,575.678
2946,567.732
2947.45,564.391
2948.91,565.737
2950.36,555.755
2951.81,552.599
2953.26,545.055
2954.71,530.566
2956.16,539.978
2957.62,530.119
2959.07,520.014
2960.52,522.358
2961.97,518.541
2963.42,517.03
2964.88,507.672
2966.33,513.185
2967.78,510.065
2969.23,501.967
2970.68,502.961
2972.13,501.967
2973.59,503.236
2975.04,499.973
2976.49,488.878
2977.94,490.886
2979.39,478.831
2980.84,484.516
2982.3,481.786
2983.75,483.485
2985.2,473.873
2986.65,473.828
2988.1,477.062
2989.56,468.283
2991.01,468.521
2992.46,473.298
2993.91,462.413
2995.36,467.503
2996.81,477.403
2998.27,465.582
2999.72,462.688
3001.17,453.17
3002.62,450.252
3004.07,450.667
3005.53,461.761
3006.98,455.013
3008.43,458.092
3009.88,460.23
3011.33,454.529
3012.78,455.74
3014.24,452.579
3015.69,456.515
3017.14,451.857
3018.59,449.953
3020.04,441.243
3021.5,452.181
3022.95,450.958
3024.4,446.32
3025.85,444.518
3027.3,445.499
3028.75,456.466
3030.21,444.297
3031.66,444.859
3033.11,448.368
3034.56,440.533
3036.01,439.06
3037.46,446.997
3038.92,447.055
3040.37,439.462
3041.82,446.292
3043.27,436.334
3044.72,446.058
3046.18,438.768
3047.63,442.339
3049.08,440.455
3050.53,452.181
3051.98,448.175
3053.43,445.709
3054.89,446.805
3056.34,455.346
3057.79,449.76
3059.24,442.479
3060.69,444.592
3062.15,450.084
3063.6,441.957
3065.05,442.885
3066.5,455.531
3067.95,453.766
3069.4,459.565
3070.86,460.464
3072.31,462.381
3073.76,451.685
3075.21,456.121
3076.66,467.482
3078.11,464.146
3079.57,463.009
3081.02,472.395
3082.47,468.878
3083.92,471.521
3085.37,473.237
3086.83,487.618
3088.28,477.891
3089.73,478.659
3091.18,488.09
3092.63,497.268
3094.08,502.423
3095.54,495.782
3096.99,503.691
3098.44,527.973
3099.89,513.197
3101.34,528.449
3102.8,528.773
3104.25,531.921
3105.7,541.669
3107.15,542.798
3108.6,554.831
3110.05,564.908
3111.51,549.057
3112.96,566.96
3114.41,578.813
3115.86,586.357
3117.31,594.627
3118.76,602.442
3120.22,620.559
3121.67,609.194
3123.12,618.966
3124.57,637.617
3126.02,635.4
3127.48,634.727
3128.93,640.342
3130.38,647.738
3131.83,661.759
3133.28,666.992
3134.73,663.778
3136.19,676.6
3137.64,681.537
3139.09,677.392
3140.54,685.843
3141.99,683.508
3143.45,682.12
3144.9,700.877
3146.35,694.684
3147.8,687.583
3149.25,708.848
3150.7,692.943
3152.16,699.199
3153.61,690.325
3155.06,703.623
3156.51,699.695
3157.96,701.32
3159.42,688.79
3160.87,705.076
3162.32,703.943
3163.77,694.282
3165.22,707.12
3166.67,717.081
3168.13,706
3169.58,706.549
3171.03,729.124
3172.48,723.226
3173.93,724.994
3175.38,727.839
3176.84,742.446
3178.29,750.946
3179.74,773.767
3181.19,748.443
3182.64,759.758
3184.1,783.625
3185.55,771.612
3187,771.329
3188.45,784.348
3189.9,814.006
3191.35,811.962
3192.81,816.744
3194.26,801.672
3195.71,822.531
3197.16,834.987
3198.61,830.415
3200.06,828.601
3201.52,837.565
3202.97,841.452
3204.42,834.955
3205.87,821.845
3207.32,818.545
3208.78,813.004
3210.23,807.71
3211.68,784.717
3213.13,766.354
3214.58,768.299
3216.03,753.586
3217.49,750.914
3218.94,745.356
3220.39,715.735
3221.84,705.413
3223.29,679.773
3224.75,664.008
3226.2,651.399
3227.65,637.551
3229.1,629.326
3230.55,608.496
3232,586.768
3233.46,577.562
3234.91,562.146
3236.36,545.781
3237.81,532.233
3239.26,529.339
3240.72,513.702
3242.17,507.365
3243.62,487.869
3245.07,482.804
3246.52,475.654
3247.97,472.978
3249.43,465.43
3250.88,449.875
3252.33,441.186
3253.78,445.462
3255.23,435.222
3256.68,432.049
3258.14,427.276
3259.59,410.715
3261.04,412.931
3262.49,406.809
3263.94,401.914
3265.4,409.689
3266.85,399.183
3268.3,404.969
3269.75,392.526
3271.2,401.551
3272.65,396.669
3274.11,386.66
3275.56,379.438
3277.01,395.063
3278.46,392.719
3279.91,388.793
3281.37,382.749
3282.82,380.086
3284.27,381.889
3285.72,384.005
3287.17,376.715
3288.62,375.982
3290.08,386.018
3291.53,384.169
3292.98,377.868
3294.43,376.119
3295.88,378.405
3297.33,381.744
3298.79,373.505
3300.24,363.023
3301.69,362.523
3303.14,364.038
3304.59,374.56
3306.05,366.617
3307.5,363.06
3308.95,362.397
3310.4,366.815
3311.85,378.486
3313.3,370.65
3314.76,367.542
3316.21,366.687
3317.66,365.417
3319.11,358.605
3320.56,363.171
3322.02,368.237
3323.47,369.185
3324.92,364.135
3326.37,358.55
3327.82,356.043
3329.27,364.501
3330.73,361.67
3332.18,353.86
3333.63,356.625
3335.08,354.788
3336.53,360.861
3337.98,367.849
3339.44,363.881
3340.89,363.762
3342.34,358.381
3343.79,361.111
3345.24,360.958
3346.7,356.993
3348.15,356.845
3349.6,356.233
3351.05,362.498
3352.5,358.637
3353.95,360.394
3355.41,366.288
3356.86,353.082
3358.31,357.723
3359.76,355.436
3361.21,353.128
3362.67,357.026
3364.12,343.246
3365.57,359.235
3367.02,356.063
3368.47,354.799
3369.92,359.088
3371.38,356.846
3372.83,365.728
3374.28,355.842
3375.73,352.316
3377.18,353.285
3378.63,358.394
3380.09,351.382
3381.54,345.419
3382.99,348.793
3384.44,352.144
3385.89,355.274
3387.35,352.457
3388.8,357.341
3390.25,357.087
3391.7,354.204
3393.15,352.834
3394.6,355.642
3396.06,359.315
3397.51,345.341
3398.96,349.309
3400.41,347.644
3401.86,345.517
3403.32,354.562
3404.77,360.352
3406.22,362.789
3407.67,351.357
3409.12,350.35
3410.57,349.674
3412.03,354.221
3413.48,349.99
3414.93,355.8
3416.38,347.063
3417.83,350.642
3419.28,356.145
3420.74,353.751
3422.19,359.631
3423.64,353.278
3425.09,351.642
3426.54,350.844
3428,344.947
3429.45,345.803
3430.9,345.891
3432.35,345.845
3433.8,343.854
3435.25,336.891
3436.71,344.563
3438.16,350.386
3439.61,348.295
3441.06,351.784
3442.51,346.605
3443.97,349.88
3445.42,357.55
3446.87,345.69
3448.32,345.03
3449.77,345.798
3451.22,345.662
3452.68,349.962
3454.13,344.56
3455.58,341.903
3457.03,343.776
3458.48,344.866
3459.94,336.216
3461.39,340.137
3462.84,337.792
3464.29,344.382
3465.74,348.539
3467.19,353.3
3468.65,343.565
3470.1,347.696
3471.55,343.487
3473,341.436
3474.45,347.563
3475.9,341.876
3477.36,340.314
3478.81,333.118
3480.26,336.991
3481.71,348.05
3483.16,346.915
3484.62,353.228
3486.07,346.669
3487.52,350.174
3488.97,351.979
3490.42,358.109
3491.87,337.877
3493.33,343.879
3494.78,349.497
3496.23,342.187
3497.68,340.859
3499.13,347.587
3500.58,350.115
3502.04,344.313
3503.49,351.676
3504.94,346.511
3506.39,350.225
3507.84,345.549
3509.3,335.3
3510.75,348.54
3512.2,345.494
3513.65,345.53
3515.1,347.914
3516.55,358.419
3518.01,354.451
3519.46,350.808
3520.91,343.815
3522.36,346.439
3523.81,353.071
3525.27,335.264
3526.72,339.919
3528.17,342.614
3529.62,346.65
3531.07,351.525
3532.52,347.039
3533.98,354.784
3535.43,345.933
3536.88,351.16
3538.33,347.049
3539.78,346.433
3541.24,348.416
3542.69,338.026
3544.14,348.614
3545.59,353.407
3547.04,339.585
3548.49,343.262
3549.95,343.936
3551.4,344.387
3552.85,335.49
3554.3,343.997
3555.75,341.393
3557.2,345.794
3558.66,336.28
3560.11,340.52
3561.56,344.978
3563.01,338.542
3564.46,343.548
3565.92,347.895
3567.37,343.64
3568.82,345.949
3570.27,343.036
3571.72,346.642
3573.17,340.588
3574.63,345.471
3576.08,348.746
3577.53,335.82
3578.98,339.751
3580.43,342.293
3581.89,346.07
3583.34,350.464
3584.79,344.842
3586.24,342.051
3587.69,343.121
3589.14,343.157
3590.6,344.633
3592.05,339.291
3593.5,339.362
3594.95,344.663
3596.4,337.719
3597.85,342.093
3599.31,340.277
3600.76,340.494
3602.21,340.126
3603.66,343.403
3605.11,342.908
3606.57,341.628
3608.02,345.895
3609.47,341.31
3610.92,343.326
3612.37,345.072
3613.82,341.272
3615.28,343.949
3616.73,339.904
3618.18,336.228
3619.63,348.888
3621.08,334.505
3622.54,341.264
3623.99,335.013
3625.44,344.464
3626.89,348.686
3628.34,341.606
3629.79,343.751
3631.25,342.369
3632.7,345.756
3634.15,338.307
3635.6,339.95
3637.05,351.266
3638.5,346.363
3639.96,351.773
3641.41,337.462
3642.86,338.172
3644.31,343.754
3645.76,337.916
3647.22,339.784
3648.67,342.517
3650.12,334.159
3651.57,344.275
3653.02,340.694
3654.47,343.545
3655.93,341.035
3657.38,332.457
3658.83,350.114
3660.28,344.938
3661.73,342.741
3663.19,340.527
3664.64,342.899
3666.09,347.256
3667.54,350.138
3668.99,340.89
3670.44,337.107
3671.9,348.393
3673.35,354.284
3674.8,349.855
3676.25,343.696
3677.7,349.253
3679.16,346.251
3680.61,350.238
3682.06,342.128
3683.51,344.006
3684.96,344.956
3686.41,351.319
3687.87,341.875
3689.32,340.332
3690.77,338.23
3692.22,354.081
3693.67,341.029
3695.12,342.178
3696.58,352.641
3698.03,338.899
3699.48,341.629
3700.93,348.553
3702.38,351.149
3703.84,343.845
3705.29,350.583
3706.74,349.759
3708.19,347.003
3709.64,340.474
3711.09,340.21
3712.55,344.317
3714,343.824
3715.45,351.81
3716.9,350.584
3718.35,345.419
3719.8,351.463
3721.26,342.543
3722.71,349.595
3724.16,349.684
3725.61,352.941
3727.06,354.152
3728.52,356.532
3729.97,355.441
3731.42,360.02
3732.87,347.999
3734.32,351.641
3735.77,347.882
3737.23,352.951
3738.68,352.624
3740.13,349.027
3741.58,345.808
3743.03,362.754
3744.49,353.016
3745.94,350.339
3747.39,352.067
3748.84,349.944
3750.29,350.966
3751.74,350.119
3753.2,348.686
3754.65,348.443
3756.1,355.433
3757.55,349.17
3759,353.407
3760.46,359.722
3761.91,353.064
3763.36,357.506
3764.81,357.67
3766.26,347.279
3767.71,352.371
3769.17,356.164
3770.62,356.723
3772.07,356.486
3773.52,355.475
3774.97,348.063
3776.42,352.111
3777.88,349.797
3779.33,359.162
3780.78,356.13
3782.23,355.283
3783.68,359.269
3785.14,347.469
3786.59,350.844
3788.04,356.378
3789.49,363.092
3790.94,366.035
3792.39,354.836
3793.85,353.917
3795.3,356.119
3796.75,357.555
3798.2,360.441
3799.65,348.46
3801.1,350.252
3802.56,357.891
3804.01,357.99
3805.46,365.8
3806.91,358.335
3808.36,362.383
3809.82,355.779
3811.27,351.753
3812.72,356.023
3814.17,362.477
3815.62,362.857
3817.07,364.442
3818.53,360.686
3819.98,360.208
3821.43,361.606
3822.88,359.941
3824.33,368.862
3825.79,366.608
3827.24,359.526
3828.69,359.955
3830.14,351.241
3831.59,362.608
3833.04,360.488
3834.5,359.931
3835.95,354.13
3837.4,353.683
3838.85,368.285
3840.3,355.953
3841.76,362.348
3843.21,361.689
3844.66,361.034
3846.11,361.067
3847.56,357.087
3849.01,370.231
3850.47,369.437
3851.92,370.045
3853.37,365.277
3854.82,375.456
3856.27,371.262
3857.72,373.06
3859.18,364.847
3860.63,369.508
3862.08,365.24
3863.53,371.711
3864.98,383.082
3866.44,373.533
3867.89,372.587
3869.34,367.704
3870.79,363.624
3872.24,374.835
3873.69,377.547
3875.15,371.291
3876.6,373.5
3878.05,373.469
3879.5,375.149
3880.95,384.17
3882.41,377.5
3883.86,371.471
3885.31,371.302
3886.76,379.888
3888.21,375.281
3889.66,376.595
3891.12,378.242
3892.57,366.561
3894.02,381.365
3895.47,378.486
3896.92,388.034
3898.37,375.432
3899.83,374.712
3901.28,382.019
3902.73,380.593
3904.18,383.086
3905.63,391.534
3907.09,373.208
3908.54,387.3
3909.99,388.748
3911.44,390.099
3912.89,399.165
3914.34,390.702
3915.8,388.794
3917.25,399.655
3918.7,392.484
3920.15,382.299
3921.6,395.042
3923.06,381.589
3924.51,380.556
3925.96,389.33
3927.41,398.99
3928.86,394.75
3930.31,400.039
3931.77,402.74
3933.22,403.013
3934.67,403.531
3936.12,403.595
3937.57,399.31
3939.02,388.074
3940.48,403.257
3941.93,415.734
3943.38,415.682
3944.83,403.374
3946.28,411.696
3947.74,416.954
3949.19,421.759
3950.64,415.393
3952.09,417.357
3953.54,405.05
3954.99,416.49
3956.45,414.36
3957.9,411.695
3959.35,420.572
3960.8,414.498
3962.25,420.572
3963.71,416.285
3965.16,413.554
3966.61,418.417
3968.06,420.837
3969.51,420.855
3970.96,429.525
3972.42,423.112
3973.87,423.75
3975.32,429.583
3976.77,429.866
3978.22,424.813
3979.68,433.49
3981.13,429.533
3982.58,433.002
3984.03,438.362
3985.48,440.049
3986.93,429.993
3988.39,439.491
3989.84,440.669
3991.29,432.915
3992.74,439.856
3994.19,434.5
3995.64,436.589
3997.1,443.599
3998.55,441.12
4000,442.277
