-20,18.7695
-18.5482,22.3764
-17.0964,26.7255
-15.6446,30.3093
-14.1928,38.0372
-12.7411,43.6636
-11.2893,50.5772
-9.83749,55.3796
-8.3857,88.2654
-6.93391,145.244
-5.48212,1430.47
-4.03034,9513.5
-2.57855,30050.5
-1.12676,47569.8
0.325027,55302.6
1.77681,45189.1
3.2286,29621.2
4.68039,8328.31
6.13218,1333.22
7.58397,222.469
9.03575,133.695
10.4875,131.242
11.9393,120.678
13.3911,116.745
14.8429,110.778
16.2947,104.343
17.7465,100.478
19.1983,89.1001
20.6501,75.1541
22.1018,61.3363
23.5536,57.7655
25.0054,39.0643
26.4572,31.8957
27.909,28.344
29.3608,25.4677
30.8126,20.7318
32.2644,14.663
33.7161,10.8535
35.1679,12.2789
36.6197,14.7044
38.0715,13.6438
39.5233,11.8278
40.9751,10.8877
42.4269,10.3422
43.8787,11.2341
45.3304,12.1867
46.7822,31.6532
48.234,57.3417
49.6858,100.878
51.1376,186.833
52.5894,361.109
54.0412,603.813
55.493,904.197
56.9447,1245.94
58.3965,1587.49
59.8483,1883.75
61.3001,2133.77
62.7519,2353.56
64.2037,2543.17
65.6555,2673.52
67.1073,2730.34
68.559,2777.72
70.0108,2806.16
71.4626,2801.83
72.9144,2782.46
74.3662,2795.72
75.818,2837.23
77.2698,2898.6
78.7216,2938.36
80.1733,3021.34
81.6251,3074.96
83.0769,3126.8
84.5287,3189.91
85.9805,3177.43
87.4323,3161.15
88.8841,3071.04
90.3359,2932.53
91.7877,2795.13
93.2394,2610.13
94.6912,2469.38
96.143,2350.21
97.5948,2256.45
99.0466,2197.16
100.498,2129.88
101.95,2082.2
103.402,2054.04
104.854,2012.49
106.306,1969.16
107.757,1909.68
109.209,1864.54
110.661,1830.89
112.113,1817.89
113.564,1805.25
115.016,1787.09
116.468,1781.25
117.92,1757.5
119.372,1700.66
120.823,1670.96
122.275,1666.86
123.727,1643.62
125.179,1628.72
126.631,1611.06
128.082,1588.3
129.534,1579.13
130.986,1547.83
132.438,1499.66
133.889,1470.97
135.341,1446.82
136.793,1419.46
138.245,1399.5
139.697,1382.76
141.148,1333.6
142.6,1319.06
144.052,1291.42
145.504,1273.51
146.956,1259.91
148.407,1229.17
149.859,1246.77
151.311,1248.68
152.763,1222.27
154.215,1184.16
155.666,1197.6
157.118,1188.08
158.57,1166
160.022,1163.65
161.473,1176.76
162.925,1182.28
164.377,1184.29
165.829,1193.65
167.281,1188.2
168.732,1175.32
170.184,1206.32
171.636,1244.02
173.088,1262.66
174.54,1274.9
175.991,1282.98
177.443,1270.76
178.895,1249.62
180.347,1220.17
181.798,1178.33
183.25,1125.29
184.702,1092.65
186.154,1080.76
187.606,1045.31
189.057,1017.37
190.509,999.646
191.961,985.861
193.413,970.011
194.865,980.299
196.316,975.994
197.768,955.409
199.22,953.793
200.672,952.853
202.124,965.618
203.575,955.567
205.027,946.395
206.479,943.056
207.931,938.918
209.382,953.424
210.834,958.897
212.286,952.677
213.738,942.687
215.19,955.603
216.641,942.652
218.093,925.423
219.545,924.518
220.997,947.361
222.449,917.059
223.9,928.701
225.352,938.171
226.804,942.907
228.256,947.739
229.707,947.871
231.159,944.682
232.611,937.6
234.063,936.731
235.515,919.379
236.966,917.419
238.418,918.685
239.87,917.507
241.322,913.308
242.774,904.364
244.225,901.069
245.677,912.965
247.129,918.105
248.581,909.108
250.033,894.673
251.484,893.865
252.936,889.692
254.388,881.661
255.84,885.158
257.291,910.426
258.743,889.982
260.195,865.067
261.647,874.926
263.099,885.474
264.55,861.447
266.002,849.347
267.454,866.598
268.906,856.717
270.358,854.681
271.809,876.758
273.261,852.452
274.713,855.554
276.165,839.091
277.616,827.817
279.068,820.757
280.52,823.654
281.972,833.087
283.424,806.539
284.875,783.03
286.327,786.652
287.779,813.854
289.231,800.278
290.683,788.961
292.134,764.5
293.586,749.747
295.038,759.908
296.49,779.898
297.941,755.252
299.393,759.969
300.845,764.563
302.297,745.5
303.749,726.773
305.2,723.94
306.652,720.802
308.104,717.056
309.556,714.408
311.008,715.433
312.459,718.309
313.911,721.94
315.363,707.528
316.815,689.356
318.267,703.962
319.718,690.749
321.17,692.157
322.622,706.705
324.074,712.379
325.525,687.018
326.977,680.866
328.429,671.928
329.881,676.795
331.333,686.361
332.784,679.178
334.236,667.665
335.688,661.2
337.14,673.724
338.592,671.131
340.043,662.635
341.495,679.596
342.947,647.942
344.399,657.606
345.85,670.109
347.302,675.632
348.754,664.391
350.206,677.348
351.658,660.977
353.109,653.141
354.561,648.394
356.013,643.568
357.465,655.299
358.917,651.665
360.368,640.611
361.82,632.819
363.272,629.842
364.724,616.019
366.176,649.333
367.627,657.131
369.079,652.992
370.531,646.699
371.983,636.815
373.434,625.071
374.886,631.007
376.338,630.031
377.79,624.686
379.242,616.93
380.693,617.997
382.145,623.18
383.597,622.217
385.049,617.29
386.501,618.784
387.952,620.877
389.404,627.195
390.856,634.604
392.308,635.487
393.759,640.317
395.211,645.129
396.663,647.535
398.115,621.743
399.567,641.422
401.018,638.552
402.47,615.24
403.922,614.757
405.374,621.308
406.826,635.125
408.277,622.094
409.729,621.051
411.181,643.78
412.633,622.086
414.085,618.48
415.536,624.803
416.988,627.701
418.44,627.323
419.892,641.697
421.343,613.676
422.795,621.368
424.247,627.839
425.699,622.975
427.151,610.637
428.602,604.434
430.054,611.102
431.506,610.171
432.958,610.606
434.41,598.941
435.861,576.094
437.313,599.464
438.765,615.048
440.217,618.927
441.668,614.426
443.12,610.388
444.572,606.612
446.024,610.174
447.476,596.781
448.927,590.791
450.379,590.001
451.831,586.625
453.283,599.408
454.735,602.648
456.186,593.859
457.638,595.93
459.09,604.315
460.542,602.348
461.993,612.234
463.445,592.242
464.897,609.648
466.349,611.817
467.801,591.785
469.252,600.014
470.704,604.054
472.156,602.799
473.608,604.409
475.06,611.685
476.511,612.927
477.963,614.135
479.415,585.105
480.867,598.256
482.319,610.619
483.77,600.286
485.222,582.313
486.674,582.172
488.126,593.469
489.577,598.346
491.029,599.014
492.481,597.944
493.933,604.19
495.385,599.414
496.836,582.679
498.288,580.187
499.74,586.126
501.192,591.031
502.644,593.47
504.095,607.188
505.547,595.868
506.999,589.896
508.451,580.657
509.902,575.415
511.354,598.959
512.806,584.709
514.258,580.253
515.71,569.381
517.161,567.109
518.613,581.972
520.065,585.375
521.517,560.713
522.969,572.804
524.42,581.561
525.872,587.168
527.324,587.365
528.776,582.769
530.228,588.668
531.679,585.037
533.131,576.082
534.583,572.988
536.035,579.189
537.486,600.314
538.938,584.38
540.39,587.481
541.842,592.803
543.294,593.985
544.745,585.797
546.197,590.611
547.649,599.716
549.101,590.894
550.553,581.553
552.004,579.452
553.456,590.407
554.908,581.502
556.36,571.017
557.811,574.683
559.263,581.918
560.715,582.502
562.167,586.135
563.619,557.525
565.07,581.01
566.522,589.279
567.974,590.589
569.426,591.413
570.878,594.468
572.329,595.992
573.781,583.649
575.233,575.107
576.685,575.599
578.137,576.646
579.588,567.997
581.04,560.07
582.492,556.975
583.944,569.688
585.395,577.569
586.847,580.562
588.299,589.733
589.751,573.13
591.203,560.235
592.654,562.453
594.106,564.888
595.558,569.628
597.01,563.71
598.462,576.224
599.913,580.071
601.365,587.781
602.817,584.036
604.269,577.152
605.72,584.509
607.172,577.748
608.624,583.642
610.076,585.042
611.528,571.983
612.979,569.537
614.431,579.714
615.883,579.548
617.335,591.014
618.787,573.41
620.238,573.978
621.69,574.609
623.142,568.578
624.594,553.017
626.046,573.425
627.497,593.559
628.949,592.56
630.401,597.811
631.853,602.297
633.304,592.58
634.756,595.265
636.208,592.139
637.66,599.447
639.112,593.877
640.563,581.112
642.015,589.238
643.467,612.827
644.919,595.218
646.371,578.572
647.822,573.211
649.274,573.529
650.726,590.481
652.178,596.653
653.629,601.401
655.081,609.299
656.533,609.288
657.985,604.609
659.437,604.774
660.888,617.104
662.34,588.807
663.792,596.277
665.244,597.409
666.696,599.926
668.147,603.599
669.599,607.471
671.051,608.077
672.503,618.404
673.954,617.603
675.406,615.354
676.858,624.626
678.31,628.871
679.762,616.962
681.213,611.899
682.665,598.979
684.117,593.64
685.569,600.664
687.021,604.178
688.472,643.92
689.924,608.911
691.376,608.136
692.828,621.516
694.28,622.326
695.731,616.303
697.183,629.846
698.635,601.033
700.087,624.957
701.538,646.635
702.99,636.531
704.442,622.891
705.894,623.133
707.346,626.585
708.797,619.37
710.249,632.839
711.701,633.648
713.153,627.115
714.605,622.149
716.056,624.413
717.508,633.426
718.96,632.256
720.412,630.517
721.863,639.506
723.315,629.801
724.767,608.165
726.219,620.465
727.671,653.889
729.122,633.085
730.574,636.765
732.026,644.211
733.478,645.422
734.93,642.617
736.381,632.331
737.833,623.005
739.285,646.029
740.737,632.701
742.189,634.559
743.64,644.519
745.092,648.944
746.544,634.921
747.996,637.845
749.447,624.727
750.899,626.913
752.351,635.581
753.803,632.959
755.255,623.984
756.706,617.087
758.158,626.212
759.61,636.7
761.062,640.487
762.514,638.529
763.965,643.125
765.417,655.749
766.869,626.156
768.321,626.508
769.772,631.432
771.224,638.187
772.676,636.47
774.128,622.425
775.58,623.108
777.031,639.372
778.483,654.611
779.935,648.771
781.387,651.481
782.839,651.058
784.29,646.953
785.742,640.41
787.194,635.841
788.646,641.551
790.098,639.539
791.549,637.997
793.001,642.122
794.453,636.13
795.905,652.454
797.356,668.561
798.808,647.795
800.26,655.088
801.712,659.295
803.164,638.164
804.615,637.642
806.067,654.973
807.519,674.993
808.971,667.859
810.423,671.572
811.874,666.399
813.326,663.671
814.778,659.587
816.23,674.814
817.681,659.099
819.133,668.518
820.585,675.592
822.037,669.688
823.489,653.788
824.94,661.347
826.392,691.623
827.844,653.017
829.296,674.097
830.748,672.882
832.199,666.082
833.651,671.637
835.103,670.131
836.555,697.525
838.007,682.866
839.458,681.7
840.91,690.495
842.362,694.458
843.814,695.296
845.265,672.223
846.717,689.147
848.169,704.373
849.621,712.475
851.073,699.195
852.524,710.69
853.976,712.97
855.428,702.216
856.88,722.596
858.332,692.906
859.783,709.921
861.235,722.826
862.687,726.447
864.139,717.157
865.59,704.066
867.042,688.132
868.494,710.395
869.946,686.416
871.398,694.683
872.849,696.678
874.301,692.182
875.753,702.345
877.205,685.609
878.657,703.729
880.108,713.658
881.56,714.454
883.012,698.641
884.464,699.61
885.915,696.032
887.367,689.793
888.819,702.407
890.271,723.249
891.723,706.8
893.174,717.879
894.626,722.864
896.078,710.598
897.53,710.01
898.982,712.235
900.433,726.911
901.885,722.54
903.337,724.955
904.789,726.64
906.241,726.559
907.692,732.627
909.144,724.535
910.596,716.882
912.048,736.723
913.499,730.281
914.951,731.889
916.403,750.1
917.855,753.836
919.307,752.901
920.758,770.507
922.21,752.123
923.662,758.002
925.114,758.932
926.566,764.838
928.017,764.994
929.469,744.408
930.921,742.051
932.373,755.344
933.824,750.213
935.276,772.535
936.728,760.476
938.18,769.508
939.632,770.181
941.083,745.503
942.535,733.788
943.987,749.311
945.439,757.373
946.891,771.937
948.342,756.81
949.794,741.667
951.246,751.382
952.698,760.799
954.15,737.034
955.601,739.569
957.053,737.719
958.505,769.518
959.957,763.559
961.408,758.242
962.86,749.67
964.312,744.223
965.764,771.578
967.216,753.965
968.667,762.514
970.119,766.345
971.571,778.03
973.023,772.535
974.475,756.44
975.926,767.444
977.378,778.785
978.83,770.621
980.282,747.635
981.733,768.076
983.185,776.119
984.637,770.867
986.089,771.397
987.541,785.904
988.992,754.33
990.444,763.643
991.896,783.843
993.348,785.602
994.8,786.306
996.251,784.558
997.703,783.501
999.155,808.134
1000.61,784.707
1002.06,786.597
1003.51,806.161
1004.96,807.476
1006.41,812.065
1007.87,823.338
1009.32,824.769
1010.77,810.794
1012.22,804.895
1013.67,808.307
1015.12,840.378
1016.58,846.277
1018.03,838.2
1019.48,837.7
1020.93,849.614
1022.38,843.621
1023.84,846.846
1025.29,842.672
1026.74,840.247
1028.19,851.633
1029.64,860.142
1031.09,868.752
1032.55,884.719
1034,897.502
1035.45,889.05
1036.9,902.308
1038.35,896.43
1039.8,904.381
1041.26,923.596
1042.71,915.531
1044.16,916.98
1045.61,931.108
1047.06,931.169
1048.52,942.064
1049.97,979.201
1051.42,973.561
1052.87,968.904
1054.32,983.55
1055.77,999.4
1057.23,1010.23
1058.68,1033.53
1060.13,1039.65
1061.58,1043.46
1063.03,1039.18
1064.49,1054.71
1065.94,1055.54
1067.39,1056.16
1068.84,1065.28
1070.29,1065.79
1071.74,1100.9
1073.2,1115.57
1074.65,1103.85
1076.1,1123.35
1077.55,1129.28
1079,1134.7
1080.46,1139.78
1081.91,1143.23
1083.36,1150.09
1084.81,1124.56
1086.26,1118.55
1087.71,1137.66
1089.17,1168.29
1090.62,1144.51
1092.07,1133.34
1093.52,1140.49
1094.97,1137.86
1096.42,1125.68
1097.88,1137.57
1099.33,1135.93
1100.78,1138.86
1102.23,1138.75
1103.68,1125.1
1105.14,1103.75
1106.59,1088.38
1108.04,1091.62
1109.49,1099.99
1110.94,1103.68
1112.39,1083.95
1113.85,1099.13
1115.3,1102.71
1116.75,1094.21
1118.2,1081.06
1119.65,1066.98
1121.11,1055.56
1122.56,1060.07
1124.01,1039.83
1125.46,1042.37
1126.91,1052.33
1128.36,1033.36
1129.82,1030.57
1131.27,1036.23
1132.72,1038.8
1134.17,1050.56
1135.62,1029.68
1137.07,1028.88
1138.53,1016.2
1139.98,999.312
1141.43,998.222
1142.88,1010.21
1144.33,1010.26
1145.79,1003.1
1147.24,1011.08
1148.69,998.468
1150.14,988.47
1151.59,1010.36
1153.04,993.662
1154.5,1013.78
1155.95,1023.87
1157.4,1010.79
1158.85,993.539
1160.3,1006.19
1161.76,1001.59
1163.21,985.167
1164.66,1000.52
1166.11,1004.69
1167.56,981.037
1169.01,994.682
1170.47,998.407
1171.92,998.091
1173.37,1011.78
1174.82,1014.53
1176.27,1017.25
1177.72,1017.03
1179.18,997.511
1180.63,1013.4
1182.08,1018.94
1183.53,1026.51
1184.98,1030.38
1186.44,1021.94
1187.89,1014.76
1189.34,1012.32
1190.79,1057.09
1192.24,1032.24
1193.69,1021.44
1195.15,1022.6
1196.6,1032.96
1198.05,1046.16
1199.5,1057.66
1200.95,1049.62
1202.41,1036.67
1203.86,1041.26
1205.31,1044.33
1206.76,1063.58
1208.21,1072.47
1209.66,1047.27
1211.12,1036.45
1212.57,1046.65
1214.02,1069.71
1215.47,1083.84
1216.92,1072.93
1218.37,1062.13
1219.83,1092.16
1221.28,1075.71
1222.73,1085.42
1224.18,1092.44
1225.63,1085.37
1227.09,1084.23
1228.54,1096.04
1229.99,1090.95
1231.44,1093.54
1232.89,1078.32
1234.34,1092.65
1235.8,1096.9
1237.25,1087.64
1238.7,1081.65
1240.15,1093.45
1241.6,1117.17
1243.06,1144.88
1244.51,1133.19
1245.96,1147.04
1247.41,1126.26
1248.86,1142.62
1250.31,1161.93
1251.77,1156.01
1253.22,1151.25
1254.67,1153.37
1256.12,1174.19
1257.57,1203.19
1259.02,1202.26
1260.48,1211.83
1261.93,1210.89
1263.38,1237.49
1264.83,1247.57
1266.28,1244.1
1267.74,1257.96
1269.19,1264.91
1270.64,1267.81
1272.09,1277.79
1273.54,1290.23
1274.99,1297.39
1276.45,1334.21
1277.9,1353.14
1279.35,1376.24
1280.8,1417.07
1282.25,1426.84
1283.71,1462.64
1285.16,1484.42
1286.61,1507.67
1288.06,1541.14
1289.51,1558.9
1290.96,1603.54
1292.42,1663.86
1293.87,1729.66
1295.32,1738.71
1296.77,1767.67
1298.22,1787.27
1299.67,1832.71
1301.13,1898.98
1302.58,1961.14
1304.03,2015.54
1305.48,2068.37
1306.93,2170.57
1308.39,2264.45
1309.84,2337.5
1311.29,2444.45
1312.74,2531.2
1314.19,2655.14
1315.64,2773.81
1317.1,2878.52
1318.55,3004.03
1320,3119.05
1321.45,3200.58
1322.9,3303.58
1324.36,3509.41
1325.81,3651.55
1327.26,3814.71
1328.71,3923.4
1330.16,3992.34
1331.61,4086.34
1333.07,4161.01
1334.52,4177.8
1335.97,4193.79
1337.42,4160.12
1338.87,4122.24
1340.33,4108.25
1341.78,4014.27
1343.23,3969.01
1344.68,3851.99
1346.13,3734.7
1347.58,3583.27
1349.04,3406.19
1350.49,3277.93
1351.94,3164.11
1353.39,3022.37
1354.84,2890.83
1356.29,2727.91
1357.75,2657.54
1359.2,2571.24
1360.65,2448.6
1362.1,2344.65
1363.55,2259.89
1365.01,2172.27
1366.46,2108.67
1367.91,2053.29
1369.36,2002.65
1370.81,1930.88
1372.26,1857.98
1373.72,1817.41
1375.17,1794.12
1376.62,1758.94
1378.07,1710.15
1379.52,1679.83
1380.98,1642.6
1382.43,1630.34
1383.88,1630.94
1385.33,1621.32
1386.78,1595.12
1388.23,1573.8
1389.69,1575.83
1391.14,1527.57
1392.59,1519.37
1394.04,1551.91
1395.49,1530.75
1396.94,1517.34
1398.4,1514.69
1399.85,1515.49
1401.3,1498.55
1402.75,1484.22
1404.2,1495.21
1405.66,1505.53
1407.11,1501.93
1408.56,1494.94
1410.01,1488.94
1411.46,1492.17
1412.91,1475.33
1414.37,1461.68
1415.82,1471.54
1417.27,1492.16
1418.72,1487.36
1420.17,1496.77
1421.63,1494.09
1423.08,1482.2
1424.53,1496.96
1425.98,1540.95
1427.43,1529.16
1428.88,1540.69
1430.34,1504.52
1431.79,1519.57
1433.24,1527.44
1434.69,1538.56
1436.14,1562.97
1437.59,1555.82
1439.05,1565.57
1440.5,1577.84
1441.95,1572.24
1443.4,1593.28
1444.85,1610.25
1446.31,1611.69
1447.76,1613.8
1449.21,1623.78
1450.66,1629.59
1452.11,1662.69
1453.56,1680.53
1455.02,1682.61
1456.47,1698.22
1457.92,1701.15
1459.37,1718.53
1460.82,1725.59
1462.28,1791.36
1463.73,1789.18
1465.18,1797.31
1466.63,1827.36
1468.08,1852.27
1469.53,1867.43
1470.99,1881.23
1472.44,1904.65
1473.89,1927.21
1475.34,1951.37
1476.79,1969.31
1478.24,1998.54
1479.7,2047.17
1481.15,2104.11
1482.6,2106.72
1484.05,2119.13
1485.5,2166.8
1486.96,2194.87
1488.41,2223.93
1489.86,2269.26
1491.31,2341.76
1492.76,2390.43
1494.21,2429.96
1495.67,2498.07
1497.12,2576.17
1498.57,2593.27
1500.02,2675.27
1501.47,2750.72
1502.93,2798.45
1504.38,2882.73
1505.83,2988.23
1507.28,3075.94
1508.73,3152.6
1510.18,3248.49
1511.64,3391.36
1513.09,3523.38
1514.54,3639.22
1515.99,3776.57
1517.44,3944.3
1518.89,4133.7
1520.35,4377.49
1521.8,4612.97
1523.25,4850.65
1524.7,5101.95
1526.15,5407.56
1527.61,5775.49
1529.06,6133.24
1530.51,6642.6
1531.96,7173.13
1533.41,7705.81
1534.86,8322.13
1536.32,9042.14
1537.77,9801.41
1539.22,10584.4
1540.67,11599.4
1542.12,12659.4
1543.58,13849.8
1545.03,15234.8
1546.48,16444.9
1547.93,17846.8
1549.38,19318.7
1550.83,21032.8
1552.29,22714.2
1553.74,24322.1
1555.19,25939.3
1556.64,27522.1
1558.09,29132.4
1559.54,30571.3
1561,31759.9
1562.45,32657.7
1563.9,33147.6
1565.35,33487.6
1566.8,33256.5
1568.26,32721.4
1569.71,31810.4
1571.16,30513.5
1572.61,29003.7
1574.06,27411
1575.51,25576.2
1576.97,23677.2
1578.42,21913
1579.87,20181.2
1581.32,18385.9
1582.77,16744
1584.23,15263.6
1585.68,13943.3
1587.13,12717.2
1588.58,11657.1
1590.03,10666.6
1591.48,9801.76
1592.94,9154.69
1594.39,8479.49
1595.84,7868.22
1597.29,7435.36
1598.74,7064.76
1600.2,6726.83
1601.65,6394.63
1603.1,6050.08
1604.55,5778.21
1606,5536.16
1607.45,5290.5
1608.91,5024.48
1610.36,4773.9
1611.81,4473.72
1613.26,4328.53
1614.71,4062.15
1616.16,3896.03
1617.62,3639.55
1619.07,3477.14
1620.52,3362.47
1621.97,3200.83
1623.42,3099.52
1624.88,3029.48
1626.33,2882.05
1627.78,2778.19
1629.23,2707.64
1630.68,2655.49
1632.13,2561.35
1633.59,2450.11
1635.04,2409.83
1636.49,2377.91
1637.94,2291.99
1639.39,2216.15
1640.85,2191.01
1642.3,2192.4
1643.75,2136.23
1645.2,2080.98
1646.65,2051.15
1648.1,1980.84
1649.56,1931.53
1651.01,1929.04
1652.46,1913.47
1653.91,1859.37
1655.36,1828.5
1656.81,1807.73
1658.27,1771.56
1659.72,1781.97
1661.17,1724.14
1662.62,1685.23
1664.07,1689.17
1665.53,1663.41
1666.98,1638.31
1668.43,1637.55
1669.88,1635.11
1671.33,1606.33
1672.78,1578.17
1674.24,1551.68
1675.69,1535.54
1677.14,1523.22
1678.59,1507.93
1680.04,1489.23
1681.5,1479.47
1682.95,1476.99
1684.4,1441.58
1685.85,1431.32
1687.3,1445.55
1688.75,1416.55
1690.21,1421.35
1691.66,1368.75
1693.11,1405.57
1694.56,1379.61
1696.01,1352.78
1697.46,1372.26
1698.92,1358.58
1700.37,1349.51
1701.82,1344.53
1703.27,1351.5
1704.72,1324.33
1706.18,1327.28
1707.63,1321.28
1709.08,1294.27
1710.53,1301.54
1711.98,1319.39
1713.43,1296.12
1714.89,1299.67
1716.34,1313.39
1717.79,1306.5
1719.24,1298.9
1720.69,1283.5
1722.15,1310.1
1723.6,1318.49
1725.05,1317.79
1726.5,1329.73
1727.95,1283.78
1729.4,1318.6
1730.86,1304.68
1732.31,1281.47
1733.76,1272.2
1735.21,1286.37
1736.66,1295.95
1738.11,1270.71
1739.57,1268.46
1741.02,1264.57
1742.47,1264.19
1743.92,1273.76
1745.37,1290.23
1746.83,1255.39
1748.28,1239.28
1749.73,1245.52
1751.18,1230.73
1752.63,1214.69
1754.08,1210.17
1755.54,1188.8
1756.99,1216.73
1758.44,1205
1759.89,1198.85
1761.34,1183.61
1762.8,1182.5
1764.25,1191.28
1765.7,1187.52
1767.15,1152.89
1768.6,1171.69
1770.05,1176.78
1771.51,1139.61
1772.96,1143.76
1774.41,1153.56
1775.86,1130.39
1777.31,1130.82
1778.76,1132.88
1780.22,1109.09
1781.67,1095.45
1783.12,1110.5
1784.57,1146.46
1786.02,1114.31
1787.48,1131.84
1788.93,1118.71
1790.38,1102.03
1791.83,1108.13
1793.28,1107.17
1794.73,1105.03
1796.19,1094.58
1797.64,1105.49
1799.09,1103.49
1800.54,1081.85
1801.99,1079.4
1803.45,1093.44
1804.9,1087.68
1806.35,1086.51
1807.8,1077.33
1809.25,1098.65
1810.7,1090.31
1812.16,1081.38
1813.61,1070.45
1815.06,1070.65
1816.51,1072.41
1817.96,1073.87
1819.41,1072.49
1820.87,1066.45
1822.32,1079.6
1823.77,1053.53
1825.22,1049.28
1826.67,1066.91
1828.13,1062.92
1829.58,1073.45
1831.03,1093.86
1832.48,1085.58
1833.93,1098.63
1835.38,1092.03
1836.84,1074.16
1838.29,1088.36
1839.74,1084.68
1841.19,1089.73
1842.64,1090.57
1844.1,1132.41
1845.55,1122.36
1847,1116.83
1848.45,1136.06
1849.9,1148.09
1851.35,1152.52
1852.81,1134
1854.26,1128.81
1855.71,1146.91
1857.16,1161.42
1858.61,1144.81
1860.07,1119.04
1861.52,1158.03
1862.97,1149.48
1864.42,1162.81
1865.87,1156.66
1867.32,1169.25
1868.78,1158.45
1870.23,1161.72
1871.68,1143.72
1873.13,1131
1874.58,1148.72
1876.03,1119.61
1877.49,1125.81
1878.94,1086.69
1880.39,1105.81
1881.84,1094.51
1883.29,1109.49
1884.75,1119.56
1886.2,1115.09
1887.65,1114.39
1889.1,1095.31
1890.55,1084.02
1892,1072.59
1893.46,1066.07
1894.91,1042.28
1896.36,1028.31
1897.81,1019.69
1899.26,1022.57
1900.72,1040.29
1902.17,1039.82
1903.62,1044.37
1905.07,1038.5
1906.52,1020.39
1907.97,1009.36
1909.43,1011.25
1910.88,1021.87
1912.33,1006.87
1913.78,1006.73
1915.23,1004.28
1916.68,992.951
1918.14,990.21
1919.59,1015.87
1921.04,1017.88
1922.49,995.929
1923.94,1009.82
1925.4,1023.08
1926.85,1025.82
1928.3,984.587
1929.75,1004.75
1931.2,982.065
1932.65,991.132
1934.11,991.773
1935.56,966.532
1937.01,1012.89
1938.46,979.236
1939.91,1005.05
1941.37,992.239
1942.82,1014.99
1944.27,996.825
1945.72,1008.98
1947.17,1007.69
1948.62,987.881
1950.08,992.854
1951.53,1005.29
1952.98,1015.36
1954.43,989.955
1955.88,993.197
1957.33,1014.19
1958.79,1030.3
1960.24,1011.72
1961.69,1003.19
1963.14,1017.54
1964.59,1021.68
1966.05,1023.78
1967.5,1017.45
1968.95,1025.52
1970.4,1031.59
1971.85,1033.46
1973.3,1034.08
1974.76,1048.95
1976.21,1032.82
1977.66,1012.46
1979.11,1033.35
1980.56,1053.05
1982.02,1052.7
1983.47,1048.54
1984.92,1034.15
1986.37,1053.86
1987.82,1065.14
1989.27,1058.22
1990.73,1039.59
1992.18,1040.52
1993.63,1052.96
1995.08,1053.02
1996.53,1058.93
1997.98,1054.61
1999.44,1036.73
2000.89,1059.12
2002.34,1045.42
2003.79,1071.58
2005.24,1059.15
2006.7,1049.93
2008.15,1048.77
2009.6,1075.08
2011.05,1076.8
2012.5,1065.73
2013.95,1030.26
2015.41,1044.26
2016.86,1033.1
2018.31,1034.14
2019.76,1016.36
2021.21,1048.69
2022.67,1033.72
2024.12,1018.75
2025.57,1019.6
2027.02,979.886
2028.47,1004.03
2029.92,1015.65
2031.38,1004.21
2032.83,1009.09
2034.28,1007.6
2035.73,1021.73
2037.18,1015.67
2038.63,972.471
2040.09,991.369
2041.54,987.02
2042.99,970.626
2044.44,940.289
2045.89,970.108
2047.35,960.909
2048.8,949.927
2050.25,973.859
2051.7,962.148
2053.15,957.026
2054.6,962.482
2056.06,934.183
2057.51,948.512
2058.96,962.64
2060.41,983.067
2061.86,952.984
2063.32,947.704
2064.77,924.299
2066.22,914.45
2067.67,929.658
2069.12,937.855
2070.57,923.833
2072.03,914.863
2073.48,912.139
2074.93,909.389
2076.38,902.044
2077.83,904.373
2079.28,910.602
2080.74,921.619
2082.19,923.244
2083.64,906.78
2085.09,916.91
2086.54,905.374
2088,901.412
2089.45,921.839
2090.9,918.263
2092.35,905.023
2093.8,901.069
2095.25,918.36
2096.71,932.768
2098.16,908.599
2099.61,897.695
2101.06,916.813
2102.51,941.37
2103.97,930.774
2105.42,914.96
2106.87,915.302
2108.32,944.857
2109.77,943.917
2111.22,932.795
2112.68,914.634
2114.13,903.31
2115.58,924.984
2117.03,931.626
2118.48,924.729
2119.94,924.009
2121.39,932.97
2122.84,941.58
2124.29,945.323
2125.74,952.976
2127.19,945.218
2128.65,929.166
2130.1,915.39
2131.55,926.838
2133,921.962
2134.45,918.237
2135.9,938.707
2137.36,955.778
2138.81,943.092
2140.26,931.529
2141.71,943.935
2143.16,950.419
2144.62,937.117
2146.07,951.526
2147.52,954.223
2148.97,945.894
2150.42,924.439
2151.87,933.638
2153.33,933.664
2154.78,936.063
2156.23,947.054
2157.68,967.323
2159.13,942.749
2160.58,952.387
2162.04,948.003
2163.49,944.453
2164.94,959.099
2166.39,956.297
2167.84,984.965
2169.3,961.48
2170.75,959.099
2172.2,967.797
2173.65,975.845
2175.1,985.105
2176.55,981.591
2178.01,995.182
2179.46,984.464
2180.91,986.616
2182.36,976.89
2183.81,1007.88
2185.27,990.789
2186.72,964.81
2188.17,982.777
2189.62,986.168
2191.07,996.465
2192.52,984.086
2193.98,1004
2195.43,985.404
2196.88,983.831
2198.33,1031.45
2199.78,1002.17
2201.24,998.688
2202.69,998.785
2204.14,986.405
2205.59,1008.38
2207.04,988.004
2208.49,995.472
2209.95,994.339
2211.4,1027.44
2212.85,1001.19
2214.3,1012.31
2215.75,1027.56
2217.2,979.957
2218.66,1013.56
2220.11,992.494
2221.56,1025.29
2223.01,1010.6
2224.46,996.667
2225.92,1010.79
2227.37,1013.86
2228.82,1005.52
2230.27,1016.15
2231.72,1022.6
2233.17,1032.56
2234.63,1028.5
2236.08,1016.55
2237.53,1021.28
2238.98,1037.78
2240.43,1024.69
2241.89,1025.46
2243.34,1009.02
2244.79,1035.39
2246.24,1039.93
2247.69,1020.97
2249.14,1040.97
2250.6,1029.19
2252.05,1042.5
2253.5,1046.76
2254.95,1055.43
2256.4,1063.18
2257.85,1043.79
2259.31,1054.28
2260.76,1071.03
2262.21,1070.56
2263.66,1064.04
2265.11,1063.8
2266.57,1070.57
2268.02,1089.27
2269.47,1099.59
2270.92,1072.08
2272.37,1081.15
2273.82,1084.87
2275.28,1103.55
2276.73,1111.78
2278.18,1097.29
2279.63,1096.97
2281.08,1102.51
2282.54,1104.66
2283.99,1110.5
2285.44,1087.25
2286.89,1085.25
2288.34,1108.96
2289.79,1139.73
2291.25,1125.43
2292.7,1125.68
2294.15,1117.1
2295.6,1135.54
2297.05,1116.34
2298.5,1106.55
2299.96,1129.23
2301.41,1141.73
2302.86,1145.22
2304.31,1162.82
2305.76,1160.43
2307.22,1150.89
2308.67,1151.54
2310.12,1160.21
2311.57,1171.78
2313.02,1160.86
2314.47,1183.46
2315.93,1181.04
2317.38,1183.73
2318.83,1196.68
2320.28,1197.37
2321.73,1167.65
2323.19,1186.66
2324.64,1193.22
2326.09,1209.85
2327.54,1243.37
2328.99,1222.03
2330.44,1217.22
2331.9,1229.85
2333.35,1248.39
2334.8,1229.44
2336.25,1249.27
2337.7,1258.33
2339.16,1258.56
2340.61,1251.45
2342.06,1254.7
2343.51,1256.53
2344.96,1402.17
2346.41,3080.77
2347.87,1995.09
2349.32,1306.12
2350.77,1274.43
2352.22,1310.82
2353.67,1342.26
2355.12,1323.7
2356.58,1347.37
2358.03,1344.25
2359.48,1340.49
2360.93,1371.78
2362.38,1369.28
2363.84,1407.31
2365.29,1426.11
2366.74,1402.79
2368.19,1428.23
2369.64,1434.84
2371.09,1441.09
2372.55,1446.53
2374,1479.72
2375.45,1509.02
2376.9,1514.92
2378.35,1530.82
2379.8,1543.73
2381.26,1570.04
2382.71,1589.64
2384.16,1603.25
2385.61,1626.14
2387.06,1670.09
2388.52,1686.61
2389.97,1683.48
2391.42,1713.51
2392.87,1768.02
2394.32,1787.78
2395.77,1822.21
2397.23,1868.96
2398.68,1910.55
2400.13,1940.43
2401.58,1948.25
2403.03,2000.42
2404.49,2032.8
2405.94,2037.47
2407.39,2065.28
2408.84,2106.43
2410.29,2140.6
2411.74,2191.79
2413.2,2212.58
2414.65,2251.5
2416.1,2278.08
2417.55,2322.97
2419,2336.01
2420.46,2338.72
2421.91,2361.37
2423.36,2340.01
2424.81,2351.7
2426.26,2386.15
2427.71,2385.51
2429.17,2372.4
2430.62,2376.95
2432.07,2426.37
2433.52,2386.67
2434.97,2437.56
2436.42,2434.74
2437.88,2376.9
2439.33,2345.38
2440.78,2357.29
2442.23,2286.46
2443.68,2303.59
2445.14,2292.73
2446.59,2275.48
2448.04,2304.57
2449.49,2282.47
2450.94,2264.57
2452.39,2247.03
2453.85,2222.22
2455.3,2197.97
2456.75,2195.93
2458.2,2205.31
2459.65,2184.71
2461.1,2157.49
2462.56,2153.96
2464.01,2105.39
2465.46,2164.08
2466.91,2120.44
2468.36,2092.04
2469.82,2048.09
2471.27,2040.16
2472.72,2083.2
2474.17,2047.25
2475.62,2052.64
2477.07,2054.42
2478.53,2010.12
2479.98,2026.32
2481.43,2045.06
2482.88,2015.14
2484.33,2063.93
2485.79,2067.95
2487.24,2022.35
2488.69,2052.95
2490.14,2044.5
2491.59,2051.95
2493.04,2058.74
2494.5,2024.78
2495.95,2018.18
2497.4,2082.05
2498.85,2070.57
2500.3,2064.35
2501.76,2076.87
2503.21,2081.32
2504.66,2108.68
2506.11,2123.92
2507.56,2102.85
2509.01,2112.16
2510.47,2088.57
2511.92,2103.1
2513.37,2104.85
2514.82,2122.63
2516.27,2121.58
2517.72,2172.49
2519.18,2180.6
2520.63,2180.91
2522.08,2203.17
2523.53,2242.39
2524.98,2288.69
2526.44,2271.33
2527.89,2264.69
2529.34,2299.08
2530.79,2314.26
2532.24,2274.15
2533.69,2377.4
2535.15,2376.88
2536.6,2422.61
2538.05,2417.26
2539.5,2457.21
2540.95,2478.63
2542.41,2508.16
2543.86,2561.19
2545.31,2551.19
2546.76,2582.46
2548.21,2620.44
2549.66,2725.42
2551.12,2712.78
2552.57,2695.96
2554.02,2817.41
2555.47,2867.95
2556.92,2920.4
2558.37,2944.68
2559.83,2963.85
2561.28,2998.64
2562.73,3072.68
2564.18,3153.55
2565.63,3218.19
2567.09,3234.96
2568.54,3337.93
2569.99,3419.41
2571.44,3476.39
2572.89,3543.39
2574.34,3610.58
2575.8,3660.82
2577.25,3778.46
2578.7,3888.63
2580.15,3922.59
2581.6,4064.59
2583.06,4167.67
2584.51,4234.2
2585.96,4347.36
2587.41,4405.07
2588.86,4618.95
2590.31,4753.83
2591.77,4892.74
2593.22,5014.44
2594.67,5209.2
2596.12,5420.21
2597.57,5545.92
2599.02,5714.99
2600.48,5945.05
2601.93,6204.24
2603.38,6411.62
2604.83,6649.36
2606.28,6852.97
2607.74,7060.69
2609.19,7349.68
2610.64,7678.45
2612.09,7928.02
2613.54,8229.01
2614.99,8613.26
2616.45,8890.77
2617.9,9286.39
2619.35,9679.03
2620.8,10075.3
2622.25,10512.3
2623.71,10941.2
2625.16,11356.4
2626.61,11856
2628.06,12242.3
2629.51,12786.5
2630.96,13221.5
2632.42,13767.2
2633.87,14320.6
2635.32,14869.7
2636.77,15330.3
2638.22,15863.1
2639.68,16295.9
2641.13,16781.2
2642.58,17298.9
2644.03,17741.2
2645.48,18037.7
2646.93,18493.3
2648.39,18884.8
2649.84,19233.7
2651.29,19345.3
2652.74,19681.5
2654.19,19874.1
2655.64,20025.1
2657.1,20148.8
2658.55,20225
2660,20285.3
2661.45,20207.5
2662.9,20066.9
2664.36,19865.3
2665.81,19646
2667.26,19452.5
2668.71,19061.9
2670.16,18858
2671.61,18442.5
2673.07,18029.5
2674.52,17549.5
2675.97,17061.7
2677.42,16685.7
2678.87,16096.6
2680.32,15556.2
2681.78,15146.3
2683.23,14672
2684.68,14094.2
2686.13,13516.6
2687.58,13093.6
2689.04,12509
2690.49,11957.6
2691.94,11499.4
2693.39,11068.4
2694.84,10582.1
2696.29,10186.4
2697.75,9733.67
2699.2,9303.43
2700.65,8935.66
2702.1,8545.4
2703.55,8148.59
2705.01,7827.19
2706.46,7455.31
2707.91,7207.75
2709.36,6881.54
2710.81,6646.83
2712.26,6381.43
2713.72,6170.15
2715.17,5874.26
2716.62,5658.73
2718.07,5426.46
2719.52,5268.16
2720.98,5090.72
2722.43,4936.77
2723.88,4733.35
2725.33,4540.73
2726.78,4420.58
2728.23,4350.96
2729.69,4170.44
2731.14,4004.14
2732.59,3902.41
2734.04,3818.73
2735.49,3700.89
2736.94,3633.35
2738.4,3514.35
2739.85,3409.49
2741.3,3316.29
2742.75,3252.54
2744.2,3159.85
2745.66,3144.94
2747.11,3016.43
2748.56,2999.75
2750.01,2877.26
2751.46,2833.81
2752.91,2781.96
2754.37,2734.39
2755.82,2690.28
2757.27,2643.33
2758.72,2584.67
2760.17,2542.79
2761.63,2508.44
2763.08,2417.03
2764.53,2423.87
2765.98,2397.51
2767.43,2376.69
2768.88,2312.76
2770.34,2309.72
2771.79,2284.09
2773.24,2259.4
2774.69,2239.18
2776.14,2188.67
2777.59,2140.04
2779.05,2161.84
2780.5,2071.11
2781.95,2076.8
2783.4,2072.6
2784.85,2026.83
2786.31,2017.86
2787.76,1998.99
2789.21,2002.98
2790.66,1937.19
2792.11,1922.2
2793.56,1921.51
2795.02,1905.47
2796.47,1896.14
2797.92,1864.52
2799.37,1858.13
2800.82,1817.48
2802.28,1850.77
2803.73,1810.72
2805.18,1788.51
2806.63,1785.03
2808.08,1777.83
2809.53,1757.04
2810.99,1719.69
2812.44,1726.12
2813.89,1746.64
2815.34,1683.87
2816.79,1695.56
2818.24,1702.68
2819.7,1691.09
2821.15,1664.76
2822.6,1670.26
2824.05,1680.71
2825.5,1629.09
2826.96,1681.62
2828.41,1636.36
2829.86,1618.73
2831.31,1620.4
2832.76,1624.7
2834.21,1609.48
2835.67,1596.79
2837.12,1570.77
2838.57,1552.34
2840.02,1557.87
2841.47,1550.51
2842.93,1563.98
2844.38,1555.01
2845.83,1531.63
2847.28,1551.72
2848.73,1527.61
2850.18,1541.06
2851.64,1535.36
2853.09,1520.97
2854.54,1517.41
2855.99,1523.64
2857.44,1524.09
2858.9,1554.2
2860.35,1498.67
2861.8,1511.29
2863.25,1512.15
2864.7,1531.95
2866.15,1509.92
2867.61,1500.1
2869.06,1501.13
2870.51,1494.23
2871.96,1519.3
2873.41,1520.95
2874.86,1531.98
2876.32,1526.45
2877.77,1500.06
2879.22,1514.3
2880.67,1525.82
2882.12,1518.45
2883.58,1483.61
2885.03,1515.61
2886.48,1525.79
2887.93,1524.18
2889.38,1556.73
2890.83,1521.46
2892.29,1490.16
2893.74,1507.31
2895.19,1510.08
2896.64,1529.59
2898.09,1514.84
2899.54,1534.87
2901,1538.1
2902.45,1487.88
2903.9,1541.11
2905.35,1538.5
2906.8,1529.88
2908.26,1516.79
2909.71,1505.63
2911.16,1493.65
2912.61,1515.27
2914.06,1488.18
2915.51,1480.45
2916.97,1497.15
2918.42,1491.43
2919.87,1498.12
2921.32,1464.13
2922.77,1449.22
2924.23,1432.27
2925.68,1427.5
2927.13,1406.52
2928.58,1429.27
2930.03,1391.41
2931.48,1388.09
2932.94,1380.59
2934.39,1372.08
2935.84,1353.77
2937.29,1365.64
2938.74,1344.73
2940.2,1339.63
2941.65,1296.08
2943.1,1315.15
2944.55,1294.3
2946,1305.5
2947.45,1264.26
2948.91,1269.17
2950.36,1252.4
2951.81,1220.87
2953.26,1200.86
2954.71,1214.6
2956.16,1199.64
2957.62,1188.9
2959.07,1206.35
2960.52,1171.18
2961.97,1173.88
2963.42,1188.57
2964.88,1169.34
2966.33,1149.65
2967.78,1124.2
2969.23,1143.99
2970.68,1133.94
2972.13,1137.91
2973.59,1117.16
2975.04,1083.83
2976.49,1076.42
2977.94,1097.82
2979.39,1074.56
2980.84,1082.72
2982.3,1084.31
2983.75,1072.22
2985.2,1061.52
2986.65,1077.43
2988.1,1075.4
2989.56,1066.49
2991.01,1062.94
2992.46,1051.73
2993.91,1052.75
2995.36,1042.41
2996.81,1050.57
2998.27,1040.97
2999.72,1028.6
3001.17,1029.61
3002.62,1019.88
3004.07,1031.13
3005.53,1020.47
3006.98,1022.26
3008.43,1010.16
3009.88,1015.9
3011.33,1021.47
3012.78,1011.24
3014.24,995.016
3015.69,1005.1
3017.14,983.875
3018.59,1009.04
3020.04,997.071
3021.5,1018.07
3022.95,1012.91
3024.4,1017.92
3025.85,988.857
3027.3,1000.23
3028.75,996.263
3030.21,1001.5
3031.66,1019.97
3033.11,1015.71
3034.56,994.541
3036.01,1014.99
3037.46,1005.86
3038.92,974.114
3040.37,996.079
3041.82,983.313
3043.27,992.819
3044.72,1004.31
3046.18,1005.95
3047.63,982.127
3049.08,988.286
3050.53,1012.19
3051.98,991.211
3053.43,998.231
3054.89,1001.98
3056.34,993.654
3057.79,994.515
3059.24,973.613
3060.69,997.124
3062.15,998.662
3063.6,1021.04
3065.05,1027.03
3066.5,1024.45
3067.95,1032.15
3069.4,1016.52
3070.86,1019.76
3072.31,1032.16
3073.76,1027.07
3075.21,1053.84
3076.66,1044.76
3078.11,1057.89
3079.57,1050.08
3081.02,1069.63
3082.47,1064.36
3083.92,1077.72
3085.37,1078.32
3086.83,1070.72
3088.28,1078.97
3089.73,1104.25
3091.18,1111.59
3092.63,1122.54
3094.08,1144.18
3095.54,1148.13
3096.99,1178.15
3098.44,1208.68
3099.89,1232.82
3101.34,1210.27
3102.8,1212.07
3104.25,1213.54
3105.7,1236.61
3107.15,1254.85
3108.6,1272.65
3110.05,1283.76
3111.51,1316.25
3112.96,1333.93
3114.41,1359.63
3115.86,1379.78
3117.31,1374.48
3118.76,1420.41
3120.22,1458.04
3121.67,1448.75
3123.12,1455.32
3124.57,1475.42
3126.02,1490.72
3127.48,1515.78
3128.93,1557.32
3130.38,1553.85
3131.83,1562.59
3133.28,1598.2
3134.73,1602.31
3136.19,1585.98
3137.64,1592.52
3139.09,1608.55
3140.54,1630.75
3141.99,1612.61
3143.45,1639.05
3144.9,1653.96
3146.35,1629.18
3147.8,1619.51
3149.25,1640.85
3150.7,1610.83
3152.16,1688.5
3153.61,1660.21
3155.06,1656.58
3156.51,1636.44
3157.96,1651.29
3159.42,1650.65
3160.87,1687.75
3162.32,1662.76
3163.77,1705.92
3165.22,1681.46
3166.67,1688.07
3168.13,1684.49
3169.58,1690.22
3171.03,1705.05
3172.48,1740.76
3173.93,1733.42
3175.38,1721.77
3176.84,1747.35
3178.29,1796.05
3179.74,1817.49
3181.19,1818.37
3182.64,1850.05
3184.1,1874.37
3185.55,1889.84
3187,1870.76
3188.45,1864.08
3189.9,1911.71
3191.35,1935.65
3192.81,1942.77
3194.26,1962.62
3195.71,1976.76
3197.16,1987.22
3198.61,1995.11
3200.06,2009.01
3201.52,2004.63
3202.97,2006.75
3204.42,2001.97
3205.87,1984.95
3207.32,1959.85
3208.78,1947.34
3210.23,1920.04
3211.68,1900.2
3213.13,1876.52
3214.58,1823.01
3216.03,1806.02
3217.49,1777.84
3218.94,1745.8
3220.39,1685.07
3221.84,1651.46
3223.29,1606.46
3224.75,1576.41
3226.2,1534.98
3227.65,1492.15
3229.1,1424.36
3230.55,1389.56
3232,1372.66
3233.46,1342.96
3234.91,1277.64
3236.36,1238.64
3237.81,1214.51
3239.26,1210.06
3240.72,1192.25
3242.17,1158.85
3243.62,1123.96
3245.07,1091.54
3246.52,1070.63
3247.97,1041.07
3249.43,1015.39
3250.88,1039.31
3252.33,978.437
3253.78,992.257
3255.23,972.049
3256.68,964.573
3258.14,969.282
3259.59,931.591
3261.04,902.018
3262.49,922.225
3263.94,896.711
3265.4,913.589
3266.85,889.946
3268.3,861.64
3269.75,881.881
3271.2,894.708
3272.65,883.48
3274.11,866.639
3275.56,857.982
3277.01,871.584
3278.46,873.315
3279.91,840.146
3281.37,829.034
3282.82,844.23
3284.27,848.701
3285.72,823.22
3287.17,848.952
3288.62,854.125
3290.08,822.125
3291.53,832.784
3292.98,832.287
3294.43,831.973
3295.88,827.682
3297.33,841.85
3298.79,838.803
3300.24,817.429
3301.69,828.044
3303.14,820.336
3304.59,842.755
3306.05,829.993
3307.5,810.805
3308.95,807.433
3310.4,815.147
3311.85,800.645
3313.3,830.823
3314.76,819.039
3316.21,829.588
3317.66,806.362
3319.11,805.641
3320.56,811.449
3322.02,808.95
3323.47,795.183
3324.92,786.736
3326.37,802.902
3327.82,798.927
3329.27,788.494
3330.73,820.659
3332.18,807.112
3333.63,812.983
3335.08,808.503
3336.53,801.127
3337.98,784.203
3339.44,796.805
3340.89,778.439
3342.34,809.156
3343.79,794.726
3345.24,788.154
3346.7,785.648
3348.15,788.154
3349.6,788.718
3351.05,793.821
3352.5,799.699
3353.95,785.542
3355.41,778.173
3356.86,789.269
3358.31,786.605
3359.76,792.176
3361.21,792.459
3362.67,784.479
3364.12,785.681
3365.57,776.823
3367.02,785.132
3368.47,792.437
3369.92,788.025
3371.38,790.065
3372.83,767.798
3374.28,796.301
3375.73,783.734
3377.18,770.139
3378.63,782.275
3380.09,768.209
3381.54,769.616
3382.99,774.69
3384.44,790.958
3385.89,789.844
3387.35,784.657
3388.8,795.867
3390.25,778.805
3391.7,793.529
3393.15,782.806
3394.6,770.042
3396.06,788.912
3397.51,779.957
3398.96,777.641
3400.41,766.895
3401.86,759.303
3403.32,786.839
3404.77,799.334
3406.22,766.964
3407.67,763.759
3409.12,784.644
3410.57,773.225
3412.03,778.853
3413.48,770.546
3414.93,750.099
3416.38,794.092
3417.83,798.922
3419.28,792.844
3420.74,786.586
3422.19,769.875
3423.64,769.572
3425.09,779.642
3426.54,781.637
3428,739.637
3429.45,771.861
3430.9,775.815
3432.35,782.411
3433.8,786.017
3435.25,742.041
3436.71,754.914
3438.16,764.439
3439.61,781.387
3441.06,750.412
3442.51,785.333
3443.97,754.957
3445.42,746.332
3446.87,769.483
3448.32,737.424
3449.77,761.898
3451.22,758.618
3452.68,761.252
3454.13,767.769
3455.58,765.817
3457.03,773.578
3458.48,760.604
3459.94,740.129
3461.39,761.516
3462.84,761.762
3464.29,763.718
3465.74,756.563
3467.19,783.971
3468.65,771.642
3470.1,769.109
3471.55,777.833
3473,776.441
3474.45,780.359
3475.9,766.766
3477.36,758.4
3478.81,766.23
3480.26,751.672
3481.71,757.201
3483.16,789.499
3484.62,781.574
3486.07,767.531
3487.52,759.923
3488.97,759.301
3490.42,781.773
3491.87,780.739
3493.33,769.362
3494.78,766.484
3496.23,750.09
3497.68,776.379
3499.13,792.003
3500.58,771.84
3502.04,766.671
3503.49,762.804
3504.94,776.931
3506.39,767.764
3507.84,745.875
3509.3,766.104
3510.75,778.134
3512.2,759.112
3513.65,772.568
3515.1,784.462
3516.55,758.629
3518.01,770.014
3519.46,773.955
3520.91,759.757
3522.36,748.723
3523.81,758.353
3525.27,766.072
3526.72,756.257
3528.17,753.115
3529.62,754.898
3531.07,771.381
3532.52,783.553
3533.98,756.978
3535.43,770.831
3536.88,746.351
3538.33,758.287
3539.78,773.809
3541.24,784.145
3542.69,769.108
3544.14,753.458
3545.59,769.501
3547.04,779.144
3548.49,779.511
3549.95,784.687
3551.4,760.714
3552.85,750.849
3554.3,764.862
3555.75,749.168
3557.2,753.254
3558.66,747.219
3560.11,754.581
3561.56,733.787
3563.01,765.736
3564.46,762.508
3565.92,759.021
3567.37,749.546
3568.82,757.17
3570.27,745.737
3571.72,745.399
3573.17,759.059
3574.63,739.848
3576.08,761.13
3577.53,749.378
3578.98,757.364
3580.43,764.188
3581.89,791.465
3583.34,752.026
3584.79,780.763
3586.24,743.244
3587.69,750.851
3589.14,751.797
3590.6,732.456
3592.05,743.175
3593.5,757.05
3594.95,761.68
3596.4,756.941
3597.85,734.7
3599.31,749.29
3600.76,766.331
3602.21,759.558
3603.66,740.644
3605.11,755.443
3606.57,758.971
3608.02,752.928
3609.47,755.767
3610.92,735.137
3612.37,769.066
3613.82,741.606
3615.28,765.651
3616.73,763.952
3618.18,759.246
3619.63,746.914
3621.08,766.109
3622.54,745.48
3623.99,747.7
3625.44,746.858
3626.89,750.511
3628.34,766.709
3629.79,744.163
3631.25,747.037
3632.7,772.699
3634.15,770.838
3635.6,751.067
3637.05,768.578
3638.5,797.968
3639.96,757.048
3641.41,762.844
3642.86,753.521
3644.31,766.699
3645.76,739.725
3647.22,767.425
3648.67,754.801
3650.12,760.897
3651.57,747.228
3653.02,790.461
3654.47,769.457
3655.93,756.884
3657.38,770.165
3658.83,775.173
3660.28,749.073
3661.73,736.15
3663.19,767.534
3664.64,760.651
3666.09,770.966
3667.54,769.579
3668.99,769.367
3670.44,780.881
3671.9,757.456
3673.35,765.751
3674.8,768.985
3676.25,768.406
3677.7,784.034
3679.16,776.453
3680.61,773.75
3682.06,777.774
3683.51,761.027
3684.96,784.563
3686.41,739.831
3687.87,771.97
3689.32,765.578
3690.77,807.036
3692.22,757.701
3693.67,776.249
3695.12,773.516
3696.58,789.406
3698.03,761.614
3699.48,764.305
3700.93,774.996
3702.38,783.642
3703.84,785.266
3705.29,767.439
3706.74,771.156
3708.19,795.048
3709.64,800.166
3711.09,770.895
3712.55,776.24
3714,778.621
3715.45,772.949
3716.9,756.547
3718.35,791.527
3719.8,785.096
3721.26,767.162
3722.71,797.309
3724.16,775.868
3725.61,769.091
3727.06,769.135
3728.52,789.698
3729.97,766.17
3731.42,788.108
3732.87,782.697
3734.32,800.448
3735.77,783.147
3737.23,785.621
3738.68,780.802
3740.13,797.404
3741.58,780.444
3743.03,785.788
3744.49,790.339
3745.94,785.76
3747.39,789.897
3748.84,785.252
3750.29,797.068
3751.74,770.901
3753.2,771.863
3754.65,776.591
3756.1,770.018
3757.55,770.249
3759,770.945
3760.46,776.633
3761.91,783.938
3763.36,782.978
3764.81,773.702
3766.26,799.337
3767.71,808.992
3769.17,792.218
3770.62,802.959
3772.07,778.223
3773.52,789.82
3774.97,792.605
3776.42,792.78
3777.88,806.618
3779.33,794.94
3780.78,806.267
3782.23,780.221
3783.68,807.26
3785.14,810.517
3786.59,810.089
3788.04,808.195
3789.49,813.933
3790.94,778.307
3792.39,796.39
3793.85,795.341
3795.3,819.202
3796.75,801.925
3798.2,816.004
3799.65,814.909
3801.1,807.112
3802.56,792.158
3804.01,789.869
3805.46,784.969
3806.91,786.01
3808.36,803.022
3809.82,844.063
3811.27,826.679
3812.72,799.456
3814.17,817.796
3815.62,803.674
3817.07,794.281
3818.53,797.779
3819.98,812.574
3821.43,831.938
3822.88,827.501
3824.33,803.077
3825.79,812.534
3827.24,819.609
3828.69,817.653
3830.14,810.685
3831.59,803.167
3833.04,813.488
3834.5,821.613
3835.95,807.593
3837.4,815.164
3838.85,816.06
3840.3,828.205
3841.76,833.554
3843.21,813.859
3844.66,839.484
3846.11,824.338
3847.56,812.783
3849.01,801.919
3850.47,836.446
3851.92,829.873
3853.37,842.57
3854.82,825.612
3856.27,848.808
3857.72,830.819
3859.18,831.792
3860.63,833.077
3862.08,801.798
3863.53,837.715
3864.98,826.669
3866.44,849.5
3867.89,837.239
3869.34,832.031
3870.79,867.528
3872.24,818.327
3873.69,845.929
3875.15,845.656
3876.6,822.351
3878.05,850.931
3879.5,849.752
3880.95,836.155
3882.41,861.278
3883.86,876.805
3885.31,847.978
3886.76,844.922
3888.21,881.029
3889.66,854.388
3891.12,823.008
3892.57,840.929
3894.02,871.863
3895.47,865.296
3896.92,880.783
3898.37,877.008
3899.83,872.475
3901.28,873.573
3902.73,871.081
3904.18,867.99
3905.63,894.972
3907.09,876.135
3908.54,875.415
3909.99,895.745
3911.44,878.13
3912.89,876.851
3914.34,884.323
3915.8,902.677
3917.25,908.265
3918.7,900.7
3920.15,900.401
3921.6,899.962
3923.06,877.946
3924.51,892.793
3925.96,914.608
3927.41,913.536
3928.86,900.77
3930.31,917.885
3931.77,910.294
3933.22,893.513
3934.67,929.271
3936.12,927.725
3937.57,938.057
3939.02,926.249
3940.48,923.192
3941.93,931.371
3943.38,933.243
3944.83,956.086
3946.28,944.365
3947.74,955.075
3949.19,943.584
3950.64,938.725
3952.09,946.764
3953.54,970.661
3954.99,957.368
3956.45,982.803
3957.9,964.643
3959.35,944.647
3960.8,967.797
3962.25,958.686
3963.71,972.541
3965.16,954.821
3966.61,976.196
3968.06,973.473
3969.51,1014.55
3970.96,976.135
3972.42,984.657
3973.87,978.929
3975.32,962.657
3976.77,1007.96
3978.22,955.067
3979.68,986.88
3981.13,991.282
3982.58,998.837
3984.03,1004.69
3985.48,1023.24
3986.93,1007.32
3988.39,1008.48
3989.84,1010.64
3991.29,1039.12
3992.74,999.162
3994.19,1012.79
3995.64,1027.15
3997.1,1013.99
3998.55,1025.26
4000,1040.72
