-20,-2.52383
-18.5482,6.65297
-17.0964,14.2308
-15.6446,15.4645
-14.1928,32.8186
-12.7411,38.3846
-11.2893,39.9612
-9.83749,51.4829
-8.3857,72.4343
-6.93391,99.7782
-5.48212,371.449
-4.03034,76.8105
-2.57855,76.8105
-1.12676,76.8105
0.325027,76.8105
1.77681,76.8105
3.2286,76.8105
4.68039,76.8105
6.13218,76.8105
7.58397,181.592
9.03575,40.0873
10.4875,35.4768
11.9393,27.6783
13.3911,22.0532
14.8429,16.8494
16.2947,10.9302
17.7465,8.82994
19.1983,5.52359
20.6501,3.43444
22.1018,1.36816
23.5536,-4.10988
25.0054,-3.03428
26.4572,-4.55419
27.909,-9.07604
29.3608,-14.8074
30.8126,-17.0346
32.2644,-17.5092
33.7161,-17.5221
35.1679,-18.3307
36.6197,-20.1535
38.0715,-17.6272
39.5233,-17.9391
40.9751,-15.2714
42.4269,-13.2071
43.8787,-17.1156
45.3304,-10.0215
46.7822,-2.82316
48.234,16.3362
49.6858,57.5498
51.1376,130.834
52.5894,274.82
54.0412,493.177
55.493,755.098
56.9447,1039.54
58.3965,1325.43
59.8483,1573.39
61.3001,1764.66
62.7519,1903.12
64.2037,2019.32
65.6555,2118.2
67.1073,2136.27
68.559,2143.1
70.0108,2150.38
71.4626,2157.28
72.9144,2158.39
74.3662,2211.11
75.818,2267.44
77.2698,2310.19
78.7216,2348.93
80.1733,2425.72
81.6251,2540.34
83.0769,2628.76
84.5287,2686.89
85.9805,2697.03
87.4323,2668.79
88.8841,2627.31
90.3359,2544.87
91.7877,2396.75
93.2394,2297.12
94.6912,2126.09
96.143,1995.94
97.5948,1921.87
99.0466,1865.59
100.498,1767.38
101.95,1714.86
103.402,1671.26
104.854,1629.1
106.306,1590.57
107.757,1563.38
109.209,1511.92
110.661,1488.21
112.113,1492.81
113.564,1434.47
115.016,1414.42
116.468,1397.59
117.92,1389.37
119.372,1397.33
120.823,1347.88
122.275,1300.26
123.727,1267.09
125.179,1255.39
126.631,1249.01
128.082,1218.06
129.534,1183.12
130.986,1164.7
132.438,1140.43
133.889,1110.95
135.341,1100.61
136.793,1094.21
138.245,1072.14
139.697,1052.24
141.148,1052.42
142.6,1032.23
144.052,1031.07
145.504,1008.73
146.956,976.935
148.407,980.547
149.859,964.255
151.311,966.073
152.763,952.701
154.215,940.38
155.666,953.243
157.118,944.626
158.57,929.819
160.022,923.195
161.473,907.378
162.925,922.286
164.377,887.074
165.829,849.776
167.281,846.515
168.732,862.022
170.184,835.52
171.636,817.95
173.088,808.379
174.54,792.955
175.991,784.781
177.443,783.13
178.895,803.635
180.347,781.358
181.798,767.432
183.25,775.741
184.702,780.562
186.154,772.522
187.606,768.121
189.057,758.709
190.509,758.092
191.961,767.273
193.413,739.978
194.865,728.227
196.316,721.842
197.768,728.564
199.22,731.869
200.672,720.027
202.124,708.723
203.575,696.786
205.027,703.946
206.479,725.262
207.931,706.296
209.382,693.802
210.834,692.564
212.286,701.156
213.738,686.991
215.19,683.799
216.641,692.197
218.093,702.075
219.545,701.415
220.997,703.212
222.449,682.399
223.9,681.072
225.352,689.807
226.804,703.389
228.256,719.898
229.707,706.628
231.159,709.629
232.611,706.109
234.063,698.751
235.515,707.969
236.966,701.673
238.418,694.594
239.87,685.389
241.322,682.664
242.774,687.715
244.225,691.453
245.677,678.566
247.129,673.889
248.581,674.005
250.033,657.372
251.484,669.504
252.936,666.534
254.388,659.134
255.84,656.149
257.291,652.296
258.743,655.524
260.195,646.463
261.647,655.416
263.099,661.804
264.55,640.771
266.002,643.679
267.454,637.261
268.906,641.534
270.358,645.827
271.809,635.61
273.261,604.972
274.713,620.428
276.165,628.211
277.616,628.716
279.068,620.999
280.52,592.095
281.972,599.357
283.424,592.901
284.875,599.789
286.327,607.912
287.779,592.996
289.231,572.954
290.683,569.634
292.134,566.617
293.586,561.428
295.038,570.345
296.49,581.909
297.941,559.795
299.393,548.02
300.845,542.767
302.297,545.869
303.749,546.979
305.2,524.546
306.652,537.455
308.104,545.944
309.556,535.847
311.008,521.015
312.459,522.91
313.911,518.761
315.363,510.137
316.815,504.945
318.267,510.119
319.718,498.913
321.17,510.855
322.622,520.599
324.074,519.921
325.525,511.809
326.977,501.149
328.429,503.743
329.881,501.541
331.333,495.626
332.784,488.222
334.236,493.937
335.688,511.402
337.14,502.395
338.592,490.636
340.043,490.122
341.495,494.871
342.947,495.27
344.399,491.861
345.85,486.04
347.302,481.454
348.754,482.964
350.206,478.907
351.658,479.687
353.109,481.026
354.561,479.966
356.013,465.489
357.465,475.259
358.917,480.719
360.368,477.106
361.82,480.073
363.272,475.579
364.724,458.644
366.176,465.472
367.627,444.785
369.079,444.742
370.531,461.006
371.983,461.396
373.434,461.93
374.886,452.494
376.338,452.682
377.79,458.824
379.242,463.48
380.693,467.244
382.145,460.166
383.597,464.583
385.049,468.249
386.501,463.686
387.952,458.674
389.404,452.73
390.856,452.775
392.308,451.016
393.759,453.683
395.211,468.232
396.663,480.371
398.115,461.351
399.567,457.117
401.018,453.918
402.47,452.027
403.922,462.718
405.374,443.161
406.826,464.396
408.277,462.66
409.729,453.855
411.181,449.069
412.633,460.446
414.085,459.949
415.536,469.524
416.988,457.7
418.44,439.163
419.892,447.242
421.343,443.466
422.795,450.896
424.247,435.049
425.699,427.377
427.151,434.383
428.602,448.238
430.054,426.814
431.506,434.963
432.958,449.901
434.41,455.079
435.861,447.152
437.313,440.099
438.765,443.297
440.217,436.162
441.668,441.838
443.12,447.378
444.572,422.641
446.024,436.214
447.476,442.558
448.927,447.25
450.379,444.708
451.831,440.091
453.283,445.368
454.735,444.052
456.186,452.742
457.638,454.068
459.09,447.468
460.542,438.316
461.993,426.542
463.445,435.219
464.897,436.111
466.349,438.694
467.801,441.477
469.252,429.513
470.704,431.621
472.156,429.039
473.608,429.728
475.06,433.682
476.511,434.2
477.963,423.497
479.415,431.207
480.867,436.138
482.319,433.66
483.77,431.505
485.222,443.975
486.674,446.349
488.126,443.82
489.577,439.589
491.029,434.662
492.481,425.997
493.933,427.035
495.385,428.126
496.836,418.975
498.288,419.317
499.74,424.116
501.192,427.152
502.644,433.994
504.095,423.633
505.547,407.078
506.999,416.472
508.451,419.816
509.902,413.527
511.354,434.657
512.806,426.232
514.258,418.816
515.71,417.008
517.161,426.25
518.613,434.262
520.065,431.01
521.517,430.094
522.969,421.24
524.42,414.522
525.872,413.35
527.324,419.913
528.776,439.88
530.228,425.019
531.679,419.707
533.131,417.463
534.583,419.158
536.035,435.098
537.486,426.798
538.938,422.269
540.39,419.29
541.842,425.195
543.294,428.349
544.745,432.397
546.197,427.696
547.649,415.967
549.101,426.466
550.553,439.095
552.004,437.676
553.456,430.023
554.908,433.107
556.36,421.285
557.811,427.339
559.263,415.381
560.715,398.887
562.167,423.386
563.619,432.967
565.07,431.423
566.522,431.187
567.974,419.289
569.426,411.599
570.878,440.059
572.329,423.968
573.781,426.388
575.233,421.48
576.685,418.629
578.137,423.633
579.588,434.052
581.04,417.338
582.492,422.315
583.944,425.572
585.395,427.648
586.847,428.001
588.299,424.774
589.751,428.863
591.203,420.474
592.654,431.599
594.106,435.695
595.558,424.408
597.01,416.336
598.462,428.72
599.913,421.855
601.365,429.4
602.817,421.519
604.269,414.082
605.72,408.83
607.172,423.632
608.624,422.174
610.076,438.642
611.528,432.25
612.979,415.268
614.431,419.535
615.883,410.288
617.335,425.988
618.787,422.675
620.238,425.468
621.69,436.303
623.142,437.312
624.594,412.111
626.046,418.813
627.497,429.239
628.949,434.352
630.401,425.728
631.853,418.402
633.304,431.803
634.756,443.433
636.208,436.5
637.66,437.102
639.112,441.804
640.563,440.385
642.015,438.692
643.467,441.753
644.919,444.723
646.371,440.293
647.822,434.926
649.274,436.362
650.726,461.003
652.178,460.32
653.629,436.361
655.081,424.719
656.533,435.332
657.985,448.345
659.437,447.689
660.888,443.896
662.34,442.313
663.792,446.742
665.244,451.675
666.696,454.699
668.147,458.155
669.599,455.407
671.051,467.235
672.503,456.058
673.954,454.181
675.406,449.859
676.858,446.06
678.31,451.861
679.762,463.959
681.213,437.28
682.665,448.038
684.117,456.384
685.569,466.12
687.021,474.967
688.472,456.463
689.924,478.665
691.376,481.886
692.828,465.596
694.28,450.825
695.731,450.156
697.183,467.571
698.635,461.041
700.087,448.727
701.538,459.76
702.99,457.992
704.442,457.402
705.894,473.508
707.346,475.481
708.797,484.387
710.249,460.178
711.701,455.952
713.153,468.446
714.605,473.659
716.056,454.023
717.508,455.66
718.96,451.147
720.412,454.279
721.863,462.421
723.315,465.756
724.767,464.39
726.219,465.749
727.671,474.927
729.122,458.884
730.574,461.014
732.026,462.591
733.478,457.602
734.93,462.849
736.381,472.069
737.833,465.941
739.285,490.123
740.737,484.054
742.189,468.027
743.64,467.314
745.092,478.779
746.544,484.524
747.996,489.448
749.447,466.999
750.899,466.51
752.351,476.039
753.803,487.687
755.255,486.546
756.706,487.553
758.158,487.625
759.61,479.405
761.062,473.702
762.514,469.589
763.965,459.901
765.417,475.663
766.869,472.841
768.321,470.831
769.772,479.584
771.224,477.792
772.676,480.417
774.128,497.728
775.58,491.682
777.031,466.611
778.483,478.756
779.935,484.84
781.387,478.459
782.839,481.312
784.29,484.247
785.742,481.312
787.194,486.638
788.646,475.697
790.098,479.692
791.549,472.48
793.001,465.707
794.453,487.508
795.905,471.168
797.356,485.691
798.808,485.901
800.26,493.168
801.712,480.587
803.164,476.819
804.615,486.802
806.067,492.006
807.519,496.259
808.971,494.228
810.423,486.72
811.874,490.206
813.326,487.858
814.778,491.813
816.23,508.292
817.681,509.568
819.133,504.498
820.585,506.84
822.037,512.3
823.489,505.991
824.94,501.228
826.392,505.316
827.844,499.169
829.296,510.336
830.748,532.072
832.199,536.732
833.651,519.096
835.103,526.022
836.555,513.22
838.007,527.031
839.458,513.843
840.91,511.604
842.362,529.325
843.814,542.362
845.265,524.183
846.717,542.966
848.169,526.975
849.621,552.42
851.073,538.524
852.524,529.545
853.976,531.794
855.428,513.792
856.88,522.467
858.332,528.523
859.783,533.33
861.235,535.687
862.687,537.421
864.139,538.555
865.59,537.849
867.042,555.661
868.494,509.996
869.946,517.328
871.398,527.734
872.849,536.75
874.301,528.77
875.753,524.318
877.205,528.937
878.657,516.866
880.108,517.012
881.56,528.585
883.012,524.05
884.464,518.622
885.915,530.492
887.367,543.058
888.819,522.294
890.271,543.409
891.723,534.376
893.174,535.608
894.626,550.587
896.078,548.128
897.53,552.355
898.982,565.099
900.433,524.799
901.885,545.557
903.337,574.168
904.789,560.757
906.241,556.808
907.692,560.307
909.144,576.893
910.596,553.791
912.048,567.009
913.499,570.907
914.951,561.549
916.403,566.951
917.855,567.368
919.307,556.812
920.758,570.273
922.21,566.335
923.662,553.328
925.114,549.266
926.566,558.864
928.017,568.656
929.469,565.443
930.921,560.748
932.373,557.416
933.824,556
935.276,582.148
936.728,588.481
938.18,578.705
939.632,577.424
941.083,574.216
942.535,571.565
943.987,565.942
945.439,588.286
946.891,569.458
948.342,582.201
949.794,576.5
951.246,557.303
952.698,567.647
954.15,572.899
955.601,576.204
957.053,576.92
958.505,571.551
959.957,571.566
961.408,572.961
962.86,573.954
964.312,567.485
965.764,567.642
967.216,556.316
968.667,576.641
970.119,567.788
971.571,563.816
973.023,564.821
974.475,574.983
975.926,576.396
977.378,574.536
978.83,598.354
980.282,588.121
981.733,572.359
983.185,574.756
984.637,581.242
986.089,582.91
987.541,578.44
988.992,577.974
990.444,608.391
991.896,585.502
993.348,576.903
994.8,576.638
996.251,588.54
997.703,593.654
999.155,594.477
1000.61,590.355
1002.06,604.2
1003.51,609.314
1004.96,619.366
1006.41,623.391
1007.87,607.381
1009.32,608.859
1010.77,630.83
1012.22,610.227
1013.67,628.352
1015.12,633.579
1016.58,624.535
1018.03,628.635
1019.48,630.432
1020.93,642.215
1022.38,644.552
1023.84,637.661
1025.29,648.546
1026.74,662.837
1028.19,660.87
1029.64,672.588
1031.09,679.367
1032.55,678.461
1034,688.121
1035.45,693.727
1036.9,681.922
1038.35,691.6
1039.8,688.602
1041.26,696.203
1042.71,707.619
1044.16,706.983
1045.61,700.791
1047.06,702.717
1048.52,751.361
1049.97,739.852
1051.42,745.099
1052.87,747.029
1054.32,747.065
1055.77,762.309
1057.23,771.081
1058.68,768.777
1060.13,756.485
1061.58,761.901
1063.03,774.588
1064.49,801.944
1065.94,811.612
1067.39,804.474
1068.84,821.13
1070.29,849.317
1071.74,848.408
1073.2,846.314
1074.65,869.238
1076.1,854.298
1077.55,847.215
1079,851.687
1080.46,852.779
1081.91,874.894
1083.36,893.322
1084.81,885.606
1086.26,874.886
1087.71,889.501
1089.17,878.281
1090.62,872.408
1092.07,868.905
1093.52,866.469
1094.97,863.674
1096.42,862.598
1097.88,832.114
1099.33,865.476
1100.78,871.599
1102.23,865.843
1103.68,854.148
1105.14,849.785
1106.59,849.134
1108.04,851.345
1109.49,856.976
1110.94,841.651
1112.39,815.436
1113.85,811.021
1115.3,813.375
1116.75,814.125
1118.2,802.56
1119.65,794.974
1121.11,821.421
1122.56,816.012
1124.01,794.561
1125.46,792.203
1126.91,782.829
1128.36,786.28
1129.82,793.299
1131.27,785.044
1132.72,769.314
1134.17,760.221
1135.62,765.391
1137.07,793.996
1138.53,776.212
1139.98,789.217
1141.43,778.113
1142.88,753.41
1144.33,754.396
1145.79,765.761
1147.24,762.239
1148.69,752.019
1150.14,763.359
1151.59,776.411
1153.04,770.064
1154.5,753.539
1155.95,743.242
1157.4,756.134
1158.85,773.56
1160.3,770.279
1161.76,757.295
1163.21,759.572
1164.66,746.349
1166.11,764.494
1167.56,765.107
1169.01,766.009
1170.47,754.954
1171.92,755.69
1173.37,770.602
1174.82,765.801
1176.27,770.008
1177.72,772.942
1179.18,782.787
1180.63,781.265
1182.08,786.33
1183.53,782.652
1184.98,773.862
1186.44,773.525
1187.89,781.614
1189.34,780.673
1190.79,785.435
1192.24,792.954
1193.69,785.573
1195.15,780.197
1196.6,777.65
1198.05,788.831
1199.5,801.586
1200.95,810.593
1202.41,807.559
1203.86,805.545
1205.31,791.365
1206.76,819.992
1208.21,784.809
1209.66,795.085
1211.12,798.744
1212.57,806.219
1214.02,805.212
1215.47,799.857
1216.92,830.829
1218.37,798.862
1219.83,797.886
1221.28,809.003
1222.73,807.904
1224.18,822.936
1225.63,830.957
1227.09,827.604
1228.54,826.355
1229.99,826.402
1231.44,817.96
1232.89,821.979
1234.34,812.376
1235.8,850.694
1237.25,853.705
1238.7,853.597
1240.15,834.335
1241.6,825.222
1243.06,844.304
1244.51,858.335
1245.96,850.786
1247.41,864.717
1248.86,846.815
1250.31,872.509
1251.77,876.388
1253.22,870.949
1254.67,877.122
1256.12,888.367
1257.57,896.208
1259.02,899.278
1260.48,894.907
1261.93,911.366
1263.38,949.356
1264.83,925.147
1266.28,937.977
1267.74,954.186
1269.19,959.792
1270.64,972.347
1272.09,986.47
1273.54,982.449
1274.99,990.908
1276.45,1000.98
1277.9,1010.76
1279.35,1008.44
1280.8,1039.25
1282.25,1056.52
1283.71,1080.07
1285.16,1097.76
1286.61,1128.34
1288.06,1165.4
1289.51,1182.91
1290.96,1179.93
1292.42,1229.65
1293.87,1258.05
1295.32,1254.99
1296.77,1289.53
1298.22,1316.81
1299.67,1361.21
1301.13,1416.2
1302.58,1443.27
1304.03,1456.78
1305.48,1515.45
1306.93,1595.46
1308.39,1634.55
1309.84,1710.31
1311.29,1753.38
1312.74,1836.43
1314.19,1914.25
1315.64,1987.86
1317.1,2074.51
1318.55,2174.77
1320,2262.51
1321.45,2352.39
1322.9,2454.65
1324.36,2538.48
1325.81,2665.65
1327.26,2748.04
1328.71,2802.65
1330.16,2862.52
1331.61,2885.42
1333.07,2917.55
1334.52,2935.07
1335.97,2939.91
1337.42,2942.78
1338.87,2888.25
1340.33,2832.24
1341.78,2811.87
1343.23,2752.42
1344.68,2657.11
1346.13,2600.77
1347.58,2511.02
1349.04,2409.68
1350.49,2328.17
1351.94,2260.13
1353.39,2172.94
1354.84,2034.95
1356.29,2010.48
1357.75,1893.68
1359.2,1810.69
1360.65,1725.05
1362.1,1668.54
1363.55,1624.37
1365.01,1586.88
1366.46,1549.95
1367.91,1509.91
1369.36,1468.09
1370.81,1411.57
1372.26,1396.13
1373.72,1357.3
1375.17,1348.17
1376.62,1318.5
1378.07,1285.71
1379.52,1265.84
1380.98,1241.61
1382.43,1242.16
1383.88,1231.76
1385.33,1202.51
1386.78,1189.91
1388.23,1192.13
1389.69,1157.02
1391.14,1179.72
1392.59,1161.99
1394.04,1134.17
1395.49,1135.15
1396.94,1134.58
1398.4,1133.69
1399.85,1127.66
1401.3,1114.9
1402.75,1126.89
1404.2,1139.16
1405.66,1118.92
1407.11,1123.83
1408.56,1145.91
1410.01,1126.95
1411.46,1135.08
1412.91,1136.46
1414.37,1167.47
1415.82,1167.98
1417.27,1156.62
1418.72,1147.88
1420.17,1159.89
1421.63,1164.85
1423.08,1152.11
1424.53,1158.73
1425.98,1185.94
1427.43,1172.14
1428.88,1164.27
1430.34,1171.01
1431.79,1172.88
1433.24,1188.88
1434.69,1208.45
1436.14,1199.67
1437.59,1179.42
1439.05,1197.39
1440.5,1234.1
1441.95,1253.03
1443.4,1256.85
1444.85,1272.87
1446.31,1251.67
1447.76,1263.42
1449.21,1262.07
1450.66,1266.89
1452.11,1292.75
1453.56,1308.79
1455.02,1331.37
1456.47,1352.54
1457.92,1366.54
1459.37,1391.65
1460.82,1384.34
1462.28,1367.05
1463.73,1406.09
1465.18,1408.8
1466.63,1446.22
1468.08,1452.89
1469.53,1471.37
1470.99,1478.9
1472.44,1487.51
1473.89,1527.04
1475.34,1567.91
1476.79,1591.91
1478.24,1609.55
1479.7,1624.59
1481.15,1662.59
1482.6,1702.77
1484.05,1685.99
1485.5,1708.9
1486.96,1760.49
1488.41,1791.46
1489.86,1837.63
1491.31,1872.58
1492.76,1897.03
1494.21,1944.06
1495.67,1989.36
1497.12,2028.78
1498.57,2081.4
1500.02,2127.95
1501.47,2206.63
1502.93,2263.73
1504.38,2319.35
1505.83,2349.44
1507.28,2438.77
1508.73,2520.32
1510.18,2626.33
1511.64,2709.91
1513.09,2802.69
1514.54,2925.09
1515.99,3032.2
1517.44,3178.15
1518.89,3310.59
1520.35,3444.89
1521.8,3592.13
1523.25,3803.38
1524.7,4022.02
1526.15,4295.04
1527.61,4490.71
1529.06,4862.69
1530.51,5214.36
1531.96,5584.57
1533.41,6006.47
1534.86,6506.55
1536.32,7083.38
1537.77,7720.2
1539.22,8406.42
1540.67,9206.26
1542.12,9993.17
1543.58,10965.9
1545.03,11912.1
1546.48,13030.7
1547.93,14274.9
1549.38,15518.6
1550.83,16746.2
1552.29,17939.3
1553.74,19386.8
1555.19,20778.3
1556.64,22147.3
1558.09,23545.4
1559.54,24801.9
1561,25835.1
1562.45,26900
1563.9,27789.8
1565.35,28184.1
1566.8,28257.5
1568.26,27883.2
1569.71,27479.1
1571.16,26477.6
1572.61,25322.1
1574.06,23952.8
1575.51,22332.9
1576.97,20746.7
1578.42,19062.5
1579.87,17287.5
1581.32,15721
1582.77,14279.3
1584.23,12909.9
1585.68,11739.2
1587.13,10712.2
1588.58,9751.75
1590.03,8958.25
1591.48,8154.08
1592.94,7562.82
1594.39,7020.08
1595.84,6534.28
1597.29,6148.28
1598.74,5771.03
1600.2,5430.87
1601.65,5165.41
1603.1,4895.44
1604.55,4666.79
1606,4477.97
1607.45,4246.55
1608.91,4017.83
1610.36,3828.71
1611.81,3577.88
1613.26,3548.35
1614.71,3312.67
1616.16,3147.63
1617.62,3056.51
1619.07,2862.62
1620.52,2785.6
1621.97,2677.6
1623.42,2581.51
1624.88,2474.18
1626.33,2374.19
1627.78,2303.29
1629.23,2232.78
1630.68,2163.65
1632.13,2084.17
1633.59,2016.41
1635.04,1993.16
1636.49,1916.68
1637.94,1861
1639.39,1805.33
1640.85,1795.2
1642.3,1764.75
1643.75,1728.51
1645.2,1738.93
1646.65,1682.19
1648.1,1647.03
1649.56,1615.53
1651.01,1604.28
1652.46,1565.38
1653.91,1524.36
1655.36,1495.08
1656.81,1476.33
1658.27,1476.29
1659.72,1434.13
1661.17,1448
1662.62,1396.57
1664.07,1403.4
1665.53,1360.64
1666.98,1357.95
1668.43,1333.59
1669.88,1321.72
1671.33,1288.1
1672.78,1264.23
1674.24,1284.19
1675.69,1284.73
1677.14,1265.21
1678.59,1249.55
1680.04,1215.02
1681.5,1204.37
1682.95,1211.32
1684.4,1204.62
1685.85,1192.06
1687.3,1141.37
1688.75,1166.68
1690.21,1185
1691.66,1128.29
1693.11,1127.63
1694.56,1120.92
1696.01,1126.62
1697.46,1104.25
1698.92,1106.62
1700.37,1093.11
1701.82,1082.1
1703.27,1082.95
1704.72,1079.98
1706.18,1063.38
1707.63,1062.32
1709.08,1063.18
1710.53,1065.21
1711.98,1070.18
1713.43,1059.96
1714.89,1073.21
1716.34,1066.7
1717.79,1055.98
1719.24,1056.92
1720.69,1070.18
1722.15,1044.56
1723.6,1045.08
1725.05,1032.01
1726.5,1050.12
1727.95,1068.52
1729.4,1053.17
1730.86,1040.86
1732.31,1037.93
1733.76,1048.02
1735.21,1034.54
1736.66,1015.55
1738.11,1025.39
1739.57,1035.08
1741.02,1023.28
1742.47,1016.86
1743.92,1033.12
1745.37,1017.64
1746.83,1009.82
1748.28,1001.97
1749.73,995.479
1751.18,994.019
1752.63,987.388
1754.08,968.534
1755.54,982.591
1756.99,1004.27
1758.44,993.494
1759.89,935.358
1761.34,946.678
1762.8,948.338
1764.25,937.961
1765.7,960.292
1767.15,955.429
1768.6,955.02
1770.05,953.093
1771.51,937.435
1772.96,925.881
1774.41,927.516
1775.86,933.906
1777.31,942.349
1778.76,924.088
1780.22,908.755
1781.67,893.981
1783.12,914.077
1784.57,902.582
1786.02,924.88
1787.48,907.62
1788.93,898.544
1790.38,914.428
1791.83,908.188
1793.28,901.614
1794.73,882.294
1796.19,866.853
1797.64,875.136
1799.09,882.152
1800.54,876.304
1801.99,891.579
1803.45,881.526
1804.9,866.435
1806.35,880.3
1807.8,881.852
1809.25,877.697
1810.7,879.816
1812.16,881.126
1813.61,872.433
1815.06,873.71
1816.51,854.965
1817.96,863.366
1819.41,859.345
1820.87,863.691
1822.32,869.856
1823.77,868.396
1825.22,866.994
1826.67,869.414
1828.13,858.102
1829.58,871.524
1831.03,876.254
1832.48,890.611
1833.93,883.837
1835.38,877.43
1836.84,882.778
1838.29,872.033
1839.74,867.094
1841.19,867.503
1842.64,897.435
1844.1,887.741
1845.55,909.522
1847,931.888
1848.45,940.422
1849.9,937.594
1851.35,932.964
1852.81,915.545
1854.26,929.752
1855.71,931.512
1857.16,931.637
1858.61,928.818
1860.07,931.412
1861.52,930.177
1862.97,932.722
1864.42,941.039
1865.87,938.294
1867.32,949.256
1868.78,933.214
1870.23,936.609
1871.68,941.247
1873.13,930.394
1874.58,921.034
1876.03,926.624
1877.49,931.729
1878.94,912.717
1880.39,889.877
1881.84,880.225
1883.29,894.782
1884.75,882.611
1886.2,891.136
1887.65,886.532
1889.1,891.595
1890.55,901.756
1892,906.219
1893.46,876.946
1894.91,851.495
1896.36,853.063
1897.81,875.987
1899.26,857.76
1900.72,832.214
1902.17,835.019
1903.62,824.944
1905.07,828.019
1906.52,828.998
1907.97,825.487
1909.43,829.108
1910.88,829.93
1912.33,824.757
1913.78,804.669
1915.23,813.16
1916.68,821.703
1918.14,809.924
1919.59,815.285
1921.04,808.467
1922.49,811.641
1923.94,807.623
1925.4,820.6
1926.85,838.356
1928.3,808.251
1929.75,823.174
1931.2,828.207
1932.65,824.175
1934.11,799.404
1935.56,809.568
1937.01,793.265
1938.46,797.445
1939.91,805.934
1941.37,818.415
1942.82,834.802
1944.27,806.535
1945.72,807.146
1947.17,807.716
1948.62,816.733
1950.08,821.296
1951.53,830.581
1952.98,819.934
1954.43,824.116
1955.88,826.328
1957.33,818.115
1958.79,815.145
1960.24,821.715
1961.69,831.222
1963.14,838.331
1964.59,840.099
1966.05,840.95
1967.5,832.177
1968.95,827.793
1970.4,836.079
1971.85,841.05
1973.3,836.229
1974.76,839.799
1976.21,851.32
1977.66,844.004
1979.11,832.281
1980.56,840.633
1982.02,837.263
1983.47,846.523
1984.92,852.871
1986.37,879.891
1987.82,859.562
1989.27,854.473
1990.73,868.012
1992.18,868.604
1993.63,867.328
1995.08,874.002
1996.53,884.496
1997.98,870.373
1999.44,862.623
2000.89,867.779
2002.34,854.84
2003.79,864.325
2005.24,886.323
2006.7,868.513
2008.15,873.201
2009.6,829.635
2011.05,851.261
2012.5,858.06
2013.95,835.72
2015.41,825.735
2016.86,850.294
2018.31,854.948
2019.76,850.444
2021.21,839.699
2022.67,824.469
2024.12,848.909
2025.57,835.044
2027.02,834.71
2028.47,807.64
2029.92,821.325
2031.38,797.004
2032.83,824.369
2034.28,795.712
2035.73,817.341
2037.18,812.176
2038.63,819.5
2040.09,810.711
2041.54,813.953
2042.99,820.358
2044.44,808.284
2045.89,807.038
2047.35,782.368
2048.8,776.845
2050.25,764.658
2051.7,787.321
2053.15,770.75
2054.6,752.716
2056.06,763.81
2057.51,772.935
2058.96,766.675
2060.41,760.833
2061.86,778.823
2063.32,761.211
2064.77,748.871
2066.22,743.409
2067.67,757.513
2069.12,774.167
2070.57,755.704
2072.03,747.188
2073.48,754.74
2074.93,745.327
2076.38,740.197
2077.83,742.696
2079.28,735.618
2080.74,764.255
2082.19,753.973
2083.64,740.477
2085.09,753.753
2086.54,734.189
2088,721.32
2089.45,727.895
2090.9,745.491
2092.35,735.279
2093.8,724.654
2095.25,721.218
2096.71,726.135
2098.16,744.512
2099.61,750.298
2101.06,752.909
2102.51,770.838
2103.97,762.946
2105.42,737.816
2106.87,734.149
2108.32,751.304
2109.77,739.645
2111.22,735.459
2112.68,735.166
2114.13,724.061
2115.58,732.992
2117.03,757.69
2118.48,759.277
2119.94,751.779
2121.39,767.574
2122.84,770.274
2124.29,761.321
2125.74,762.882
2127.19,762.84
2128.65,750.484
2130.1,753.146
2131.55,751.113
2133,763.104
2134.45,760.563
2135.9,761.551
2137.36,764.975
2138.81,762.741
2140.26,764.63
2141.71,768.739
2143.16,769.701
2144.62,763.063
2146.07,774.246
2147.52,776.326
2148.97,764.771
2150.42,769.873
2151.87,770.057
2153.33,768.603
2154.78,767.24
2156.23,768.781
2157.68,772.95
2159.13,790.491
2160.58,799.614
2162.04,795.926
2163.49,781.736
2164.94,785.803
2166.39,780.614
2167.84,797.092
2169.3,790.934
2170.75,800.211
2172.2,797.448
2173.65,798.87
2175.1,789.059
2176.55,804.575
2178.01,804.817
2179.46,805.878
2180.91,827.526
2182.36,817.738
2183.81,805.68
2185.27,805.575
2186.72,806.362
2188.17,812.097
2189.62,809.046
2191.07,830.394
2192.52,811.685
2193.98,827.36
2195.43,850.619
2196.88,833.359
2198.33,846.531
2199.78,813.22
2201.24,822.032
2202.69,817.96
2204.14,829.327
2205.59,833.158
2207.04,840.191
2208.49,831.02
2209.95,837.672
2211.4,833.718
2212.85,818.222
2214.3,842.444
2215.75,846.081
2217.2,818.211
2218.66,845.814
2220.11,848.633
2221.56,850.218
2223.01,832.59
2224.46,828.991
2225.92,829.142
2227.37,834.485
2228.82,826.096
2230.27,853.664
2231.72,846.982
2233.17,836.354
2234.63,827.924
2236.08,825.659
2237.53,856.492
2238.98,867.729
2240.43,850.969
2241.89,832.111
2243.34,852.487
2244.79,850.477
2246.24,855.883
2247.69,877.914
2249.14,852.104
2250.6,846.631
2252.05,848.7
2253.5,855.699
2254.95,881.777
2256.4,881.46
2257.85,869.989
2259.31,880.292
2260.76,884.354
2262.21,888.792
2263.66,897.501
2265.11,882.06
2266.57,890.219
2268.02,905.051
2269.47,905.894
2270.92,874.402
2272.37,896.918
2273.82,893.539
2275.28,892.563
2276.73,912.701
2278.18,908.563
2279.63,909.689
2281.08,929.61
2282.54,934.866
2283.99,896.559
2285.44,926.682
2286.89,940.029
2288.34,925.965
2289.79,921.268
2291.25,913.518
2292.7,922.486
2294.15,935.425
2295.6,917.489
2297.05,914.986
2298.5,949.306
2299.96,972.739
2301.41,986.186
2302.86,971.387
2304.31,973.365
2305.76,981.506
2307.22,960.101
2308.67,963.271
2310.12,979.604
2311.57,977.652
2313.02,969.994
2314.47,954.611
2315.93,979.871
2317.38,986.17
2318.83,993.969
2320.28,1001.49
2321.73,1002.6
2323.19,991.575
2324.64,1003.34
2326.09,1005.37
2327.54,995.546
2328.99,1007.52
2330.44,1019.68
2331.9,1041.59
2333.35,1044.86
2334.8,1041.54
2336.25,1057.09
2337.7,1030.17
2339.16,1022.22
2340.61,1047.39
2342.06,1043.96
2343.51,1031.38
2344.96,1080.51
2346.41,1082.36
2347.87,1086.34
2349.32,1092.95
2350.77,1102.35
2352.22,1067.55
2353.67,1118.62
2355.12,1161.77
2356.58,1129.26
2358.03,1127.68
2359.48,1140.8
2360.93,1130.12
2362.38,1137.12
2363.84,1157.27
2365.29,1209.41
2366.74,1203.53
2368.19,1190.95
2369.64,1191.38
2371.09,1214.65
2372.55,1212.18
2374,1218.86
2375.45,1244.66
2376.9,1257.24
2378.35,1290.2
2379.8,1314.94
2381.26,1313.81
2382.71,1320.44
2384.16,1352.09
2385.61,1383.22
2387.06,1377.45
2388.52,1418.7
2389.97,1432.72
2391.42,1454.52
2392.87,1471
2394.32,1512.76
2395.77,1520.77
2397.23,1550.41
2398.68,1610.93
2400.13,1621.08
2401.58,1612.89
2403.03,1679.09
2404.49,1709.6
2405.94,1722.03
2407.39,1755.77
2408.84,1809.35
2410.29,1855.29
2411.74,1830.82
2413.2,1872.41
2414.65,1926.87
2416.1,1946.58
2417.55,1965.47
2419,1988.84
2420.46,1992.6
2421.91,2038.68
2423.36,2033.64
2424.81,2054.44
2426.26,2063.74
2427.71,2064.49
2429.17,2099.71
2430.62,2084.38
2432.07,2090.35
2433.52,2046.35
2434.97,2064.76
2436.42,2059.24
2437.88,2055.72
2439.33,2020.02
2440.78,2015
2442.23,2022.67
2443.68,2031.29
2445.14,2024.11
2446.59,1982.52
2448.04,1959.23
2449.49,1934.42
2450.94,1949.07
2452.39,1934.58
2453.85,1930.93
2455.3,1915.28
2456.75,1892.66
2458.2,1873.8
2459.65,1881.85
2461.1,1866.04
2462.56,1849.24
2464.01,1882.8
2465.46,1833.52
2466.91,1829.11
2468.36,1806.23
2469.82,1810.64
2471.27,1819.47
2472.72,1808.58
2474.17,1766.03
2475.62,1791.64
2477.07,1761.11
2478.53,1760.56
2479.98,1767.51
2481.43,1766.75
2482.88,1773.4
2484.33,1787.66
2485.79,1798.03
2487.24,1783.98
2488.69,1765.97
2490.14,1741.89
2491.59,1736.47
2493.04,1738.51
2494.5,1762.6
2495.95,1764.83
2497.4,1760.63
2498.85,1769.75
2500.3,1781.2
2501.76,1808.33
2503.21,1820.2
2504.66,1818.63
2506.11,1764.12
2507.56,1829.19
2509.01,1819.36
2510.47,1826.78
2511.92,1821.57
2513.37,1817.28
2514.82,1841.38
2516.27,1856.47
2517.72,1852.05
2519.18,1871.91
2520.63,1885
2522.08,1911.33
2523.53,1909.23
2524.98,1951.51
2526.44,1977.78
2527.89,1996.47
2529.34,1956.71
2530.79,1983.13
2532.24,2020.41
2533.69,2052.21
2535.15,2086.06
2536.6,2074.72
2538.05,2104.68
2539.5,2122.93
2540.95,2136.59
2542.41,2157.07
2543.86,2200.44
2545.31,2226.23
2546.76,2251.67
2548.21,2276.87
2549.66,2334.29
2551.12,2358.85
2552.57,2377.83
2554.02,2426.79
2555.47,2459.71
2556.92,2480.7
2558.37,2500.36
2559.83,2566.25
2561.28,2639.84
2562.73,2668.84
2564.18,2730.33
2565.63,2809.27
2567.09,2841
2568.54,2876.2
2569.99,2921.41
2571.44,3009.49
2572.89,3071.5
2574.34,3123
2575.8,3178.51
2577.25,3303.58
2578.7,3367.36
2580.15,3471.81
2581.6,3497.04
2583.06,3640.1
2584.51,3726.03
2585.96,3839.76
2587.41,3905.9
2588.86,4009.79
2590.31,4155.71
2591.77,4305.38
2593.22,4414.01
2594.67,4520.32
2596.12,4692.8
2597.57,4853.65
2599.02,4991.3
2600.48,5182.62
2601.93,5350.52
2603.38,5563.49
2604.83,5751.54
2606.28,5981.23
2607.74,6165.43
2609.19,6383.64
2610.64,6706.15
2612.09,6990.21
2613.54,7243.35
2614.99,7484.96
2616.45,7768.81
2617.9,8095.56
2619.35,8448.04
2620.8,8787.48
2622.25,9115.33
2623.71,9588.99
2625.16,9973.23
2626.61,10416
2628.06,10777.5
2629.51,11162.3
2630.96,11605.4
2632.42,12101.2
2633.87,12578.2
2635.32,13059.8
2636.77,13444.4
2638.22,13917
2639.68,14396.2
2641.13,14906.6
2642.58,15297.6
2644.03,15776.7
2645.48,16189.6
2646.93,16603.9
2648.39,16886.5
2649.84,17214.1
2651.29,17494.3
2652.74,17801.8
2654.19,18021.5
2655.64,18273.5
2657.1,18300.3
2658.55,18363.1
2660,18331.8
2661.45,18319.7
2662.9,18272.4
2664.36,18093.4
2665.81,17926.3
2667.26,17750.2
2668.71,17513.1
2670.16,17175.2
2671.61,16931.4
2673.07,16471.2
2674.52,16118.6
2675.97,15654
2677.42,15222.6
2678.87,14736.8
2680.32,14248.1
2681.78,13778.3
2683.23,13302.7
2684.68,12908.5
2686.13,12324.1
2687.58,11870.6
2689.04,11428.6
2690.49,10956.3
2691.94,10494.4
2693.39,10052.1
2694.84,9647.64
2696.29,9305.19
2697.75,8910.03
2699.2,8488.75
2700.65,8099.72
2702.1,7800.86
2703.55,7433.85
2705.01,7149.23
2706.46,6825.19
2707.91,6493.2
2709.36,6242.94
2710.81,5946.49
2712.26,5758.46
2713.72,5539.83
2715.17,5246.64
2716.62,5050.17
2718.07,4921.49
2719.52,4728.24
2720.98,4525.26
2722.43,4374.28
2723.88,4222.53
2725.33,4059.22
2726.78,3908.06
2728.23,3732.41
2729.69,3737.1
2731.14,3527.69
2732.59,3460.43
2734.04,3368.93
2735.49,3283.96
2736.94,3211.34
2738.4,3124.68
2739.85,3056.66
2741.3,2962.91
2742.75,2927.35
2744.2,2827.59
2745.66,2757.59
2747.11,2694.53
2748.56,2636.24
2750.01,2566.07
2751.46,2527.15
2752.91,2502.08
2754.37,2444.6
2755.82,2410.42
2757.27,2374.27
2758.72,2356.42
2760.17,2247.17
2761.63,2194.16
2763.08,2188.11
2764.53,2202.96
2765.98,2121.31
2767.43,2112.75
2768.88,2059.82
2770.34,2048.83
2771.79,2007.83
2773.24,1975.56
2774.69,1968.64
2776.14,1929.17
2777.59,1909.82
2779.05,1891.95
2780.5,1859.29
2781.95,1830.07
2783.4,1814.12
2784.85,1800.49
2786.31,1768.1
2787.76,1739.4
2789.21,1748.78
2790.66,1752.02
2792.11,1708.19
2793.56,1697.8
2795.02,1667.46
2796.47,1685.8
2797.92,1660.29
2799.37,1624.44
2800.82,1624.11
2802.28,1613
2803.73,1596.7
2805.18,1578.02
2806.63,1568.51
2808.08,1583.46
2809.53,1561.6
2810.99,1553.47
2812.44,1564.64
2813.89,1513.41
2815.34,1516.08
2816.79,1479.89
2818.24,1501.84
2819.7,1494.49
2821.15,1482.81
2822.6,1464.68
2824.05,1454.98
2825.5,1487.35
2826.96,1425.53
2828.41,1416.56
2829.86,1430.09
2831.31,1417.61
2832.76,1419.79
2834.21,1423.56
2835.67,1408.45
2837.12,1392.05
2838.57,1386.7
2840.02,1357.16
2841.47,1391.39
2842.93,1359.9
2844.38,1373.18
2845.83,1362.73
2847.28,1360.25
2848.73,1350.06
2850.18,1359.83
2851.64,1346.95
2853.09,1333.58
2854.54,1349.03
2855.99,1359.33
2857.44,1343.74
2858.9,1338.92
2860.35,1342.22
2861.8,1324.61
2863.25,1347.9
2864.7,1349.36
2866.15,1337.99
2867.61,1344.59
2869.06,1319.17
2870.51,1357.03
2871.96,1367.35
2873.41,1337
2874.86,1359.14
2876.32,1323.17
2877.77,1337.33
2879.22,1330.67
2880.67,1323.08
2882.12,1332.8
2883.58,1308.47
2885.03,1327.55
2886.48,1325.78
2887.93,1322.16
2889.38,1342.14
2890.83,1337.72
2892.29,1322.99
2893.74,1348.89
2895.19,1336.61
2896.64,1327.91
2898.09,1328.75
2899.54,1300.93
2901,1340.48
2902.45,1335.89
2903.9,1320.46
2905.35,1349.49
2906.8,1341.69
2908.26,1317.3
2909.71,1329.1
2911.16,1332.79
2912.61,1323.06
2914.06,1330.08
2915.51,1301.93
2916.97,1316.47
2918.42,1309.27
2919.87,1311.95
2921.32,1303.14
2922.77,1299.92
2924.23,1288.84
2925.68,1264.78
2927.13,1235.82
2928.58,1249.35
2930.03,1225.95
2931.48,1218.42
2932.94,1207.24
2934.39,1201.03
2935.84,1204.02
2937.29,1196.19
2938.74,1189.54
2940.2,1177.45
2941.65,1168.39
2943.1,1140.07
2944.55,1149.93
2946,1159.17
2947.45,1124.15
2948.91,1119.87
2950.36,1092.41
2951.81,1087.94
2953.26,1092.43
2954.71,1077.2
2956.16,1066.35
2957.62,1064.67
2959.07,1067.69
2960.52,1049.64
2961.97,1028.06
2963.42,1022.93
2964.88,996.43
2966.33,1013.58
2967.78,1034.41
2969.23,1018.48
2970.68,1007.34
2972.13,1024.74
2973.59,1007.44
2975.04,985.844
2976.49,973.606
2977.94,972.213
2979.39,967.533
2980.84,977.644
2982.3,978.328
2983.75,966.991
2985.2,964.238
2986.65,943.433
2988.1,932.088
2989.56,926.457
2991.01,925.681
2992.46,949.056
2993.91,905.727
2995.36,938.403
2996.81,940.98
2998.27,949.247
2999.72,934.223
3001.17,910.323
3002.62,930.278
3004.07,925.322
3005.53,910.632
3006.98,927.299
3008.43,933.364
3009.88,901.372
3011.33,905.343
3012.78,911.75
3014.24,924.663
3015.69,901.873
3017.14,903.049
3018.59,932.163
3020.04,897.727
3021.5,889.777
3022.95,887.241
3024.4,910.006
3025.85,923.17
3027.3,917.873
3028.75,904.008
3030.21,901.572
3031.66,894.99
3033.11,883.02
3034.56,894.407
3036.01,883.236
3037.46,882.127
3038.92,903.224
3040.37,892.229
3041.82,896.817
3043.27,916.48
3044.72,913.885
3046.18,903.541
3047.63,920.117
3049.08,915.078
3050.53,949.139
3051.98,931.796
3053.43,921.769
3054.89,904.3
3056.34,902.49
3057.79,901.814
3059.24,899.662
3060.69,919.483
3062.15,930.494
3063.6,921.96
3065.05,932.463
3066.5,935.066
3067.95,945.836
3069.4,948.171
3070.86,938.303
3072.31,955.596
3073.76,951.35
3075.21,944.376
3076.66,942.54
3078.11,957.122
3079.57,986.912
3081.02,995.438
3082.47,996.347
3083.92,991.192
3085.37,1022.59
3086.83,1021.26
3088.28,997.899
3089.73,1026.06
3091.18,1053.7
3092.63,1049
3094.08,1059.87
3095.54,1072.98
3096.99,1106.15
3098.44,1095.96
3099.89,1101.15
3101.34,1145.57
3102.8,1137.26
3104.25,1160.22
3105.7,1173.03
3107.15,1202.51
3108.6,1196.37
3110.05,1206.13
3111.51,1227.51
3112.96,1242.51
3114.41,1290.55
3115.86,1330.24
3117.31,1323.64
3118.76,1352.04
3120.22,1363.93
3121.67,1393.1
3123.12,1411.5
3124.57,1410.53
3126.02,1419.62
3127.48,1432.01
3128.93,1472.53
3130.38,1473.59
3131.83,1489.07
3133.28,1527.15
3134.73,1527.36
3136.19,1526.93
3137.64,1558.32
3139.09,1552.42
3140.54,1512.41
3141.99,1599.96
3143.45,1592.78
3144.9,1587.46
3146.35,1588.33
3147.8,1568.47
3149.25,1587.87
3150.7,1619.81
3152.16,1586.98
3153.61,1608.63
3155.06,1612.09
3156.51,1610.02
3157.96,1609
3159.42,1624.52
3160.87,1589.43
3162.32,1612.74
3163.77,1605.62
3165.22,1574.65
3166.67,1597.19
3168.13,1634.38
3169.58,1614.95
3171.03,1608.01
3172.48,1633.88
3173.93,1663.7
3175.38,1648.9
3176.84,1699.99
3178.29,1690.68
3179.74,1714.3
3181.19,1738.65
3182.64,1738.18
3184.1,1794.46
3185.55,1803.75
3187,1803.39
3188.45,1804.36
3189.9,1829.65
3191.35,1849.88
3192.81,1841.54
3194.26,1881.87
3195.71,1909
3197.16,1902.7
3198.61,1951.94
3200.06,1942.53
3201.52,1959.11
3202.97,1932.06
3204.42,1919.07
3205.87,1899.84
3207.32,1895.91
3208.78,1870.2
3210.23,1857.48
3211.68,1813.83
3213.13,1814.53
3214.58,1780.55
3216.03,1738.32
3217.49,1709.31
3218.94,1678.37
3220.39,1647.11
3221.84,1612.12
3223.29,1533.75
3224.75,1495.49
3226.2,1479.05
3227.65,1409.27
3229.1,1405.09
3230.55,1309.64
3232,1300.89
3233.46,1270.59
3234.91,1237.54
3236.36,1236.02
3237.81,1177.55
3239.26,1149.74
3240.72,1094.16
3242.17,1090.95
3243.62,1060.45
3245.07,1051.92
3246.52,1021.38
3247.97,1012.28
3249.43,954.595
3250.88,968.468
3252.33,939.637
3253.78,926.974
3255.23,932.23
3256.68,925.464
3258.14,933.965
3259.59,908.755
3261.04,894.932
3262.49,857.176
3263.94,861.547
3265.4,838.039
3266.85,815.504
3268.3,826.961
3269.75,858.694
3271.2,831.011
3272.65,834.61
3274.11,818.685
3275.56,795.346
3277.01,834.007
3278.46,803.494
3279.91,809.407
3281.37,811.469
3282.82,800.285
3284.27,817.215
3285.72,778.948
3287.17,808.523
3288.62,786.782
3290.08,774.488
3291.53,782.357
3292.98,797.246
3294.43,793.436
3295.88,769.261
3297.33,792.789
3298.79,789.343
3300.24,777.445
3301.69,751.631
3303.14,779.262
3304.59,754.555
3306.05,771.775
3307.5,748.423
3308.95,753.544
3310.4,773.025
3311.85,767.195
3313.3,765.104
3314.76,759.991
3316.21,762.351
3317.66,764.638
3319.11,759.375
3320.56,757.951
3322.02,763.492
3323.47,755.974
3324.92,761.151
3326.37,746.372
3327.82,736.422
3329.27,747.377
3330.73,719.991
3332.18,743.19
3333.63,742.897
3335.08,732.619
3336.53,751.575
3337.98,735.786
3339.44,743.339
3340.89,727.017
3342.34,743.443
3343.79,755.505
3345.24,736.006
3346.7,706.172
3348.15,744.95
3349.6,738.526
3351.05,762.404
3352.5,753.432
3353.95,757.938
3355.41,748.573
3356.86,741.926
3358.31,744.126
3359.76,756.287
3361.21,751.69
3362.67,739.44
3364.12,765.873
3365.57,749.03
3367.02,736.392
3368.47,736.102
3369.92,746.88
3371.38,766.201
3372.83,731.488
3374.28,753.463
3375.73,764.024
3377.18,738.982
3378.63,723.695
3380.09,756.679
3381.54,749.221
3382.99,746.89
3384.44,743.694
3385.89,758.323
3387.35,734.996
3388.8,724.693
3390.25,741.36
3391.7,751.767
3393.15,759.68
3394.6,725.682
3396.06,735.739
3397.51,730.973
3398.96,735.874
3400.41,719.778
3401.86,743.888
3403.32,730.878
3404.77,745.458
3406.22,733.824
3407.67,730.182
3409.12,757.877
3410.57,763.858
3412.03,730.825
3413.48,736.215
3414.93,743.225
3416.38,735.037
3417.83,741.397
3419.28,722.377
3420.74,734.757
3422.19,717.541
3423.64,710.482
3425.09,727.387
3426.54,730.262
3428,719.478
3429.45,708.772
3430.9,734.044
3432.35,752.316
3433.8,739.822
3435.25,719.886
3436.71,702.624
3438.16,723.893
3439.61,722.394
3441.06,731.438
3442.51,734.456
3443.97,723.74
3445.42,729.952
3446.87,734.034
3448.32,737.265
3449.77,722.141
3451.22,711.173
3452.68,714.513
3454.13,722.637
3455.58,717.788
3457.03,703.916
3458.48,702.484
3459.94,708.427
3461.39,734.341
3462.84,732.652
3464.29,730.955
3465.74,738.19
3467.19,720.565
3468.65,724.301
3470.1,712.68
3471.55,734.398
3473,725.696
3474.45,717.029
3475.9,727.605
3477.36,708.387
3478.81,731.039
3480.26,730.547
3481.71,752.995
3483.16,713.359
3484.62,706.778
3486.07,756.517
3487.52,741.226
3488.97,718.329
3490.42,729.798
3491.87,731.144
3493.33,732.164
3494.78,710.764
3496.23,737.266
3497.68,722.871
3499.13,732.782
3500.58,735.961
3502.04,720.218
3503.49,734.839
3504.94,703.247
3506.39,733.594
3507.84,718.021
3509.3,733.522
3510.75,733.065
3512.2,731.08
3513.65,745.217
3515.1,721.54
3516.55,733.556
3518.01,726.865
3519.46,741.341
3520.91,723.065
3522.36,744.52
3523.81,739.988
3525.27,734.098
3526.72,750.01
3528.17,733.196
3529.62,732.692
3531.07,726.206
3532.52,723.202
3533.98,712.289
3535.43,726.372
3536.88,723.498
3538.33,718.991
3539.78,731.641
3541.24,746.114
3542.69,719.969
3544.14,743.827
3545.59,718.241
3547.04,721.291
3548.49,740.36
3549.95,723.645
3551.4,717.967
3552.85,744.597
3554.3,744.436
3555.75,728.179
3557.2,714.18
3558.66,723.901
3560.11,732.788
3561.56,726.451
3563.01,711.88
3564.46,753.118
3565.92,725.295
3567.37,725.784
3568.82,738.901
3570.27,728.45
3571.72,753.526
3573.17,747.042
3574.63,732.772
3576.08,734.336
3577.53,707.286
3578.98,743.872
3580.43,738.448
3581.89,731.811
3583.34,734.337
3584.79,745.027
3586.24,732.218
3587.69,719.259
3589.14,725.414
3590.6,727.979
3592.05,720.434
3593.5,753.781
3594.95,731.593
3596.4,711.322
3597.85,730.311
3599.31,751.675
3600.76,722.365
3602.21,726.696
3603.66,721.949
3605.11,740.104
3606.57,704.38
3608.02,738.388
3609.47,732.415
3610.92,749.342
3612.37,730.321
3613.82,717.969
3615.28,727.934
3616.73,734.927
3618.18,727.694
3619.63,735.2
3621.08,732.542
3622.54,737.471
3623.99,738.333
3625.44,736.044
3626.89,735.846
3628.34,729.567
3629.79,729.591
3631.25,746.627
3632.7,737.826
3634.15,756.801
3635.6,737.944
3637.05,747.402
3638.5,750.762
3639.96,734.007
3641.41,736.194
3642.86,760.841
3644.31,744.468
3645.76,740.754
3647.22,753.793
3648.67,752.748
3650.12,756.348
3651.57,755.629
3653.02,752.389
3654.47,749.968
3655.93,748.114
3657.38,770.939
3658.83,767.9
3660.28,740.455
3661.73,728.853
3663.19,742.539
3664.64,735.868
3666.09,743.087
3667.54,738.271
3668.99,753.438
3670.44,747.561
3671.9,779.547
3673.35,744.065
3674.8,757.698
3676.25,768.605
3677.7,753.816
3679.16,762.347
3680.61,742.555
3682.06,748.299
3683.51,740.451
3684.96,777.853
3686.41,735.58
3687.87,745.694
3689.32,733.501
3690.77,759.294
3692.22,736.86
3693.67,735.704
3695.12,755.145
3696.58,753.571
3698.03,749.718
3699.48,772.987
3700.93,763.752
3702.38,760.253
3703.84,780.007
3705.29,748.613
3706.74,763.619
3708.19,770.61
3709.64,749.279
3711.09,750.091
3712.55,771.024
3714,756.131
3715.45,751.579
3716.9,766.724
3718.35,805.295
3719.8,759.873
3721.26,754.228
3722.71,754.532
3724.16,767.033
3725.61,750.335
3727.06,749.493
3728.52,780.797
3729.97,773.907
3731.42,790.929
3732.87,765.307
3734.32,742.867
3735.77,766.872
3737.23,781.526
3738.68,771.582
3740.13,772.684
3741.58,732.275
3743.03,801.226
3744.49,790.743
3745.94,767.895
3747.39,781.327
3748.84,777.912
3750.29,774.323
3751.74,769.875
3753.2,770.742
3754.65,770.616
3756.1,780.084
3757.55,770.963
3759,783.16
3760.46,755.419
3761.91,779.983
3763.36,794.515
3764.81,769.333
3766.26,778.753
3767.71,781.393
3769.17,777.413
3770.62,780.861
3772.07,779.509
3773.52,767.144
3774.97,767.094
3776.42,790.577
3777.88,773.113
3779.33,794.18
3780.78,800.396
3782.23,799.023
3783.68,805.35
3785.14,781.792
3786.59,792.811
3788.04,778.053
3789.49,782.696
3790.94,776.587
3792.39,779.386
3793.85,801.687
3795.3,805.093
3796.75,806.209
3798.2,811.722
3799.65,814.184
3801.1,798.447
3802.56,794.292
3804.01,815.642
3805.46,801.997
3806.91,811.331
3808.36,778.528
3809.82,799.684
3811.27,797.383
3812.72,784.881
3814.17,798.2
3815.62,804.441
3817.07,800.542
3818.53,796.557
3819.98,821.542
3821.43,817.351
3822.88,799.534
3824.33,818.976
3825.79,821.599
3827.24,803.918
3828.69,827.152
3830.14,803.046
3831.59,825.454
3833.04,797.81
3834.5,800.248
3835.95,807.916
3837.4,828.769
3838.85,797.93
3840.3,817.09
3841.76,833.789
3843.21,818.882
3844.66,800.181
3846.11,815.443
3847.56,812.762
3849.01,853.121
3850.47,823.59
3851.92,831.455
3853.37,822.292
3854.82,837.981
3856.27,823.831
3857.72,833.116
3859.18,836.646
3860.63,862.139
3862.08,846.373
3863.53,841.918
3864.98,827.506
3866.44,842.477
3867.89,825.301
3869.34,858.435
3870.79,853.497
3872.24,854.623
3873.69,841.785
3875.15,828.75
3876.6,852.571
3878.05,853.155
3879.5,843.361
3880.95,846.323
3882.41,836.946
3883.86,860.721
3885.31,850.344
3886.76,844.012
3888.21,858.577
3889.66,865.651
3891.12,863.599
3892.57,845.914
3894.02,878.106
3895.47,865.593
3896.92,875.528
3898.37,877.247
3899.83,858.319
3901.28,886.598
3902.73,875.445
3904.18,889.385
3905.63,874.461
3907.09,874.677
3908.54,861.13
3909.99,876.179
3911.44,876.104
3912.89,889.827
3914.34,885.38
3915.8,869.055
3917.25,893.564
3918.7,912.651
3920.15,927.416
3921.6,893.38
3923.06,917.155
3924.51,928.209
3925.96,914.394
3927.41,903.583
3928.86,920.425
3930.31,910.649
3931.77,920.926
3933.22,918.348
3934.67,918.832
3936.12,908.997
3937.57,922.878
3939.02,911.892
3940.48,930.019
3941.93,942.624
3943.38,943.675
3944.83,952.976
3946.28,944.651
3947.74,951.642
3949.19,957.915
3950.64,968.326
3952.09,976.618
3953.54,988.622
3954.99,954.703
3956.45,980.313
3957.9,966.516
3959.35,985.527
3960.8,970.52
3962.25,987.596
3963.71,999.375
3965.16,979.246
3966.61,978.428
3968.06,995.621
3969.51,980.263
3970.96,1030.15
3972.42,998.324
3973.87,1001.5
3975.32,1019.54
3976.77,1017.4
3978.22,1022.72
3979.68,1019.96
3981.13,986.07
3982.58,1019.16
3984.03,1014.21
3985.48,1038.69
3986.93,1010.83
3988.39,1019.42
3989.84,1049.57
3991.29,1047.81
3992.74,1078.39
3994.19,1048.62
3995.64,1051.11
3997.1,1066.45
3998.55,1041.38
4000,1047.73
