-20,56.3517
-18.5482,61.098
-17.0964,62.6366
-15.6446,68.6041
-14.1928,67.6879
-12.7411,72.3689
-11.2893,79.385
-9.83749,79.3176
-8.3857,88.3465
-6.93391,100.748
-5.48212,341.585
-4.03034,99.507
-2.57855,104.103
-1.12676,150.47
0.325027,386.956
1.77681,733.074
3.2286,758.99
4.68039,486.805
6.13218,154.37
7.58397,277.927
9.03575,84.7693
10.4875,73.2428
11.9393,64.57
13.3911,61.5799
14.8429,58.5148
16.2947,55.4593
17.7465,51.3345
19.1983,56.3445
20.6501,52.0787
22.1018,44.7731
23.5536,45.4812
25.0054,43.7367
26.4572,45.977
27.909,43.7245
29.3608,38.409
30.8126,38.5684
32.2644,44.44
33.7161,43.5023
35.1679,40.69
36.6197,39.182
38.0715,42.6195
39.5233,42.8912
40.9751,44.2437
42.4269,44.861
43.8787,43.28
45.3304,59.3622
46.7822,64.9601
48.234,92.6051
49.6858,149.248
51.1376,229.025
52.5894,427.941
54.0412,675.707
55.493,976.925
56.9447,1334.91
58.3965,1735.73
59.8483,2078.31
61.3001,2328.63
62.7519,2538.61
64.2037,2759.08
65.6555,2826.63
67.1073,2914.39
68.559,2980.66
70.0108,3007.03
71.4626,3029.18
72.9144,3080.35
74.3662,3147.3
75.818,3206.63
77.2698,3277.53
78.7216,3417.19
80.1733,3501.93
81.6251,3578.2
83.0769,3632.6
84.5287,3733.42
85.9805,3810.74
87.4323,3797.38
88.8841,3684.98
90.3359,3489.62
91.7877,3303.29
93.2394,3142.43
94.6912,2949.68
96.143,2810.29
97.5948,2681.28
99.0466,2515.39
100.498,2432.13
101.95,2375.71
103.402,2325.88
104.854,2288.96
106.306,2222.54
107.757,2153.84
109.209,2123.23
110.661,2111.71
112.113,2087.2
113.564,2050.12
115.016,2029.6
116.468,2026.31
117.92,2008.96
119.372,1983.63
120.823,1900.97
122.275,1888.44
123.727,1859.89
125.179,1828.95
126.631,1795.91
128.082,1784.94
129.534,1723.79
130.986,1661.94
132.438,1609.93
133.889,1579.93
135.341,1579.04
136.793,1526.51
138.245,1480.71
139.697,1463
141.148,1492.97
142.6,1427.45
144.052,1403.13
145.504,1384.24
146.956,1354.12
148.407,1356.38
149.859,1336.53
151.311,1317.46
152.763,1298.02
154.215,1275.78
155.666,1297.21
157.118,1285.08
158.57,1269.42
160.022,1250.74
161.473,1231.9
162.925,1217.6
164.377,1205.85
165.829,1186.06
167.281,1195.75
168.732,1218.33
170.184,1200.95
171.636,1174.66
173.088,1157.51
174.54,1155.23
175.991,1151.47
177.443,1162.86
178.895,1173.09
180.347,1164.28
181.798,1135.3
183.25,1111.03
184.702,1099.99
186.154,1121.15
187.606,1117.81
189.057,1097.55
190.509,1088.87
191.961,1044.89
193.413,1072.9
194.865,1085.09
196.316,1080.67
197.768,1067.03
199.22,1059.58
200.672,1074.37
202.124,1079.37
203.575,1069.68
205.027,1041.72
206.479,1033.27
207.931,1045.25
209.382,1039.28
210.834,1039.08
212.286,1048.05
213.738,1056.38
215.19,1040.32
216.641,1042.8
218.093,1057.06
219.545,1066.99
220.997,1043.43
222.449,1040.73
223.9,1059.55
225.352,1059.69
226.804,1032.19
228.256,1038.47
229.707,1046.63
231.159,1058.13
232.611,1046.45
234.063,1035.07
235.515,1053.32
236.966,1033.96
238.418,1030.1
239.87,1039.65
241.322,1040.89
242.774,1026.63
244.225,1023.45
245.677,1021.31
247.129,1002.41
248.581,985.712
250.033,1003.61
251.484,1002.39
252.936,994.987
254.388,998.436
255.84,1013.29
257.291,1009.6
258.743,997.803
260.195,987.128
261.647,980.614
263.099,963.623
264.55,948.592
266.002,965.997
267.454,975.226
268.906,975.604
270.358,966.906
271.809,952.391
273.261,981.057
274.713,947.027
276.165,945.242
277.616,943.114
279.068,936.91
280.52,920.532
281.972,909.158
283.424,897.929
284.875,887.629
286.327,887.179
287.779,894.016
289.231,905.372
290.683,899.515
292.134,885.226
293.586,874.05
295.038,880.532
296.49,903.571
297.941,859.519
299.393,845.803
300.845,845.063
302.297,820.745
303.749,829.424
305.2,845.179
306.652,822.43
308.104,803.458
309.556,811.026
311.008,810.762
312.459,794.763
313.911,761.943
315.363,765.765
316.815,795.051
318.267,782.668
319.718,758.663
321.17,769.152
322.622,780.57
324.074,777.713
325.525,771.841
326.977,756.69
328.429,753.427
329.881,774.992
331.333,791.954
332.784,785.818
334.236,775.714
335.688,754.824
337.14,750.271
338.592,754.071
340.043,752.344
341.495,722.833
342.947,738.752
344.399,752.352
345.85,748.486
347.302,741.913
348.754,760.494
350.206,733.447
351.658,741.205
353.109,735.399
354.561,723.084
356.013,723.378
357.465,736.474
358.917,734.547
360.368,708.586
361.82,702.416
363.272,720.847
364.724,697.587
366.176,698.445
367.627,699.641
369.079,700.675
370.531,703.261
371.983,710.363
373.434,713.26
374.886,697.609
376.338,705.87
377.79,718.719
379.242,717.07
380.693,705.474
382.145,703.565
383.597,710.747
385.049,693.95
386.501,676.778
387.952,699.902
389.404,672.612
390.856,681.115
392.308,691.43
393.759,692.801
395.211,681.929
396.663,686.039
398.115,701.393
399.567,691.051
401.018,683.653
402.47,688.013
403.922,701.873
405.374,683.671
406.826,687.595
408.277,682.964
409.729,677.517
411.181,693.61
412.633,712.645
414.085,717.728
415.536,694.93
416.988,677.492
418.44,685.132
419.892,697.724
421.343,674.686
422.795,677.216
424.247,694.286
425.699,691.035
427.151,661.346
428.602,672.299
430.054,671.796
431.506,670.597
432.958,686.671
434.41,690.769
435.861,668.571
437.313,666.445
438.765,688.688
440.217,683.043
441.668,671.89
443.12,672.94
444.572,673.952
446.024,667.628
447.476,678.886
448.927,681.928
450.379,670.907
451.831,657.589
453.283,671.462
454.735,674.528
456.186,662.955
457.638,666.578
459.09,675.085
460.542,655.058
461.993,683.125
463.445,675.214
464.897,667.345
466.349,674.223
467.801,683.163
469.252,666.29
470.704,674.234
472.156,674.643
473.608,665.039
475.06,667.582
476.511,680.179
477.963,672.646
479.415,671.917
480.867,654.555
482.319,651.048
483.77,660.517
485.222,654.719
486.674,638.833
488.126,664.814
489.577,677.912
491.029,666.029
492.481,658.309
493.933,665.051
495.385,676.472
496.836,667.675
498.288,639.847
499.74,628.463
501.192,644.304
502.644,665.637
504.095,646.546
505.547,633.492
506.999,625.551
508.451,626.224
509.902,651.882
511.354,645.518
512.806,651.933
514.258,651.828
515.71,643.765
517.161,638.937
518.613,651.628
520.065,668.901
521.517,624.726
522.969,628.44
524.42,650.333
525.872,654.286
527.324,639.714
528.776,646.564
530.228,625.604
531.679,623.711
533.131,637.678
534.583,648.472
536.035,634.521
537.486,647.676
538.938,654.099
540.39,642.893
541.842,634.533
543.294,632.393
544.745,626.95
546.197,642.054
547.649,645.969
549.101,642.53
550.553,648.3
552.004,652.318
553.456,628.433
554.908,638.287
556.36,636.414
557.811,627.358
559.263,620.064
560.715,622.413
562.167,633.492
563.619,626.081
565.07,631.222
566.522,631.513
567.974,634.489
569.426,625.009
570.878,604.662
572.329,628.909
573.781,597.946
575.233,606.346
576.685,617.093
578.137,616.635
579.588,618.283
581.04,615.498
582.492,623.78
583.944,631.797
585.395,614.009
586.847,597.806
588.299,620.224
589.751,597.485
591.203,610
592.654,621.661
594.106,615.479
595.558,600.337
597.01,591.089
598.462,601.326
599.913,591.181
601.365,600.326
602.817,598.567
604.269,607.814
605.72,620.77
607.172,618.95
608.624,634.777
610.076,640.661
611.528,636.483
612.979,626.615
614.431,610.504
615.883,619.343
617.335,601.481
618.787,623.547
620.238,627.116
621.69,615.227
623.142,614.55
624.594,622.29
626.046,601.954
627.497,597.426
628.949,616.855
630.401,623.193
631.853,616.337
633.304,608.7
634.756,606.445
636.208,618.841
637.66,618.423
639.112,627.354
640.563,640.529
642.015,650.18
643.467,627.882
644.919,634.961
646.371,625.701
647.822,619.121
649.274,622.045
650.726,616.77
652.178,608.024
653.629,649.533
655.081,647.998
656.533,657.646
657.985,646.174
659.437,622.307
660.888,637.392
662.34,643.589
663.792,642.575
665.244,645.391
666.696,642.622
668.147,635.288
669.599,620.184
671.051,611.404
672.503,626.713
673.954,633.814
675.406,646.997
676.858,652.083
678.31,641.164
679.762,660.587
681.213,642.058
682.665,643.063
684.117,662.501
685.569,660.141
687.021,644.676
688.472,635.954
689.924,642.565
691.376,628.322
692.828,658.394
694.28,669.052
695.731,646.813
697.183,616.975
698.635,610.363
700.087,639.911
701.538,646.769
702.99,642.07
704.442,644.523
705.894,644.562
707.346,668.342
708.797,658.505
710.249,637.142
711.701,644.294
713.153,649.473
714.605,656.444
716.056,657.583
717.508,659.477
718.96,647.555
720.412,648.07
721.863,656.241
723.315,659.824
724.767,651.903
726.219,630.169
727.671,663.96
729.122,667.209
730.574,673.926
732.026,671.313
733.478,656.792
734.93,649.115
736.381,642.462
737.833,644.126
739.285,657.725
740.737,639.364
742.189,633.437
743.64,638.346
745.092,643.853
746.544,636.327
747.996,654.841
749.447,651.802
750.899,654.314
752.351,663.683
753.803,670.229
755.255,661.176
756.706,655.053
758.158,672.713
759.61,652.736
761.062,646.954
762.514,655.259
763.965,647.822
765.417,644.813
766.869,652.51
768.321,673.495
769.772,646.356
771.224,648.049
772.676,657.128
774.128,647.95
775.58,628.482
777.031,668.96
778.483,656.102
779.935,628.458
781.387,640.37
782.839,658.254
784.29,672.325
785.742,658.997
787.194,657.594
788.646,644.332
790.098,651.148
791.549,658.044
793.001,657.938
794.453,664.994
795.905,665.652
797.356,675.07
798.808,644.005
800.26,647.291
801.712,677.933
803.164,695.212
804.615,675.374
806.067,667.455
807.519,639.044
808.971,657.888
810.423,666.442
811.874,662.171
813.326,676.079
814.778,690.073
816.23,655.332
817.681,678.209
819.133,688.971
820.585,696.062
822.037,677.783
823.489,662.339
824.94,694.517
826.392,664.084
827.844,655.832
829.296,667.32
830.748,685.565
832.199,683.168
833.651,665.605
835.103,682.789
836.555,704.555
838.007,691.234
839.458,701.435
840.91,707.873
842.362,716.952
843.814,726.858
845.265,703.291
846.717,677.654
848.169,668.224
849.621,691.589
851.073,688.067
852.524,700.661
853.976,726.564
855.428,750.743
856.88,728.349
858.332,679.913
859.783,705.235
861.235,702.038
862.687,711.106
864.139,707.261
865.59,702.43
867.042,686.951
868.494,699.147
869.946,712.886
871.398,686.546
872.849,705.804
874.301,701.374
875.753,671.58
877.205,701.4
878.657,695.419
880.108,680.821
881.56,683.905
883.012,687.864
884.464,684.016
885.915,691.755
887.367,710.106
888.819,716.806
890.271,711.456
891.723,709.366
893.174,700.229
894.626,711.398
896.078,729.69
897.53,712.286
898.982,701.973
900.433,704.419
901.885,704.558
903.337,697.612
904.789,693.873
906.241,708.408
907.692,745.721
909.144,732.029
910.596,723.213
912.048,745.511
913.499,728.678
914.951,746.362
916.403,755.363
917.855,754.046
919.307,740.866
920.758,710.425
922.21,749.594
923.662,739.206
925.114,733.381
926.566,732.932
928.017,735.644
929.469,739.772
930.921,765.812
932.373,719.082
933.824,762.445
935.276,746.956
936.728,748.921
938.18,747.052
939.632,738.9
941.083,736.396
942.535,736.919
943.987,734.59
945.439,749.995
946.891,740.377
948.342,753.774
949.794,753.807
951.246,745.032
952.698,756.332
954.15,759.773
955.601,767.962
957.053,774.703
958.505,769.447
959.957,752.115
961.408,740.321
962.86,747.968
964.312,745.769
965.764,760.111
967.216,720.132
968.667,735.288
970.119,745.496
971.571,743.059
973.023,747.746
974.475,746.823
975.926,742.817
977.378,787.09
978.83,786.054
980.282,785.057
981.733,779.437
983.185,774.896
984.637,760.99
986.089,736.001
987.541,740.702
988.992,784.961
990.444,817.564
991.896,805.177
993.348,788.827
994.8,787.31
996.251,808.787
997.703,818.382
999.155,780.595
1000.61,791.112
1002.06,813.622
1003.51,793.244
1004.96,813.905
1006.41,828.462
1007.87,816.37
1009.32,808.411
1010.77,816.114
1012.22,835.59
1013.67,841.543
1015.12,845.183
1016.58,860.394
1018.03,849.837
1019.48,846.478
1020.93,860.661
1022.38,855.17
1023.84,841.858
1025.29,881.958
1026.74,888.616
1028.19,886.969
1029.64,886.565
1031.09,883.394
1032.55,859.743
1034,888.684
1035.45,928.139
1036.9,955.481
1038.35,951.296
1039.8,954.771
1041.26,956.21
1042.71,960.157
1044.16,950.556
1045.61,979.362
1047.06,974.09
1048.52,970.339
1049.97,979.148
1051.42,1027.49
1052.87,1021.13
1054.32,1006.46
1055.77,1018.58
1057.23,1047.87
1058.68,1035.69
1060.13,1034.33
1061.58,1056.34
1063.03,1055.35
1064.49,1078.11
1065.94,1104.25
1067.39,1098.1
1068.84,1089.3
1070.29,1112.21
1071.74,1117.61
1073.2,1147.59
1074.65,1174.89
1076.1,1170.47
1077.55,1166.36
1079,1165.11
1080.46,1151.62
1081.91,1180.62
1083.36,1199.87
1084.81,1182.66
1086.26,1167.37
1087.71,1167.83
1089.17,1186.1
1090.62,1197.35
1092.07,1176.73
1093.52,1168.96
1094.97,1194.64
1096.42,1191.52
1097.88,1172.68
1099.33,1187.75
1100.78,1173.29
1102.23,1156.31
1103.68,1142.56
1105.14,1132.36
1106.59,1138.94
1108.04,1123
1109.49,1103.57
1110.94,1123.03
1112.39,1093.06
1113.85,1119.77
1115.3,1117.34
1116.75,1096.29
1118.2,1092.65
1119.65,1099.63
1121.11,1092.37
1122.56,1072.78
1124.01,1073.57
1125.46,1076.25
1126.91,1061.88
1128.36,1065.69
1129.82,1088.29
1131.27,1083.45
1132.72,1062.8
1134.17,1047.26
1135.62,1051.48
1137.07,1056.33
1138.53,1038.78
1139.98,1033.75
1141.43,1056.11
1142.88,1037.61
1144.33,1029.33
1145.79,1035.94
1147.24,1008.12
1148.69,1028.42
1150.14,1028.06
1151.59,975.568
1153.04,980.52
1154.5,1009.96
1155.95,1015.97
1157.4,1013.83
1158.85,1017.27
1160.3,1000.1
1161.76,983.218
1163.21,1002.22
1164.66,1046.24
1166.11,1025.48
1167.56,1046.63
1169.01,1030.88
1170.47,1003.87
1171.92,1021.52
1173.37,1026.35
1174.82,1017.28
1176.27,1049.38
1177.72,1047.44
1179.18,1026.68
1180.63,1036.05
1182.08,1039.42
1183.53,1037.13
1184.98,1037.27
1186.44,1037.47
1187.89,1025.22
1189.34,1030.11
1190.79,1037.65
1192.24,1039.37
1193.69,1055.06
1195.15,1041.14
1196.6,1045.07
1198.05,1059.86
1199.5,1046.13
1200.95,1032.8
1202.41,1065.58
1203.86,1023.57
1205.31,1048.09
1206.76,1049.17
1208.21,1068.51
1209.66,1077.84
1211.12,1091.05
1212.57,1091.75
1214.02,1082.02
1215.47,1076.12
1216.92,1075.31
1218.37,1058.09
1219.83,1072.93
1221.28,1085.57
1222.73,1079.16
1224.18,1083.32
1225.63,1077.07
1227.09,1067.87
1228.54,1079.89
1229.99,1094.19
1231.44,1086.05
1232.89,1062.74
1234.34,1050.18
1235.8,1075.62
1237.25,1086.63
1238.7,1098.75
1240.15,1084.2
1241.6,1091.12
1243.06,1124.03
1244.51,1111.3
1245.96,1105.45
1247.41,1096.18
1248.86,1119.68
1250.31,1154.29
1251.77,1157.72
1253.22,1138.34
1254.67,1142.86
1256.12,1157.05
1257.57,1162.25
1259.02,1172.72
1260.48,1196.94
1261.93,1230.23
1263.38,1188.37
1264.83,1230.16
1266.28,1221.34
1267.74,1234.58
1269.19,1248.12
1270.64,1262.17
1272.09,1271.59
1273.54,1261.58
1274.99,1279.59
1276.45,1294.01
1277.9,1339.17
1279.35,1346.49
1280.8,1351.48
1282.25,1406.04
1283.71,1420.79
1285.16,1418.78
1286.61,1470.93
1288.06,1537.71
1289.51,1533.56
1290.96,1560.6
1292.42,1586.44
1293.87,1638.98
1295.32,1620.46
1296.77,1684.11
1298.22,1723.89
1299.67,1775.02
1301.13,1823.19
1302.58,1889.76
1304.03,1942.78
1305.48,1977.35
1306.93,2061.96
1308.39,2113.9
1309.84,2200.36
1311.29,2281.82
1312.74,2404.37
1314.19,2489.58
1315.64,2590.22
1317.1,2697.48
1318.55,2782.33
1320,2889.25
1321.45,3032.85
1322.9,3122.09
1324.36,3153.24
1325.81,3322.35
1327.26,3427
1328.71,3475.84
1330.16,3568.11
1331.61,3600.07
1333.07,3645.88
1334.52,3707.58
1335.97,3657.36
1337.42,3609.95
1338.87,3568.92
1340.33,3484.09
1341.78,3376.9
1343.23,3347.03
1344.68,3283.33
1346.13,3168.12
1347.58,3065.92
1349.04,2970.76
1350.49,2839.94
1351.94,2696.08
1353.39,2609.25
1354.84,2584.05
1356.29,2480.55
1357.75,2342.32
1359.2,2292.47
1360.65,2225.98
1362.1,2149.53
1363.55,2074.15
1365.01,1999.8
1366.46,1930.39
1367.91,1878.58
1369.36,1838.99
1370.81,1771.7
1372.26,1760.13
1373.72,1770.83
1375.17,1721.72
1376.62,1703.34
1378.07,1689.69
1379.52,1665.84
1380.98,1607.27
1382.43,1576.72
1383.88,1569.54
1385.33,1559.75
1386.78,1546
1388.23,1547.31
1389.69,1497.3
1391.14,1493.68
1392.59,1494
1394.04,1498.29
1395.49,1498.42
1396.94,1511.42
1398.4,1498.54
1399.85,1507.63
1401.3,1518.03
1402.75,1498.13
1404.2,1500.48
1405.66,1482.04
1407.11,1494.02
1408.56,1511.52
1410.01,1489.92
1411.46,1490.08
1412.91,1499.68
1414.37,1511.35
1415.82,1492.97
1417.27,1509.75
1418.72,1520.72
1420.17,1489.5
1421.63,1503.72
1423.08,1535.93
1424.53,1523.84
1425.98,1539.01
1427.43,1559.39
1428.88,1560.16
1430.34,1575.6
1431.79,1596.75
1433.24,1593.68
1434.69,1585.11
1436.14,1607.99
1437.59,1641.57
1439.05,1627.84
1440.5,1636.94
1441.95,1657
1443.4,1669.78
1444.85,1660.13
1446.31,1696.55
1447.76,1663.64
1449.21,1733.19
1450.66,1751.7
1452.11,1753.67
1453.56,1784.95
1455.02,1823.16
1456.47,1813.64
1457.92,1785.52
1459.37,1821.63
1460.82,1848.5
1462.28,1922.6
1463.73,1895.76
1465.18,1979.61
1466.63,1960.01
1468.08,1949.92
1469.53,2008.24
1470.99,2030.15
1472.44,2060.38
1473.89,2093.9
1475.34,2113.82
1476.79,2155.81
1478.24,2184.65
1479.7,2195.97
1481.15,2236.97
1482.6,2266.33
1484.05,2334.05
1485.5,2387.67
1486.96,2426.64
1488.41,2453.65
1489.86,2518.56
1491.31,2567.63
1492.76,2591.75
1494.21,2658.13
1495.67,2731.84
1497.12,2805.9
1498.57,2891.94
1500.02,2968.78
1501.47,3069.65
1502.93,3111.42
1504.38,3220.8
1505.83,3293.48
1507.28,3446.14
1508.73,3549.38
1510.18,3699.67
1511.64,3815.52
1513.09,3950.64
1514.54,4092.71
1515.99,4280.32
1517.44,4512.36
1518.89,4688.99
1520.35,4910.37
1521.8,5144.52
1523.25,5466.41
1524.7,5825.84
1526.15,6211.03
1527.61,6532.87
1529.06,7024.15
1530.51,7572.85
1531.96,8204.21
1533.41,8858.81
1534.86,9609.84
1536.32,10466.6
1537.77,11345.3
1539.22,12402
1540.67,13548
1542.12,14769
1543.58,16232
1545.03,17618.1
1546.48,19225.6
1547.93,20984.2
1549.38,22681.1
1550.83,24461.7
1552.29,26421.1
1553.74,28195.9
1555.19,29966.2
1556.64,31719
1558.09,33318.7
1559.54,34602.1
1561,35560.6
1562.45,36340.1
1563.9,36554.2
1565.35,36655.2
1566.8,36015.1
1568.26,34890.8
1569.71,33781.7
1571.16,32278
1572.61,30313.4
1574.06,28308
1575.51,26192
1576.97,24120.8
1578.42,22151
1579.87,20212.9
1581.32,18473.5
1582.77,16810.7
1584.23,15316
1585.68,14011.5
1587.13,12784.6
1588.58,11690.5
1590.03,10920.4
1591.48,10107.3
1592.94,9349.83
1594.39,8765.12
1595.84,8236.24
1597.29,7795.48
1598.74,7419.85
1600.2,7078.67
1601.65,6711.73
1603.1,6388.2
1604.55,6098.22
1606,5811.44
1607.45,5555.07
1608.91,5296.2
1610.36,5018.32
1611.81,4738.66
1613.26,4526.95
1614.71,4224.73
1616.16,4075.51
1617.62,3927.25
1619.07,3770.59
1620.52,3624.72
1621.97,3477.8
1623.42,3333.81
1624.88,3198.21
1626.33,3120.76
1627.78,3032.97
1629.23,2929.37
1630.68,2848.16
1632.13,2741.03
1633.59,2678.07
1635.04,2610.79
1636.49,2564.93
1637.94,2521.93
1639.39,2422.43
1640.85,2414.47
1642.3,2371.57
1643.75,2356.22
1645.2,2271.95
1646.65,2230.8
1648.1,2187.18
1649.56,2129.5
1651.01,2073.14
1652.46,2048.1
1653.91,2050.99
1655.36,2015.39
1656.81,1989.17
1658.27,1979.76
1659.72,1952.5
1661.17,1903.13
1662.62,1825.69
1664.07,1829.41
1665.53,1791.63
1666.98,1753.04
1668.43,1764.45
1669.88,1742.93
1671.33,1683.59
1672.78,1685.14
1674.24,1707
1675.69,1652.36
1677.14,1621.5
1678.59,1621.81
1680.04,1614.67
1681.5,1581.04
1682.95,1568.1
1684.4,1590.19
1685.85,1556.02
1687.3,1566.41
1688.75,1553.63
1690.21,1539.54
1691.66,1567.46
1693.11,1528.34
1694.56,1505.79
1696.01,1509.52
1697.46,1467.24
1698.92,1463.48
1700.37,1412.24
1701.82,1399.73
1703.27,1421
1704.72,1453.65
1706.18,1438.06
1707.63,1407.85
1709.08,1406.33
1710.53,1428.08
1711.98,1395.29
1713.43,1369.22
1714.89,1375.83
1716.34,1371.89
1717.79,1364.74
1719.24,1384.61
1720.69,1397.75
1722.15,1351.48
1723.6,1386.56
1725.05,1352.26
1726.5,1345.81
1727.95,1393.45
1729.4,1368.78
1730.86,1357.68
1732.31,1338.86
1733.76,1298.04
1735.21,1311.96
1736.66,1315.7
1738.11,1315.77
1739.57,1336.83
1741.02,1316.11
1742.47,1305.4
1743.92,1320.37
1745.37,1323.85
1746.83,1315.1
1748.28,1332.96
1749.73,1305.88
1751.18,1279.94
1752.63,1298.06
1754.08,1242.78
1755.54,1275.86
1756.99,1283.95
1758.44,1285.94
1759.89,1268.44
1761.34,1250.78
1762.8,1257.76
1764.25,1262.1
1765.7,1249.6
1767.15,1237.56
1768.6,1233.11
1770.05,1222.74
1771.51,1215.67
1772.96,1229.75
1774.41,1223.82
1775.86,1233.1
1777.31,1230.68
1778.76,1191.97
1780.22,1207.32
1781.67,1186.17
1783.12,1194.05
1784.57,1205.67
1786.02,1187.09
1787.48,1162.02
1788.93,1156.97
1790.38,1182.93
1791.83,1192.69
1793.28,1188.59
1794.73,1181.72
1796.19,1167.77
1797.64,1188.01
1799.09,1137.68
1800.54,1151.65
1801.99,1163.33
1803.45,1160.4
1804.9,1165.29
1806.35,1143.74
1807.8,1166.88
1809.25,1163.29
1810.7,1138.79
1812.16,1141.5
1813.61,1151.59
1815.06,1133.58
1816.51,1125.55
1817.96,1145.86
1819.41,1177.23
1820.87,1179.98
1822.32,1178.27
1823.77,1151.11
1825.22,1137.23
1826.67,1158.49
1828.13,1127.4
1829.58,1133.95
1831.03,1160.92
1832.48,1173.71
1833.93,1163.93
1835.38,1160.09
1836.84,1186.03
1838.29,1175.75
1839.74,1209.28
1841.19,1188.92
1842.64,1206.04
1844.1,1199.45
1845.55,1193.51
1847,1208.26
1848.45,1247.15
1849.9,1245.38
1851.35,1232.47
1852.81,1246.84
1854.26,1251.09
1855.71,1235.21
1857.16,1244.34
1858.61,1260.43
1860.07,1244.54
1861.52,1246.42
1862.97,1261.39
1864.42,1241.94
1865.87,1226.81
1867.32,1227.74
1868.78,1260.58
1870.23,1279.37
1871.68,1202.44
1873.13,1196.86
1874.58,1249.44
1876.03,1260.74
1877.49,1240.45
1878.94,1180.11
1880.39,1199.09
1881.84,1185.71
1883.29,1204.23
1884.75,1180.01
1886.2,1172.3
1887.65,1170.78
1889.1,1161.46
1890.55,1143.16
1892,1178.13
1893.46,1139.18
1894.91,1129.89
1896.36,1116.89
1897.81,1119.47
1899.26,1116.71
1900.72,1111.49
1902.17,1106.2
1903.62,1117.47
1905.07,1122.22
1906.52,1108.84
1907.97,1090.01
1909.43,1084.78
1910.88,1087.66
1912.33,1075.03
1913.78,1073.33
1915.23,1074.36
1916.68,1086.28
1918.14,1074.1
1919.59,1047.89
1921.04,1055.67
1922.49,1068.92
1923.94,1049.31
1925.4,1019.47
1926.85,1070.5
1928.3,1065.87
1929.75,1052.38
1931.2,1049.52
1932.65,1059.12
1934.11,1043.32
1935.56,1048.96
1937.01,1050.05
1938.46,1081.06
1939.91,1036.1
1941.37,1060.91
1942.82,1080.4
1944.27,1076.52
1945.72,1068.47
1947.17,1066.1
1948.62,1059.93
1950.08,1057.48
1951.53,1091.99
1952.98,1056.44
1954.43,1049.65
1955.88,1046.53
1957.33,1070.76
1958.79,1089.09
1960.24,1072.39
1961.69,1067.69
1963.14,1092.75
1964.59,1106.26
1966.05,1096.91
1967.5,1100.7
1968.95,1093.67
1970.4,1092.2
1971.85,1105.3
1973.3,1119.66
1974.76,1127.99
1976.21,1125.68
1977.66,1101.69
1979.11,1106.46
1980.56,1114.07
1982.02,1114.15
1983.47,1127.58
1984.92,1140.9
1986.37,1143.84
1987.82,1125.67
1989.27,1131.97
1990.73,1133.46
1992.18,1117.12
1993.63,1135.78
1995.08,1154.08
1996.53,1143
1997.98,1120.65
1999.44,1149.22
2000.89,1164.93
2002.34,1175.86
2003.79,1139.46
2005.24,1160.97
2006.7,1172.12
2008.15,1145.79
2009.6,1148.14
2011.05,1148.04
2012.5,1106.28
2013.95,1115.89
2015.41,1131.38
2016.86,1129.48
2018.31,1118.67
2019.76,1120.2
2021.21,1105.61
2022.67,1105.89
2024.12,1140.52
2025.57,1115.96
2027.02,1108.93
2028.47,1072.17
2029.92,1095.16
2031.38,1100.76
2032.83,1093.62
2034.28,1086.14
2035.73,1040.97
2037.18,1071.55
2038.63,1066.31
2040.09,1068.32
2041.54,1086.77
2042.99,1077.63
2044.44,1046.66
2045.89,1035.72
2047.35,1033.23
2048.8,1035.51
2050.25,1025.87
2051.7,1016.35
2053.15,1003
2054.6,983.151
2056.06,1018.9
2057.51,1007.73
2058.96,1002.19
2060.41,1027.05
2061.86,1025.66
2063.32,1012.13
2064.77,999.711
2066.22,1008.71
2067.67,984.172
2069.12,984.599
2070.57,981.366
2072.03,978.764
2073.48,994.166
2074.93,998.861
2076.38,981.199
2077.83,994.051
2079.28,991.933
2080.74,990.562
2082.19,1006.8
2083.64,974.472
2085.09,969.692
2086.54,988.241
2088,974.585
2089.45,973.456
2090.9,970.374
2092.35,982.896
2093.8,1010.17
2095.25,1004.44
2096.71,965.728
2098.16,958.467
2099.61,971.837
2101.06,975.764
2102.51,996.573
2103.97,971.712
2105.42,960.785
2106.87,971.173
2108.32,971.531
2109.77,970.113
2111.22,976.028
2112.68,981.125
2114.13,988.809
2115.58,963.775
2117.03,974.778
2118.48,970.41
2119.94,998.891
2121.39,994.735
2122.84,1001.06
2124.29,1005.56
2125.74,993.655
2127.19,980.716
2128.65,973.241
2130.1,983.659
2131.55,1003
2133,969.984
2134.45,963.217
2135.9,1000.12
2137.36,1022.99
2138.81,1009.29
2140.26,1006.27
2141.71,1028.9
2143.16,1011.03
2144.62,997.939
2146.07,1018.83
2147.52,993.658
2148.97,970.499
2150.42,1008.22
2151.87,1012.82
2153.33,1010.06
2154.78,1029.46
2156.23,1025.2
2157.68,1024.65
2159.13,1028.09
2160.58,1044.5
2162.04,1045.14
2163.49,1050.56
2164.94,1041.73
2166.39,1029.77
2167.84,1048.27
2169.3,1049.15
2170.75,1048.01
2172.2,1021.88
2173.65,1053.5
2175.1,1052.13
2176.55,1083.66
2178.01,1052.97
2179.46,1040.31
2180.91,1035.03
2182.36,1062.17
2183.81,1091.92
2185.27,1072.09
2186.72,1095.13
2188.17,1059.2
2189.62,1083.63
2191.07,1090.87
2192.52,1057.52
2193.98,1096.04
2195.43,1100.13
2196.88,1087.26
2198.33,1099.96
2199.78,1093.82
2201.24,1065.7
2202.69,1089.04
2204.14,1128.36
2205.59,1103.78
2207.04,1074.99
2208.49,1065.74
2209.95,1092.84
2211.4,1096.38
2212.85,1069.48
2214.3,1120
2215.75,1086.79
2217.2,1105.53
2218.66,1068.6
2220.11,1103.57
2221.56,1121.93
2223.01,1076.03
2224.46,1087.78
2225.92,1098.81
2227.37,1076.46
2228.82,1116.47
2230.27,1111.47
2231.72,1066.74
2233.17,1116.96
2234.63,1096.83
2236.08,1109.67
2237.53,1117.02
2238.98,1103.84
2240.43,1120.23
2241.89,1119.01
2243.34,1123.27
2244.79,1117.92
2246.24,1132.32
2247.69,1149.85
2249.14,1158.71
2250.6,1139.08
2252.05,1121.56
2253.5,1154.06
2254.95,1165.41
2256.4,1153.47
2257.85,1170.7
2259.31,1179.62
2260.76,1165.17
2262.21,1144.85
2263.66,1140.67
2265.11,1178.83
2266.57,1170.11
2268.02,1191.48
2269.47,1208.87
2270.92,1187
2272.37,1180.04
2273.82,1203.21
2275.28,1206.68
2276.73,1184.81
2278.18,1209.17
2279.63,1190.54
2281.08,1202.83
2282.54,1218.37
2283.99,1198.32
2285.44,1229.56
2286.89,1226.79
2288.34,1203.46
2289.79,1207.1
2291.25,1245.16
2292.7,1210.74
2294.15,1241.7
2295.6,1253.39
2297.05,1212.22
2298.5,1241
2299.96,1237.73
2301.41,1266.56
2302.86,1251.37
2304.31,1258.73
2305.76,1279.24
2307.22,1269.09
2308.67,1253.16
2310.12,1285.94
2311.57,1258.94
2313.02,1310.61
2314.47,1312.75
2315.93,1313.73
2317.38,1326.04
2318.83,1326.61
2320.28,1336.63
2321.73,1321.99
2323.19,1314.71
2324.64,1352.24
2326.09,1334.17
2327.54,1335.64
2328.99,1353.49
2330.44,1348.89
2331.9,1364.61
2333.35,1381.63
2334.8,1405.9
2336.25,1366.92
2337.7,1369.96
2339.16,1405.59
2340.61,1434.52
2342.06,1433.45
2343.51,1455.63
2344.96,1453.54
2346.41,1443.42
2347.87,1435.38
2349.32,1502.8
2350.77,1501.57
2352.22,1497.72
2353.67,1454.52
2355.12,1475.49
2356.58,1475.25
2358.03,1502.61
2359.48,1502.13
2360.93,1585.17
2362.38,1571.17
2363.84,1546.42
2365.29,1569.1
2366.74,1630.43
2368.19,1619.44
2369.64,1619.62
2371.09,1632.86
2372.55,1631.32
2374,1654.33
2375.45,1713.62
2376.9,1727.26
2378.35,1733.03
2379.8,1756.21
2381.26,1787.32
2382.71,1846.46
2384.16,1866.07
2385.61,1901.33
2387.06,1922.03
2388.52,2002.89
2389.97,1961.25
2391.42,1987.05
2392.87,2018.45
2394.32,2055.28
2395.77,2114.32
2397.23,2184.64
2398.68,2221.85
2400.13,2230.31
2401.58,2317.73
2403.03,2328
2404.49,2358.57
2405.94,2452.32
2407.39,2461.21
2408.84,2500.41
2410.29,2510.39
2411.74,2515.82
2413.2,2549.69
2414.65,2608.1
2416.1,2628.3
2417.55,2637.09
2419,2669.63
2420.46,2692.71
2421.91,2725.54
2423.36,2722.25
2424.81,2732.92
2426.26,2771.48
2427.71,2754.35
2429.17,2782.37
2430.62,2763.25
2432.07,2831.31
2433.52,2725.71
2434.97,2747.62
2436.42,2740.13
2437.88,2713.84
2439.33,2725.99
2440.78,2759.95
2442.23,2755.79
2443.68,2699.04
2445.14,2630.9
2446.59,2620.3
2448.04,2594.76
2449.49,2611.44
2450.94,2568.12
2452.39,2571.6
2453.85,2546.01
2455.3,2528.18
2456.75,2496.39
2458.2,2469.26
2459.65,2475.79
2461.1,2480.88
2462.56,2490.18
2464.01,2461.27
2465.46,2449.33
2466.91,2422.33
2468.36,2442.7
2469.82,2454.59
2471.27,2394.12
2472.72,2383.71
2474.17,2376.61
2475.62,2327.28
2477.07,2384.72
2478.53,2336.03
2479.98,2397.59
2481.43,2324.96
2482.88,2353.58
2484.33,2343.11
2485.79,2284.85
2487.24,2337.11
2488.69,2321.78
2490.14,2312.27
2491.59,2338.03
2493.04,2353.94
2494.5,2311.15
2495.95,2339.34
2497.4,2389.9
2498.85,2354.68
2500.3,2369.72
2501.76,2400.47
2503.21,2355.18
2504.66,2409.58
2506.11,2472.18
2507.56,2435.54
2509.01,2424.29
2510.47,2435.09
2511.92,2429.7
2513.37,2484.5
2514.82,2491.02
2516.27,2473.71
2517.72,2444.45
2519.18,2480.03
2520.63,2504.99
2522.08,2534.91
2523.53,2536.6
2524.98,2604.97
2526.44,2624.27
2527.89,2675.34
2529.34,2652.66
2530.79,2728.08
2532.24,2752.49
2533.69,2716.33
2535.15,2773.39
2536.6,2834.36
2538.05,2872.32
2539.5,2902.6
2540.95,2952.25
2542.41,2974.61
2543.86,2972.11
2545.31,3009.26
2546.76,3069.78
2548.21,3123.19
2549.66,3185.53
2551.12,3196.05
2552.57,3248.08
2554.02,3293.43
2555.47,3329.08
2556.92,3457.59
2558.37,3494.61
2559.83,3580.41
2561.28,3634.57
2562.73,3667.21
2564.18,3724.45
2565.63,3807.94
2567.09,3862.19
2568.54,3957.84
2569.99,3986.98
2571.44,4076.96
2572.89,4200.25
2574.34,4348.07
2575.8,4423.7
2577.25,4501.8
2578.7,4654.51
2580.15,4771.01
2581.6,4866.23
2583.06,5043.19
2584.51,5136.97
2585.96,5283.26
2587.41,5350.01
2588.86,5562.07
2590.31,5745.16
2591.77,5907.17
2593.22,6116.67
2594.67,6316
2596.12,6535.48
2597.57,6766.79
2599.02,7021.89
2600.48,7277.56
2601.93,7460.86
2603.38,7745.34
2604.83,8100.63
2606.28,8326.36
2607.74,8717.61
2609.19,9027.51
2610.64,9401.56
2612.09,9799.26
2613.54,10135.5
2614.99,10516.8
2616.45,10905.8
2617.9,11373
2619.35,11846.9
2620.8,12316.8
2622.25,12875.4
2623.71,13419.5
2625.16,14008.8
2626.61,14604.5
2628.06,15106.8
2629.51,15656
2630.96,16191.6
2632.42,16913.9
2633.87,17609.1
2635.32,18051.6
2636.77,18584.1
2638.22,19292.3
2639.68,19935.1
2641.13,20465.3
2642.58,21038
2644.03,21619.3
2645.48,22141.1
2646.93,22513.6
2648.39,22982.9
2649.84,23474.5
2651.29,23617.3
2652.74,24027.8
2654.19,24120.6
2655.64,24317.6
2657.1,24327.3
2658.55,24453.7
2660,24420.9
2661.45,24274.8
2662.9,23989.3
2664.36,23795.6
2665.81,23480
2667.26,23234.8
2668.71,22802.8
2670.16,22312.3
2671.61,21759.7
2673.07,21238.6
2674.52,20638.7
2675.97,20150.3
2677.42,19523.9
2678.87,18975
2680.32,18376.3
2681.78,17706.4
2683.23,17029.4
2684.68,16404.2
2686.13,15797.4
2687.58,15162.9
2689.04,14519.7
2690.49,14005.8
2691.94,13396.1
2693.39,12885.9
2694.84,12292.4
2696.29,11777.5
2697.75,11332.4
2699.2,10871.9
2700.65,10383.9
2702.1,9979.85
2703.55,9478.3
2705.01,9099.56
2706.46,8754.04
2707.91,8292.98
2709.36,8013.07
2710.81,7592.37
2712.26,7416.4
2713.72,7165.14
2715.17,6860.69
2716.62,6604.13
2718.07,6378.24
2719.52,6114.77
2720.98,5939.88
2722.43,5689.7
2723.88,5461.85
2725.33,5281.82
2726.78,5082.54
2728.23,4922.07
2729.69,4792.27
2731.14,4665.87
2732.59,4500.41
2734.04,4399.81
2735.49,4275.26
2736.94,4197.25
2738.4,4077.03
2739.85,4026.36
2741.3,3904.85
2742.75,3785.85
2744.2,3688.53
2745.66,3615
2747.11,3518.63
2748.56,3438.6
2750.01,3338.91
2751.46,3289.03
2752.91,3237.92
2754.37,3170.53
2755.82,3146.46
2757.27,3082.57
2758.72,2988.73
2760.17,2975.42
2761.63,2952.56
2763.08,2823.24
2764.53,2808.61
2765.98,2771.88
2767.43,2697.17
2768.88,2655.43
2770.34,2647.36
2771.79,2632.17
2773.24,2595.75
2774.69,2525.8
2776.14,2525.84
2777.59,2496.58
2779.05,2456.22
2780.5,2367.76
2781.95,2362.5
2783.4,2340.14
2784.85,2375.94
2786.31,2332.57
2787.76,2306.52
2789.21,2294.08
2790.66,2238.27
2792.11,2236.89
2793.56,2211.55
2795.02,2143.16
2796.47,2158.83
2797.92,2174.53
2799.37,2123.65
2800.82,2105.67
2802.28,2094.15
2803.73,2074.84
2805.18,2073.97
2806.63,2040.8
2808.08,2056.34
2809.53,2032.62
2810.99,1980.38
2812.44,1939.1
2813.89,1942.06
2815.34,1956.68
2816.79,1929.67
2818.24,1941.37
2819.7,1937.37
2821.15,1911.49
2822.6,1881.95
2824.05,1884.53
2825.5,1870.8
2826.96,1842.88
2828.41,1868.47
2829.86,1883.3
2831.31,1838.72
2832.76,1828.94
2834.21,1813.97
2835.67,1775.88
2837.12,1759.92
2838.57,1769.71
2840.02,1754.91
2841.47,1800.46
2842.93,1752.43
2844.38,1767.8
2845.83,1740.08
2847.28,1736.18
2848.73,1762.23
2850.18,1768.09
2851.64,1740.89
2853.09,1715.79
2854.54,1737.42
2855.99,1718.93
2857.44,1705.91
2858.9,1727.24
2860.35,1691.83
2861.8,1714
2863.25,1701.58
2864.7,1680.75
2866.15,1708.37
2867.61,1671.96
2869.06,1681.11
2870.51,1685.08
2871.96,1719.59
2873.41,1646.94
2874.86,1654.8
2876.32,1654.07
2877.77,1664.56
2879.22,1653.77
2880.67,1677.38
2882.12,1706.37
2883.58,1694.62
2885.03,1677.49
2886.48,1651.77
2887.93,1658.11
2889.38,1698.08
2890.83,1664.73
2892.29,1695.99
2893.74,1686.66
2895.19,1636.4
2896.64,1627.72
2898.09,1642.3
2899.54,1661.12
2901,1699.75
2902.45,1634.57
2903.9,1666.7
2905.35,1639.31
2906.8,1631.92
2908.26,1614.85
2909.71,1610.71
2911.16,1616.11
2912.61,1590.33
2914.06,1630.48
2915.51,1621.89
2916.97,1582.81
2918.42,1615.03
2919.87,1613.74
2921.32,1565.76
2922.77,1553.57
2924.23,1536.1
2925.68,1526.77
2927.13,1531.64
2928.58,1523.46
2930.03,1509.68
2931.48,1554.77
2932.94,1547.04
2934.39,1521.31
2935.84,1466.02
2937.29,1447.72
2938.74,1415.38
2940.2,1402.32
2941.65,1378.44
2943.1,1428.66
2944.55,1416.48
2946,1406.62
2947.45,1376.86
2948.91,1380.65
2950.36,1356.19
2951.81,1370.64
2953.26,1338.68
2954.71,1309.09
2956.16,1322.22
2957.62,1299.78
2959.07,1263.69
2960.52,1307.68
2961.97,1308.53
2963.42,1270.85
2964.88,1297.28
2966.33,1298.75
2967.78,1285.44
2969.23,1231.3
2970.68,1243.43
2972.13,1248.11
2973.59,1243.35
2975.04,1224.79
2976.49,1210.54
2977.94,1187.43
2979.39,1241.2
2980.84,1262.79
2982.3,1192.48
2983.75,1193.86
2985.2,1180.57
2986.65,1166.62
2988.1,1184.67
2989.56,1146.85
2991.01,1180.04
2992.46,1159.39
2993.91,1155.19
2995.36,1189.47
2996.81,1136.44
2998.27,1145.93
2999.72,1141.98
3001.17,1112.01
3002.62,1111.64
3004.07,1126.66
3005.53,1176.96
3006.98,1161.67
3008.43,1140.95
3009.88,1137.54
3011.33,1143
3012.78,1132.28
3014.24,1138.61
3015.69,1152.8
3017.14,1124.77
3018.59,1156.81
3020.04,1125.44
3021.5,1124.39
3022.95,1144.64
3024.4,1122.5
3025.85,1105.33
3027.3,1139.43
3028.75,1135.79
3030.21,1136.58
3031.66,1162.14
3033.11,1097.88
3034.56,1138.2
3036.01,1131.48
3037.46,1112.04
3038.92,1142.58
3040.37,1104.84
3041.82,1136.94
3043.27,1129.45
3044.72,1146.47
3046.18,1126.6
3047.63,1118.48
3049.08,1113.95
3050.53,1092.87
3051.98,1140.35
3053.43,1119.71
3054.89,1153.66
3056.34,1165.88
3057.79,1125.83
3059.24,1153.71
3060.69,1144.25
3062.15,1107.34
3063.6,1129.84
3065.05,1165.35
3066.5,1147
3067.95,1183.66
3069.4,1163.62
3070.86,1141.37
3072.31,1186.61
3073.76,1200.55
3075.21,1214.08
3076.66,1198.86
3078.11,1177.65
3079.57,1204.28
3081.02,1209.62
3082.47,1192.5
3083.92,1232.35
3085.37,1220.48
3086.83,1274.43
3088.28,1319.99
3089.73,1286.78
3091.18,1307.61
3092.63,1312.9
3094.08,1330.9
3095.54,1343.75
3096.99,1345.89
3098.44,1345.18
3099.89,1398.74
3101.34,1426.28
3102.8,1464.61
3104.25,1448.9
3105.7,1463.67
3107.15,1485.81
3108.6,1519.51
3110.05,1559.39
3111.51,1559.98
3112.96,1558.74
3114.41,1578.42
3115.86,1652.98
3117.31,1656.2
3118.76,1686.01
3120.22,1657.49
3121.67,1727.15
3123.12,1751.2
3124.57,1725.64
3126.02,1735.55
3127.48,1780.05
3128.93,1820.19
3130.38,1805.14
3131.83,1822.34
3133.28,1854.99
3134.73,1892.08
3136.19,1868.24
3137.64,1903.63
3139.09,1894.87
3140.54,1898.49
3141.99,1906.4
3143.45,1919.59
3144.9,1920.61
3146.35,1920.73
3147.8,1913.14
3149.25,1894.92
3150.7,1925.57
3152.16,1909.53
3153.61,1908.26
3155.06,1938.65
3156.51,1938.69
3157.96,1900.5
3159.42,1907.96
3160.87,1985.88
3162.32,1974.67
3163.77,1982.31
3165.22,1971.35
3166.67,1989.47
3168.13,2022.83
3169.58,2002.23
3171.03,2016.04
3172.48,2094.64
3173.93,2031.92
3175.38,2043.24
3176.84,2108.3
3178.29,2158.31
3179.74,2122.68
3181.19,2154.52
3182.64,2221.59
3184.1,2243.58
3185.55,2276.5
3187,2281.83
3188.45,2277.94
3189.9,2332.24
3191.35,2350.28
3192.81,2368.61
3194.26,2392.35
3195.71,2390.92
3197.16,2407.13
3198.61,2385.4
3200.06,2428.3
3201.52,2424.8
3202.97,2391.95
3204.42,2404.65
3205.87,2344.67
3207.32,2332.63
3208.78,2320.54
3210.23,2274.01
3211.68,2238.26
3213.13,2227.69
3214.58,2175.27
3216.03,2106.76
3217.49,2037.4
3218.94,1978.19
3220.39,1970.47
3221.84,1929.1
3223.29,1830.7
3224.75,1795.65
3226.2,1762.1
3227.65,1703.49
3229.1,1615.07
3230.55,1618.93
3232,1579.73
3233.46,1502.74
3234.91,1473.13
3236.36,1431.37
3237.81,1379.42
3239.26,1353.12
3240.72,1324.29
3242.17,1316.71
3243.62,1255.64
3245.07,1222.74
3246.52,1234.57
3247.97,1173.17
3249.43,1159.9
3250.88,1128.87
3252.33,1106.87
3253.78,1111.74
3255.23,1105.92
3256.68,1083.45
3258.14,1084.57
3259.59,1107.34
3261.04,1043.56
3262.49,1016.22
3263.94,1017.75
3265.4,1035.96
3266.85,1058.74
3268.3,1011.08
3269.75,1024.16
3271.2,985.891
3272.65,991.312
3274.11,960.476
3275.56,983.917
3277.01,954.955
3278.46,1006.68
3279.91,1003.73
3281.37,973.214
3282.82,980.832
3284.27,981.466
3285.72,974.535
3287.17,962.224
3288.62,952.242
3290.08,947.435
3291.53,974.891
3292.98,940.424
3294.43,921.225
3295.88,960.621
3297.33,927.879
3298.79,931.929
3300.24,950.549
3301.69,936.414
3303.14,896.357
3304.59,926.305
3306.05,932.672
3307.5,912.751
3308.95,938.5
3310.4,917.442
3311.85,921.016
3313.3,932.084
3314.76,952.735
3316.21,920.824
3317.66,910.928
3319.11,931.954
3320.56,900.573
3322.02,913.269
3323.47,913.541
3324.92,909.501
3326.37,901.393
3327.82,904.695
3329.27,909.928
3330.73,930.35
3332.18,896.927
3333.63,921.213
3335.08,910.049
3336.53,904.602
3337.98,897.917
3339.44,898.733
3340.89,900.362
3342.34,901.007
3343.79,899.6
3345.24,921.844
3346.7,882.424
3348.15,926.906
3349.6,880.167
3351.05,881.104
3352.5,899.164
3353.95,893.453
3355.41,916.668
3356.86,883.785
3358.31,875.419
3359.76,916.377
3361.21,910.573
3362.67,909.276
3364.12,877.356
3365.57,859.972
3367.02,902.042
3368.47,904.091
3369.92,896.055
3371.38,858.755
3372.83,897.473
3374.28,880.803
3375.73,887.443
3377.18,880.424
3378.63,887.845
3380.09,878.462
3381.54,875.201
3382.99,857.519
3384.44,881.172
3385.89,881.928
3387.35,883.023
3388.8,882.707
3390.25,912.105
3391.7,915.704
3393.15,883.863
3394.6,881.923
3396.06,904.693
3397.51,885.134
3398.96,888.658
3400.41,869.379
3401.86,887.92
3403.32,897.122
3404.77,930.941
3406.22,901.77
3407.67,875.61
3409.12,900.073
3410.57,904.177
3412.03,883.682
3413.48,932.15
3414.93,877.92
3416.38,898.747
3417.83,891.371
3419.28,841.946
3420.74,890.088
3422.19,884.214
3423.64,883.658
3425.09,892.869
3426.54,919.848
3428,866.43
3429.45,879.278
3430.9,884.424
3432.35,912.34
3433.8,907.323
3435.25,889.083
3436.71,879.828
3438.16,862.029
3439.61,899.603
3441.06,879.785
3442.51,888.799
3443.97,880.869
3445.42,843.827
3446.87,864.534
3448.32,897.481
3449.77,882.401
3451.22,871.869
3452.68,871.883
3454.13,879.127
3455.58,886.574
3457.03,865.63
3458.48,859.051
3459.94,862.373
3461.39,858.372
3462.84,865.836
3464.29,896.644
3465.74,895.795
3467.19,879.552
3468.65,852.458
3470.1,888.695
3471.55,871.769
3473,878.073
3474.45,877.577
3475.9,889.768
3477.36,898.124
3478.81,865.693
3480.26,840.887
3481.71,884.148
3483.16,880.666
3484.62,879.201
3486.07,900.219
3487.52,903.371
3488.97,896.214
3490.42,856.957
3491.87,906.447
3493.33,903.865
3494.78,886.733
3496.23,877.207
3497.68,920.083
3499.13,903.174
3500.58,897.647
3502.04,896.264
3503.49,880.66
3504.94,911.438
3506.39,896.02
3507.84,882.386
3509.3,883.098
3510.75,917.344
3512.2,889.042
3513.65,908.456
3515.1,907.185
3516.55,899.806
3518.01,890.745
3519.46,866.487
3520.91,895.71
3522.36,890.29
3523.81,905.528
3525.27,909.36
3526.72,901.117
3528.17,929.839
3529.62,888.693
3531.07,903.552
3532.52,912.658
3533.98,918.945
3535.43,864.382
3536.88,896.155
3538.33,911.095
3539.78,903.896
3541.24,862.129
3542.69,882.75
3544.14,886.918
3545.59,908.097
3547.04,920.773
3548.49,880.139
3549.95,872.754
3551.4,901.009
3552.85,887.39
3554.3,892.768
3555.75,856.834
3557.2,900.923
3558.66,873.529
3560.11,901.232
3561.56,893.674
3563.01,863.791
3564.46,886.922
3565.92,889.705
3567.37,873.881
3568.82,889.857
3570.27,879.265
3571.72,895.071
3573.17,895.711
3574.63,867.451
3576.08,895.713
3577.53,877.595
3578.98,878.952
3580.43,890.206
3581.89,903.653
3583.34,892.274
3584.79,887.285
3586.24,874.548
3587.69,874.32
3589.14,877.509
3590.6,884.407
3592.05,895.59
3593.5,887.586
3594.95,861.891
3596.4,896.917
3597.85,898.395
3599.31,874.036
3600.76,882.04
3602.21,862.63
3603.66,864.158
3605.11,894.962
3606.57,881.065
3608.02,917.055
3609.47,919.672
3610.92,890.298
3612.37,923.138
3613.82,867.161
3615.28,869.093
3616.73,894.846
3618.18,898.359
3619.63,882.226
3621.08,911.264
3622.54,899.975
3623.99,879.235
3625.44,886.257
3626.89,885.247
3628.34,908.735
3629.79,893.24
3631.25,911.655
3632.7,838.927
3634.15,890.21
3635.6,894.63
3637.05,908.671
3638.5,908.623
3639.96,920.885
3641.41,902.856
3642.86,898.321
3644.31,928.451
3645.76,885.394
3647.22,918.013
3648.67,885.481
3650.12,914.316
3651.57,887.335
3653.02,924.072
3654.47,897.645
3655.93,918.902
3657.38,929.736
3658.83,915.323
3660.28,931.097
3661.73,888.829
3663.19,903.122
3664.64,927.377
3666.09,908.431
3667.54,947.403
3668.99,917.044
3670.44,935.887
3671.9,887.422
3673.35,920.579
3674.8,925.366
3676.25,933.29
3677.7,920.246
3679.16,920.402
3680.61,908.046
3682.06,926.249
3683.51,905.401
3684.96,891.301
3686.41,906.846
3687.87,944.564
3689.32,944.729
3690.77,918.435
3692.22,952.82
3693.67,928.951
3695.12,948.999
3696.58,915.915
3698.03,955.567
3699.48,912.36
3700.93,913.413
3702.38,916.017
3703.84,950.209
3705.29,926.449
3706.74,941.489
3708.19,932.122
3709.64,935.48
3711.09,909.628
3712.55,911.312
3714,923.627
3715.45,921.105
3716.9,947.849
3718.35,918.655
3719.8,932.881
3721.26,938.595
3722.71,927.571
3724.16,953.735
3725.61,932.204
3727.06,920.765
3728.52,944.584
3729.97,931.123
3731.42,943.953
3732.87,974.376
3734.32,975.176
3735.77,929.896
3737.23,925.352
3738.68,955.426
3740.13,922.097
3741.58,928.435
3743.03,955.551
3744.49,955.081
3745.94,946.237
3747.39,950.032
3748.84,950.893
3750.29,909.492
3751.74,955.983
3753.2,978.873
3754.65,947.285
3756.1,937.705
3757.55,959.156
3759,932.264
3760.46,923.349
3761.91,956.07
3763.36,939.902
3764.81,958.174
3766.26,962.93
3767.71,974.787
3769.17,977.68
3770.62,942.897
3772.07,918.051
3773.52,961.138
3774.97,989.738
3776.42,996.986
3777.88,987.827
3779.33,952.38
3780.78,974.478
3782.23,946.396
3783.68,941.236
3785.14,957.669
3786.59,962.763
3788.04,941.693
3789.49,969.162
3790.94,940.641
3792.39,966.346
3793.85,977.953
3795.3,973.09
3796.75,974.848
3798.2,977.395
3799.65,989.527
3801.1,986.147
3802.56,938.433
3804.01,980.844
3805.46,984.716
3806.91,977.659
3808.36,969.321
3809.82,969.132
3811.27,957.541
3812.72,964.885
3814.17,949.515
3815.62,984.577
3817.07,1005.82
3818.53,993.648
3819.98,1006.24
3821.43,998.582
3822.88,982.221
3824.33,967.702
3825.79,984.357
3827.24,984.191
3828.69,1006.46
3830.14,995.631
3831.59,1019.45
3833.04,1006.91
3834.5,985.134
3835.95,1000.37
3837.4,999.768
3838.85,1000.17
3840.3,999.498
3841.76,1016.54
3843.21,1027.34
3844.66,1019.68
3846.11,971.494
3847.56,988.565
3849.01,997.853
3850.47,1000.02
3851.92,1010.92
3853.37,1017.08
3854.82,1022.6
3856.27,1001.48
3857.72,975.518
3859.18,1034.96
3860.63,1009.38
3862.08,1025.33
3863.53,1023.51
3864.98,1017.07
3866.44,1012.5
3867.89,1031.44
3869.34,1035.59
3870.79,1046.54
3872.24,1006.38
3873.69,1033.31
3875.15,1014.24
3876.6,1047.9
3878.05,1031.26
3879.5,1026.19
3880.95,1056.34
3882.41,1052.33
3883.86,1084.31
3885.31,1051.28
3886.76,1048.04
3888.21,1057.35
3889.66,1075.25
3891.12,1041.45
3892.57,1077.51
3894.02,1054.39
3895.47,1074.23
3896.92,1081.31
3898.37,1074.55
3899.83,1084.24
3901.28,1084.17
3902.73,1058.92
3904.18,1074.69
3905.63,1077.38
3907.09,1094.71
3908.54,1088.57
3909.99,1084.59
3911.44,1075.64
3912.89,1127.31
3914.34,1110.04
3915.8,1094.07
3917.25,1129.65
3918.7,1093.06
3920.15,1125.55
3921.6,1101.16
3923.06,1091.28
3924.51,1131.96
3925.96,1152.83
3927.41,1099.13
3928.86,1138.46
3930.31,1131.69
3931.77,1150.26
3933.22,1132.45
3934.67,1155.74
3936.12,1145.81
3937.57,1145.59
3939.02,1179.1
3940.48,1132.52
3941.93,1156.76
3943.38,1160.57
3944.83,1173.09
3946.28,1161.36
3947.74,1179.21
3949.19,1197.42
3950.64,1190.72
3952.09,1192.46
3953.54,1183.78
3954.99,1186.25
3956.45,1207.22
3957.9,1206.76
3959.35,1241.56
3960.8,1199.89
3962.25,1212.12
3963.71,1228.59
3965.16,1223.62
3966.61,1245.79
3968.06,1203.24
3969.51,1231.28
3970.96,1210.33
3972.42,1194.08
3973.87,1219.34
3975.32,1276.55
3976.77,1240.69
3978.22,1251.37
3979.68,1261.54
3981.13,1283.89
3982.58,1261.09
3984.03,1246.58
3985.48,1286.58
3986.93,1320.81
3988.39,1304.5
3989.84,1260.94
3991.29,1260.63
3992.74,1298.64
3994.19,1259.33
3995.64,1285.45
3997.1,1341.23
3998.55,1295.47
4000,1290.64
