-20,59.8018
-18.5482,59.2898
-17.0964,57.6073
-15.6446,61.0567
-14.1928,64.4123
-12.7411,68.9683
-11.2893,73.031
-9.83749,76.8956
-8.3857,80.4057
-6.93391,104.399
-5.48212,486.842
-4.03034,4422.59
-2.57855,15817.9
-1.12676,28236.4
0.325027,37799.8
1.77681,35943.9
3.2286,23049.3
4.68039,6666.61
6.13218,1136.79
7.58397,205.613
9.03575,128.292
10.4875,119.351
11.9393,118.686
13.3911,118.188
14.8429,116.605
16.2947,114.737
17.7465,111.846
19.1983,106.563
20.6501,102.022
22.1018,96.8932
23.5536,93.1335
25.0054,90.4653
26.4572,84.8133
27.909,78.1116
29.3608,72.5853
30.8126,64.3203
32.2644,62.8556
33.7161,61.8716
35.1679,60.9763
36.6197,60.9767
38.0715,58.5652
39.5233,58.5105
40.9751,60.8754
42.4269,63.6006
43.8787,63.8957
45.3304,69.8902
46.7822,82.3535
48.234,101.671
49.6858,141.014
51.1376,218.951
52.5894,370.702
54.0412,579.428
55.493,836.994
56.9447,1115.14
58.3965,1431.67
59.8483,1687.13
61.3001,1916.15
62.7519,2091.88
64.2037,2216.31
65.6555,2260.61
67.1073,2330.52
68.559,2381.82
70.0108,2407.46
71.4626,2425.67
72.9144,2436.67
74.3662,2455.92
75.818,2499.64
77.2698,2528.72
78.7216,2583.14
80.1733,2669.4
81.6251,2718.51
83.0769,2778
84.5287,2815.81
85.9805,2799.85
87.4323,2732.38
88.8841,2638.88
90.3359,2526.52
91.7877,2397.16
93.2394,2265.2
94.6912,2153.49
96.143,2037.59
97.5948,1939.61
99.0466,1884.85
100.498,1860.99
101.95,1810.13
103.402,1760.16
104.854,1738.02
106.306,1726.15
107.757,1699.36
109.209,1665.26
110.661,1625.78
112.113,1605.43
113.564,1604.09
115.016,1577.19
116.468,1539.66
117.92,1518.44
119.372,1505.93
120.823,1464.18
122.275,1476.79
123.727,1447.28
125.179,1403.32
126.631,1382.04
128.082,1380.47
129.534,1344.79
130.986,1321.76
132.438,1307.43
133.889,1285.49
135.341,1261.73
136.793,1232.83
138.245,1215.29
139.697,1215.33
141.148,1218.46
142.6,1205.43
144.052,1206.11
145.504,1202.32
146.956,1192.22
148.407,1169.01
149.859,1144.49
151.311,1124.81
152.763,1128.22
154.215,1128.84
155.666,1118.51
157.118,1070.19
158.57,1048.6
160.022,1046.28
161.473,1045.09
162.925,1026.93
164.377,1033.56
165.829,1037.13
167.281,1026.51
168.732,1008.7
170.184,1020.78
171.636,999.116
173.088,973.612
174.54,965.935
175.991,969.026
177.443,922.806
178.895,930.117
180.347,930.11
181.798,920.581
183.25,897.14
184.702,912.195
186.154,906.791
187.606,898.878
189.057,884.262
190.509,869.999
191.961,856.952
193.413,865.217
194.865,882.057
196.316,883.113
197.768,868.578
199.22,864.656
200.672,865.724
202.124,872.616
203.575,863.513
205.027,838.123
206.479,835.513
207.931,842.77
209.382,840.051
210.834,841.742
212.286,859.989
213.738,850.859
215.19,840.971
216.641,850.994
218.093,865.778
219.545,873.962
220.997,874.029
222.449,834.708
223.9,844.785
225.352,855.748
226.804,852.367
228.256,827.532
229.707,831.292
231.159,843.399
232.611,843.838
234.063,849.695
235.515,847.883
236.966,854.646
238.418,852.387
239.87,848.349
241.322,844.941
242.774,837.136
244.225,834.803
245.677,835.404
247.129,839.205
248.581,829.879
250.033,811.294
251.484,821.729
252.936,801.527
254.388,790.172
255.84,798.7
257.291,812.173
258.743,797.774
260.195,794.494
261.647,792.424
263.099,795.65
264.55,795.86
266.002,781.63
267.454,787.879
268.906,794.805
270.358,797.104
271.809,786.297
273.261,768.259
274.713,775.502
276.165,775.597
277.616,770.423
279.068,762.727
280.52,761.07
281.972,754.928
283.424,735.004
284.875,723.831
286.327,728.91
287.779,733.016
289.231,732.941
290.683,737.128
292.134,732.813
293.586,715.566
295.038,696.095
296.49,711.596
297.941,710.616
299.393,705.672
300.845,702.615
302.297,698.733
303.749,696.365
305.2,684.577
306.652,684.706
308.104,681.114
309.556,665.902
311.008,675.796
312.459,689.69
313.911,673.315
315.363,667.177
316.815,674.383
318.267,648.07
319.718,667.469
321.17,664.141
322.622,666.125
324.074,669.246
325.525,660.044
326.977,668.937
328.429,669.641
329.881,645.321
331.333,628.426
332.784,645.799
334.236,639.361
335.688,624.398
337.14,642.26
338.592,648.971
340.043,636.023
341.495,631.201
342.947,641.768
344.399,638.21
345.85,629.969
347.302,629.701
348.754,636.777
350.206,630.926
351.658,624.213
353.109,624.407
354.561,628.602
356.013,627.606
357.465,607.106
358.917,610.197
360.368,612.604
361.82,612.217
363.272,614.814
364.724,622.001
366.176,610.866
367.627,602.361
369.079,603.777
370.531,613.796
371.983,617.212
373.434,601.181
374.886,604.027
376.338,607.601
377.79,608.07
379.242,603.991
380.693,608.63
382.145,587.082
383.597,597.109
385.049,609.869
386.501,618.681
387.952,621.113
389.404,612.501
390.856,603.032
392.308,603.756
393.759,607.482
395.211,608.536
396.663,596.315
398.115,614.132
399.567,607.242
401.018,597.687
402.47,593.634
403.922,603.824
405.374,603.478
406.826,605.791
408.277,604.731
409.729,602.814
411.181,604.424
412.633,615.08
414.085,606.466
415.536,596.056
416.988,599.158
418.44,606.936
419.892,604.288
421.343,623.709
422.795,602.091
424.247,593.793
425.699,595.337
427.151,597.616
428.602,593.002
430.054,584.115
431.506,603.875
432.958,607.103
434.41,601.041
435.861,604.93
437.313,586.084
438.765,585.44
440.217,608.712
441.668,619.155
443.12,607.254
444.572,579.412
446.024,600.082
447.476,590.174
448.927,587.204
450.379,588.004
451.831,589.204
453.283,594.227
454.735,576.779
456.186,582.689
457.638,591.072
459.09,597.402
460.542,599.335
461.993,597.656
463.445,597.238
464.897,586.974
466.349,588.197
467.801,592.619
469.252,577.596
470.704,579.589
472.156,588.504
473.608,597.53
475.06,594.954
476.511,578.737
477.963,574.569
479.415,587.229
480.867,594.38
482.319,590.378
483.77,577.908
485.222,568.86
486.674,586.355
488.126,596.221
489.577,585.838
491.029,580.279
492.481,579.045
493.933,564.167
495.385,566.267
496.836,566.314
498.288,575.52
499.74,575.288
501.192,566.434
502.644,562.195
504.095,567.712
505.547,573.321
506.999,577.91
508.451,576.646
509.902,567.799
511.354,578.551
512.806,565.666
514.258,568.037
515.71,572.074
517.161,574.607
518.613,567.115
520.065,549.238
521.517,571.692
522.969,571.496
524.42,560.883
525.872,551.551
527.324,559.725
528.776,560.903
530.228,569.363
531.679,580.1
533.131,571.379
534.583,560.371
536.035,564.696
537.486,583.85
538.938,577.966
540.39,564.155
541.842,562.128
543.294,567.292
544.745,572.593
546.197,571.922
547.649,567.931
549.101,561.329
550.553,572.151
552.004,580.037
553.456,566.707
554.908,568.68
556.36,558.547
557.811,559.651
559.263,562.569
560.715,570.489
562.167,573.073
563.619,591.438
565.07,575.413
566.522,572.784
567.974,575.853
569.426,568.036
570.878,557.314
572.329,567.893
573.781,555.789
575.233,565.775
576.685,573.438
578.137,573.011
579.588,560.102
581.04,553.065
582.492,563.762
583.944,558.402
585.395,559.72
586.847,564.174
588.299,562.731
589.751,559.555
591.203,558.521
592.654,553.401
594.106,560.539
595.558,570.367
597.01,565.734
598.462,555.705
599.913,565.29
601.365,550.3
602.817,548.732
604.269,562.391
605.72,561.054
607.172,573.63
608.624,577.154
610.076,578.566
611.528,568.481
612.979,557.958
614.431,560.179
615.883,551.237
617.335,557.17
618.787,564.293
620.238,576.293
621.69,572.901
623.142,553.598
624.594,569.256
626.046,567.03
627.497,573.915
628.949,569.424
630.401,572.659
631.853,577.459
633.304,559.194
634.756,553.728
636.208,567.787
637.66,570.956
639.112,572.945
640.563,577.264
642.015,574.289
643.467,567.523
644.919,571.171
646.371,581.395
647.822,585.397
649.274,583.782
650.726,583.001
652.178,591.402
653.629,569.745
655.081,571.642
656.533,582.332
657.985,588.141
659.437,586.82
660.888,594.438
662.34,583.739
663.792,576.017
665.244,581.959
666.696,582.252
668.147,581.558
669.599,600.952
671.051,604.428
672.503,585.748
673.954,584.741
675.406,583.902
676.858,578.37
678.31,590.191
679.762,605.603
681.213,593.815
682.665,581.8
684.117,580.239
685.569,590.654
687.021,609.167
688.472,609.199
689.924,598.263
691.376,593.148
692.828,598.09
694.28,604.806
695.731,597.314
697.183,596.311
698.635,583.454
700.087,584.469
701.538,587.401
702.99,588.86
704.442,585.786
705.894,591.347
707.346,607.147
708.797,612.095
710.249,598.013
711.701,601.167
713.153,601.455
714.605,590.305
716.056,593.117
717.508,594.288
718.96,608.147
720.412,599.283
721.863,592.999
723.315,596.133
724.767,600.413
726.219,600.724
727.671,601.691
729.122,585.744
730.574,584.225
732.026,589.595
733.478,603.495
734.93,612.511
736.381,606.336
737.833,589.804
739.285,595.893
740.737,597.54
742.189,599.792
743.64,605.685
745.092,602.151
746.544,600.711
747.996,608.975
749.447,599.465
750.899,607.944
752.351,609.086
753.803,593.671
755.255,602.303
756.706,594.288
758.158,593.464
759.61,610.761
761.062,616.504
762.514,618.282
763.965,612.425
765.417,601.045
766.869,602.047
768.321,610.287
769.772,607.778
771.224,611.525
772.676,615.179
774.128,600.31
775.58,604.296
777.031,595.05
778.483,606.064
779.935,596.73
781.387,593.613
782.839,602.468
784.29,607.904
785.742,613.649
787.194,626.524
788.646,617.185
790.098,621.184
791.549,623.163
793.001,618.593
794.453,625.978
795.905,618.159
797.356,603.321
798.808,604.941
800.26,599.55
801.712,606.643
803.164,623.015
804.615,624.228
806.067,630.652
807.519,614.384
808.971,619.516
810.423,618.855
811.874,619.29
813.326,613.9
814.778,624.125
816.23,625.806
817.681,625.996
819.133,616.637
820.585,627.992
822.037,629.399
823.489,622.07
824.94,618.279
826.392,631.151
827.844,637.845
829.296,642.046
830.748,644.242
832.199,646.117
833.651,636.413
835.103,638.483
836.555,640.355
838.007,639.757
839.458,635.464
840.91,640.843
842.362,645.525
843.814,649.482
845.265,635.614
846.717,633.032
848.169,653.764
849.621,670.679
851.073,673.359
852.524,666.548
853.976,664.565
855.428,659.408
856.88,662.461
858.332,659.556
859.783,666.41
861.235,668.117
862.687,661.516
864.139,655.647
865.59,652.314
867.042,655.377
868.494,648.028
869.946,647.36
871.398,660.294
872.849,653.859
874.301,635.044
875.753,641.592
877.205,645.633
878.657,655.348
880.108,650.688
881.56,652.25
883.012,653.037
884.464,656.526
885.915,658.137
887.367,660.268
888.819,655.971
890.271,673.677
891.723,665.87
893.174,679.775
894.626,675.733
896.078,665.081
897.53,670.782
898.982,671.989
900.433,667.813
901.885,680.323
903.337,660.025
904.789,666.723
906.241,682.69
907.692,684.875
909.144,671.964
910.596,668.834
912.048,682.778
913.499,683.123
914.951,685.159
916.403,685.226
917.855,684.056
919.307,690.901
920.758,693.308
922.21,690.982
923.662,697.279
925.114,699.842
926.566,699.24
928.017,691.489
929.469,686.579
930.921,695.966
932.373,696.115
933.824,695.277
935.276,694.634
936.728,716.811
938.18,709.899
939.632,699.159
941.083,706.585
942.535,680.08
943.987,702.838
945.439,707.383
946.891,695.466
948.342,694.911
949.794,694.763
951.246,696.575
952.698,700.789
954.15,695.77
955.601,701.201
957.053,704.326
958.505,698.543
959.957,708.708
961.408,704.19
962.86,687.81
964.312,690.914
965.764,716.939
967.216,697.008
968.667,700.369
970.119,706.889
971.571,705.983
973.023,696.535
974.475,695.736
975.926,711.508
977.378,710.947
978.83,700.248
980.282,704.847
981.733,702.06
983.185,711.191
984.637,720.03
986.089,711.387
987.541,712.895
988.992,707.66
990.444,711.529
991.896,718.461
993.348,706.111
994.8,711.556
996.251,732.245
997.703,731.845
999.155,719.394
1000.61,735.985
1002.06,734.733
1003.51,737.425
1004.96,732.089
1006.41,735.903
1007.87,734.666
1009.32,750.823
1010.77,754.225
1012.22,739.664
1013.67,763.301
1015.12,743.255
1016.58,754.333
1018.03,759.947
1019.48,763.139
1020.93,765.209
1022.38,757.039
1023.84,765.635
1025.29,785.681
1026.74,796.982
1028.19,793.608
1029.64,795.819
1031.09,811.679
1032.55,816.893
1034,805.301
1035.45,814.066
1036.9,825.361
1038.35,821.114
1039.8,821.628
1041.26,827.924
1042.71,834.681
1044.16,855.106
1045.61,858.927
1047.06,841.978
1048.52,848.214
1049.97,872.88
1051.42,859.137
1052.87,871.033
1054.32,885.703
1055.77,869.255
1057.23,870.31
1058.68,903.071
1060.13,893.285
1061.58,919.533
1063.03,914.393
1064.49,919.648
1065.94,936.61
1067.39,947.999
1068.84,941.425
1070.29,950.136
1071.74,962.878
1073.2,958.969
1074.65,981.349
1076.1,976.405
1077.55,1005.06
1079,1001.35
1080.46,995.518
1081.91,1004.63
1083.36,1014.89
1084.81,995.41
1086.26,1022.53
1087.71,1018.3
1089.17,998.927
1090.62,1004.79
1092.07,1010.78
1093.52,988.18
1094.97,975.424
1096.42,1016.98
1097.88,1020.62
1099.33,986.935
1100.78,991.081
1102.23,991.859
1103.68,988.004
1105.14,991.818
1106.59,984.751
1108.04,971.008
1109.49,963.582
1110.94,985.36
1112.39,978.278
1113.85,972.854
1115.3,955.182
1116.75,948.621
1118.2,945.849
1119.65,943.38
1121.11,951.239
1122.56,938.612
1124.01,944.394
1125.46,913.141
1126.91,929.59
1128.36,912.783
1129.82,909.591
1131.27,918.281
1132.72,925.938
1134.17,925.322
1135.62,915.035
1137.07,912.33
1138.53,907.514
1139.98,909.658
1141.43,907.758
1142.88,895.496
1144.33,905.479
1145.79,915.826
1147.24,897.769
1148.69,882.145
1150.14,905.871
1151.59,908.874
1153.04,914.535
1154.5,906.656
1155.95,905.58
1157.4,906.033
1158.85,900.562
1160.3,905.066
1161.76,914.995
1163.21,901.847
1164.66,907.217
1166.11,909.753
1167.56,899.256
1169.01,896.741
1170.47,907.068
1171.92,917.693
1173.37,911.018
1174.82,913.615
1176.27,906.987
1177.72,917.341
1179.18,925.085
1180.63,937.99
1182.08,932.024
1183.53,918.965
1184.98,918.112
1186.44,918.748
1187.89,921.643
1189.34,932.153
1190.79,921.095
1192.24,939.315
1193.69,920.858
1195.15,931.558
1196.6,937.259
1198.05,944.192
1199.5,945.402
1200.95,949.893
1202.41,959.233
1203.86,948.52
1205.31,959.747
1206.76,969.615
1208.21,966.084
1209.66,955.953
1211.12,950.867
1212.57,957.299
1214.02,963.047
1215.47,962.905
1216.92,955.446
1218.37,978.617
1219.83,980.409
1221.28,975.093
1222.73,987.666
1224.18,979.922
1225.63,963.649
1227.09,959.788
1228.54,983.865
1229.99,998.068
1231.44,973.903
1232.89,968.512
1234.34,1001.9
1235.8,996.661
1237.25,993.171
1238.7,1005.78
1240.15,1012.41
1241.6,1006.89
1243.06,1008.46
1244.51,1025.6
1245.96,1023.96
1247.41,1041.83
1248.86,1055.92
1250.31,1047.23
1251.77,1033.41
1253.22,1046.26
1254.67,1057.11
1256.12,1068.49
1257.57,1091.82
1259.02,1100.52
1260.48,1102.38
1261.93,1118.32
1263.38,1099
1264.83,1136.99
1266.28,1134.66
1267.74,1130.64
1269.19,1149.15
1270.64,1171.3
1272.09,1184.27
1273.54,1199.76
1274.99,1208.97
1276.45,1222.7
1277.9,1236.72
1279.35,1274.8
1280.8,1247.79
1282.25,1281.27
1283.71,1310.92
1285.16,1334.17
1286.61,1352.88
1288.06,1371.92
1289.51,1411.09
1290.96,1459.3
1292.42,1453.66
1293.87,1504.67
1295.32,1543.08
1296.77,1571.73
1298.22,1629.22
1299.67,1689.23
1301.13,1742.12
1302.58,1781.81
1304.03,1819.97
1305.48,1882.26
1306.93,1962.54
1308.39,2020.69
1309.84,2127.71
1311.29,2206.95
1312.74,2285.91
1314.19,2398.19
1315.64,2509.51
1317.1,2604.04
1318.55,2714.05
1320,2835.78
1321.45,2934.24
1322.9,3051.28
1324.36,3177.66
1325.81,3306.12
1327.26,3444.57
1328.71,3503.72
1330.16,3566.86
1331.61,3667.59
1333.07,3740.63
1334.52,3782.38
1335.97,3847.54
1337.42,3826.84
1338.87,3804.66
1340.33,3745.43
1341.78,3713.23
1343.23,3609.39
1344.68,3494.4
1346.13,3408.32
1347.58,3310.15
1349.04,3191.28
1350.49,3060.06
1351.94,2912.33
1353.39,2810.65
1354.84,2710.98
1356.29,2544.78
1357.75,2459.56
1359.2,2358.56
1360.65,2275.05
1362.1,2174.04
1363.55,2078.67
1365.01,2026.3
1366.46,1954.57
1367.91,1860.34
1369.36,1820.57
1370.81,1758.33
1372.26,1700.35
1373.72,1692.93
1375.17,1650.89
1376.62,1624.03
1378.07,1578.82
1379.52,1538.68
1380.98,1512.04
1382.43,1483.68
1383.88,1474.24
1385.33,1451.68
1386.78,1423.39
1388.23,1423.35
1389.69,1395.65
1391.14,1374.7
1392.59,1376.9
1394.04,1375.15
1395.49,1346.63
1396.94,1327.68
1398.4,1319.99
1399.85,1317
1401.3,1315.03
1402.75,1309.06
1404.2,1313.35
1405.66,1314.93
1407.11,1294.58
1408.56,1303.79
1410.01,1290.71
1411.46,1304.4
1412.91,1314.11
1414.37,1290.44
1415.82,1295.2
1417.27,1301.66
1418.72,1309.64
1420.17,1309.18
1421.63,1309.64
1423.08,1315.45
1424.53,1314.45
1425.98,1306.98
1427.43,1342.24
1428.88,1309.71
1430.34,1331.87
1431.79,1330.39
1433.24,1338.98
1434.69,1334.96
1436.14,1348.77
1437.59,1371.12
1439.05,1367.69
1440.5,1380.95
1441.95,1371.18
1443.4,1372.16
1444.85,1371.24
1446.31,1385.3
1447.76,1384.24
1449.21,1389.01
1450.66,1409.5
1452.11,1433.35
1453.56,1447.24
1455.02,1455.57
1456.47,1449.86
1457.92,1448.49
1459.37,1480.65
1460.82,1504.81
1462.28,1514.26
1463.73,1507.29
1465.18,1551.76
1466.63,1529.36
1468.08,1563.5
1469.53,1580.73
1470.99,1582.43
1472.44,1594.76
1473.89,1613.93
1475.34,1645.95
1476.79,1694.41
1478.24,1704.17
1479.7,1709.47
1481.15,1751.91
1482.6,1775.02
1484.05,1804
1485.5,1847.42
1486.96,1866.57
1488.41,1896.1
1489.86,1926.11
1491.31,1961.57
1492.76,1984.94
1494.21,1998.96
1495.67,2070.34
1497.12,2159.55
1498.57,2183.19
1500.02,2207.11
1501.47,2266.5
1502.93,2340.86
1504.38,2341.05
1505.83,2450.8
1507.28,2490.87
1508.73,2590.06
1510.18,2681.19
1511.64,2768.02
1513.09,2870.68
1514.54,2950.95
1515.99,3079.81
1517.44,3241.23
1518.89,3376.43
1520.35,3486.97
1521.8,3619.5
1523.25,3811.72
1524.7,4013.87
1526.15,4322.95
1527.61,4535.23
1529.06,4866.54
1530.51,5179.1
1531.96,5555.51
1533.41,5988.83
1534.86,6434.98
1536.32,6948.5
1537.77,7565.11
1539.22,8232.31
1540.67,8955.03
1542.12,9695.4
1543.58,10667.2
1545.03,11652
1546.48,12760.2
1547.93,13829.6
1549.38,14965.8
1550.83,16139.5
1552.29,17426.3
1553.74,18667.5
1555.19,19880.9
1556.64,21159.4
1558.09,22342.8
1559.54,23416.2
1561,24372.6
1562.45,25145.9
1563.9,25627.7
1565.35,25962.5
1566.8,26026.3
1568.26,25849.9
1569.71,25182.1
1571.16,24363.8
1572.61,23378.4
1574.06,22193.1
1575.51,20926.6
1576.97,19579.1
1578.42,18226.8
1579.87,16935.6
1581.32,15650
1582.77,14437.6
1584.23,13314.1
1585.68,12223.5
1587.13,11315.5
1588.58,10364.9
1590.03,9517.66
1591.48,8773.44
1592.94,8053.62
1594.39,7537.52
1595.84,7078.7
1597.29,6592.72
1598.74,6263.1
1600.2,5935.61
1601.65,5609.7
1603.1,5306.38
1604.55,5050.72
1606,4798.01
1607.45,4556.29
1608.91,4355.22
1610.36,4166.53
1611.81,3974.9
1613.26,3738.5
1614.71,3560.52
1616.16,3395.74
1617.62,3227.6
1619.07,3091.04
1620.52,2922.27
1621.97,2834.47
1623.42,2723.77
1624.88,2601.83
1626.33,2523.65
1627.78,2425.8
1629.23,2342.64
1630.68,2265.49
1632.13,2170.16
1633.59,2126.52
1635.04,2105.23
1636.49,2064.15
1637.94,1991.25
1639.39,1919.76
1640.85,1898.45
1642.3,1856.75
1643.75,1820.54
1645.2,1780.94
1646.65,1773
1648.1,1753.02
1649.56,1727.86
1651.01,1676.15
1652.46,1652.19
1653.91,1626.06
1655.36,1602.8
1656.81,1599.41
1658.27,1555.16
1659.72,1516.28
1661.17,1509.3
1662.62,1492.89
1664.07,1465.54
1665.53,1460.01
1666.98,1459.86
1668.43,1422.96
1669.88,1383.67
1671.33,1376.16
1672.78,1371.94
1674.24,1334.7
1675.69,1309.3
1677.14,1320.84
1678.59,1321.98
1680.04,1300.47
1681.5,1280.4
1682.95,1278.88
1684.4,1282.73
1685.85,1272.66
1687.3,1260.07
1688.75,1244.83
1690.21,1229.45
1691.66,1220.13
1693.11,1189.06
1694.56,1204.1
1696.01,1208.47
1697.46,1189.33
1698.92,1182
1700.37,1167.96
1701.82,1161.9
1703.27,1159.87
1704.72,1169.04
1706.18,1169.42
1707.63,1161.81
1709.08,1148.1
1710.53,1154.12
1711.98,1148.91
1713.43,1123.78
1714.89,1131.51
1716.34,1130.78
1717.79,1131.97
1719.24,1118.33
1720.69,1129.96
1722.15,1154.83
1723.6,1130.17
1725.05,1143.84
1726.5,1129.14
1727.95,1111.17
1729.4,1122.67
1730.86,1122.46
1732.31,1137.3
1733.76,1147.36
1735.21,1109.84
1736.66,1099.5
1738.11,1112.23
1739.57,1105.62
1741.02,1089.49
1742.47,1095.09
1743.92,1099.82
1745.37,1081.18
1746.83,1071
1748.28,1073.12
1749.73,1082.1
1751.18,1087.6
1752.63,1075.09
1754.08,1055.02
1755.54,1076.53
1756.99,1079.19
1758.44,1062.97
1759.89,1034.16
1761.34,1051.23
1762.8,1041.72
1764.25,1034.87
1765.7,1028.15
1767.15,1037.65
1768.6,1041.84
1770.05,1039.05
1771.51,1028.08
1772.96,1001.41
1774.41,999.312
1775.86,1006.78
1777.31,1009.19
1778.76,994.612
1780.22,980.794
1781.67,997.459
1783.12,1007.49
1784.57,999.319
1786.02,973.307
1787.48,975.932
1788.93,994.862
1790.38,976.324
1791.83,964.792
1793.28,988.43
1794.73,1014
1796.19,968.614
1797.64,951.104
1799.09,967.728
1800.54,961.418
1801.99,960.64
1803.45,970.311
1804.9,971.353
1806.35,969.824
1807.8,973.733
1809.25,966.395
1810.7,954.911
1812.16,949.237
1813.61,949.095
1815.06,950.055
1816.51,944.212
1817.96,954.309
1819.41,960.241
1820.87,951.563
1822.32,941.466
1823.77,953.721
1825.22,958.895
1826.67,975.607
1828.13,945.071
1829.58,968.046
1831.03,959.416
1832.48,951.969
1833.93,947.83
1835.38,934.121
1836.84,979.753
1838.29,970.284
1839.74,989.458
1841.19,994.754
1842.64,989.018
1844.1,996.363
1845.55,991.541
1847,995.43
1848.45,991.96
1849.9,984.636
1851.35,998.852
1852.81,1020.2
1854.26,1021.66
1855.71,1016.39
1857.16,1030.45
1858.61,1033.86
1860.07,1015.06
1861.52,1006.49
1862.97,1004.89
1864.42,1015.86
1865.87,1020.58
1867.32,1047.13
1868.78,1030.34
1870.23,1005.68
1871.68,995.931
1873.13,1010.96
1874.58,986.807
1876.03,981.883
1877.49,1012.24
1878.94,993.53
1880.39,970.589
1881.84,975.14
1883.29,985.17
1884.75,982.519
1886.2,980.916
1887.65,959.456
1889.1,947.607
1890.55,956.737
1892,959.767
1893.46,942.927
1894.91,945.74
1896.36,949.406
1897.81,935.183
1899.26,930.313
1900.72,924.646
1902.17,923.293
1903.62,919.458
1905.07,925.518
1906.52,909.07
1907.97,906.96
1909.43,920.243
1910.88,911.18
1912.33,913.48
1913.78,903.544
1915.23,912.905
1916.68,913.067
1918.14,894.191
1919.59,902.219
1921.04,876.681
1922.49,900.251
1923.94,896.402
1925.4,901.806
1926.85,904.674
1928.3,890.18
1929.75,866.86
1931.2,896.774
1932.65,906.71
1934.11,900.501
1935.56,904.491
1937.01,884.492
1938.46,899.439
1939.91,897.451
1941.37,906.317
1942.82,906.547
1944.27,907.947
1945.72,924.598
1947.17,908.759
1948.62,907.623
1950.08,897.153
1951.53,903.159
1952.98,906.317
1954.43,907.305
1955.88,896.551
1957.33,917.213
1958.79,925.254
1960.24,899.284
1961.69,888.273
1963.14,907.325
1964.59,904.802
1966.05,917.226
1967.5,920.615
1968.95,919.282
1970.4,931.01
1971.85,930.787
1973.3,927.635
1974.76,938.72
1976.21,934.344
1977.66,930.455
1979.11,931.646
1980.56,924.396
1982.02,935.805
1983.47,926.1
1984.92,921.44
1986.37,933.222
1987.82,946.464
1989.27,943.373
1990.73,938.368
1992.18,936.346
1993.63,938.138
1995.08,940.905
1996.53,955.912
1997.98,924.984
1999.44,924.835
2000.89,964.339
2002.34,927.351
2003.79,940.12
2005.24,933.681
2006.7,955.939
2008.15,934.067
2009.6,948.378
2011.05,944.631
2012.5,941.804
2013.95,950.306
2015.41,929.204
2016.86,913.155
2018.31,912.911
2019.76,909.388
2021.21,905.222
2022.67,897.613
2024.12,889.084
2025.57,915.495
2027.02,908.042
2028.47,914.339
2029.92,879.961
2031.38,895.814
2032.83,901.137
2034.28,898.425
2035.73,877.262
2037.18,885.054
2038.63,874.408
2040.09,872.014
2041.54,850.919
2042.99,870.337
2044.44,875.937
2045.89,863.891
2047.35,854.7
2048.8,863.648
2050.25,858.149
2051.7,859.313
2053.15,870.594
2054.6,859.908
2056.06,837.251
2057.51,851.339
2058.96,847.125
2060.41,838.482
2061.86,843.02
2063.32,849.459
2064.77,841.113
2066.22,832.402
2067.67,833.43
2069.12,845.617
2070.57,827.363
2072.03,842.445
2073.48,839.435
2074.93,830.454
2076.38,824.969
2077.83,838.84
2079.28,840.768
2080.74,829.23
2082.19,825.212
2083.64,839.063
2085.09,851.082
2086.54,843.115
2088,833.362
2089.45,828.188
2090.9,813.992
2092.35,810.698
2093.8,817.888
2095.25,822.96
2096.71,814.019
2098.16,834.708
2099.61,843.514
2101.06,846.943
2102.51,845.502
2103.97,841.275
2105.42,823.149
2106.87,819.721
2108.32,817.827
2109.77,810.915
2111.22,812.734
2112.68,810.84
2114.13,815.94
2115.58,810.969
2117.03,816.461
2118.48,830.373
2119.94,824.861
2121.39,841.201
2122.84,829.893
2124.29,835.831
2125.74,841.106
2127.19,843.683
2128.65,863.249
2130.1,837.116
2131.55,831.367
2133,841.018
2134.45,836.209
2135.9,835.398
2137.36,844.264
2138.81,833.064
2140.26,828.526
2141.71,815.203
2143.16,841.417
2144.62,843.913
2146.07,838.171
2147.52,834.282
2148.97,837.278
2150.42,850.378
2151.87,836.784
2153.33,863.107
2154.78,857.101
2156.23,849.79
2157.68,844.149
2159.13,852.177
2160.58,860.496
2162.04,855.045
2163.49,882.585
2164.94,877.79
2166.39,856.763
2167.84,861.998
2169.3,860.773
2170.75,867.537
2172.2,869.43
2173.65,867.537
2175.1,878.96
2176.55,888.192
2178.01,885.473
2179.46,867.834
2180.91,882.734
2182.36,887.712
2183.81,898.1
2185.27,892.419
2186.72,903.68
2188.17,910.734
2189.62,893.251
2191.07,894.17
2192.52,901.096
2193.98,900.589
2195.43,889.2
2196.88,899.689
2198.33,899.121
2199.78,885.446
2201.24,887.286
2202.69,899.967
2204.14,910.903
2205.59,878.338
2207.04,911.681
2208.49,903.118
2209.95,901.042
2211.4,920.141
2212.85,904.126
2214.3,899.108
2215.75,885.581
2217.2,902.104
2218.66,903.227
2220.11,920.141
2221.56,916.185
2223.01,904.694
2224.46,916.232
2225.92,922.596
2227.37,921.393
2228.82,888.665
2230.27,927.182
2231.72,894.563
2233.17,894.955
2234.63,920.845
2236.08,921.954
2237.53,917.03
2238.98,909.915
2240.43,940.195
2241.89,919.783
2243.34,931.625
2244.79,917.429
2246.24,936.874
2247.69,933.654
2249.14,933.316
2250.6,926.634
2252.05,930.104
2253.5,918.248
2254.95,928.744
2256.4,931.693
2257.85,951.672
2259.31,952.037
2260.76,949.19
2262.21,941.006
2263.66,954.83
2265.11,957.542
2266.57,952.22
2268.02,953.308
2269.47,975.018
2270.92,969.432
2272.37,958.212
2273.82,967.281
2275.28,972.685
2276.73,970.433
2278.18,957.454
2279.63,974.153
2281.08,981.193
2282.54,971.65
2283.99,984.92
2285.44,987.192
2286.89,991.054
2288.34,990.418
2289.79,972.685
2291.25,995.619
2292.7,1002.69
2294.15,993.34
2295.6,1002.37
2297.05,1023.1
2298.5,1022.33
2299.96,982.079
2301.41,996.127
2302.86,1012.04
2304.31,1023.46
2305.76,1028.42
2307.22,1008.7
2308.67,1025.48
2310.12,1015.75
2311.57,1038.12
2313.02,1040.99
2314.47,1044.17
2315.93,1043.69
2317.38,1043.58
2318.83,1037.12
2320.28,1043.5
2321.73,1038.07
2323.19,1052.84
2324.64,1054.81
2326.09,1053.76
2327.54,1062.33
2328.99,1072.58
2330.44,1073.25
2331.9,1078.29
2333.35,1102.63
2334.8,1092.85
2336.25,1102.79
2337.7,1094.48
2339.16,1101.26
2340.61,1118.35
2342.06,1123.55
2343.51,1113.96
2344.96,1138.19
2346.41,1120.85
2347.87,1112.52
2349.32,1132.38
2350.77,1150.36
2352.22,1177.25
2353.67,1151.11
2355.12,1154.08
2356.58,1157.67
2358.03,1188.93
2359.48,1181.93
2360.93,1211.65
2362.38,1187.79
2363.84,1199.03
2365.29,1217.16
2366.74,1239.25
2368.19,1218.67
2369.64,1252.28
2371.09,1248.17
2372.55,1265.76
2374,1276.25
2375.45,1286.15
2376.9,1311.08
2378.35,1321.8
2379.8,1322.15
2381.26,1343.2
2382.71,1340.33
2384.16,1358.58
2385.61,1397.95
2387.06,1434.52
2388.52,1437.79
2389.97,1420.44
2391.42,1431.46
2392.87,1496.14
2394.32,1522.14
2395.77,1579.17
2397.23,1579.51
2398.68,1586.99
2400.13,1605.35
2401.58,1647.46
2403.03,1662.69
2404.49,1705.27
2405.94,1731.59
2407.39,1750.04
2408.84,1782.12
2410.29,1826.61
2411.74,1829.97
2413.2,1849.42
2414.65,1883.68
2416.1,1899.35
2417.55,1930.85
2419,1947.62
2420.46,1961.58
2421.91,1952.45
2423.36,1969.37
2424.81,2002.64
2426.26,2016.14
2427.71,1980.11
2429.17,2001.31
2430.62,2030.11
2432.07,2009.11
2433.52,1990.16
2434.97,2015.58
2436.42,2009.35
2437.88,2004.06
2439.33,1985.19
2440.78,1990.52
2442.23,1961.28
2443.68,1948.8
2445.14,1939.84
2446.59,1921
2448.04,1902.4
2449.49,1891.88
2450.94,1921.71
2452.39,1887.54
2453.85,1906.9
2455.3,1886.38
2456.75,1835.92
2458.2,1813.19
2459.65,1809.29
2461.1,1830.98
2462.56,1805.55
2464.01,1790.41
2465.46,1813.81
2466.91,1794.94
2468.36,1772.85
2469.82,1774.33
2471.27,1747.4
2472.72,1754.8
2474.17,1759.94
2475.62,1746.9
2477.07,1788.65
2478.53,1759.78
2479.98,1751.24
2481.43,1726.69
2482.88,1743.34
2484.33,1759.02
2485.79,1754.39
2487.24,1735.09
2488.69,1724.02
2490.14,1734.23
2491.59,1750.55
2493.04,1752.41
2494.5,1723.73
2495.95,1782.05
2497.4,1753.65
2498.85,1753.08
2500.3,1740.98
2501.76,1778.9
2503.21,1758.43
2504.66,1751.13
2506.11,1788.38
2507.56,1765.56
2509.01,1778.09
2510.47,1782.27
2511.92,1790.55
2513.37,1812.01
2514.82,1812.45
2516.27,1822.75
2517.72,1825.67
2519.18,1860.99
2520.63,1866.03
2522.08,1883.73
2523.53,1903.13
2524.98,1891.62
2526.44,1907.06
2527.89,1914.1
2529.34,1930.48
2530.79,1979.42
2532.24,1998.09
2533.69,2013.2
2535.15,2048.67
2536.6,2054.22
2538.05,2054.6
2539.5,2081.12
2540.95,2124.44
2542.41,2130.12
2543.86,2142.17
2545.31,2182.48
2546.76,2225.98
2548.21,2254.54
2549.66,2272.86
2551.12,2318.44
2552.57,2356.31
2554.02,2371.98
2555.47,2423.34
2556.92,2434.48
2558.37,2479.3
2559.83,2505.31
2561.28,2583.33
2562.73,2610.56
2564.18,2663.36
2565.63,2711.13
2567.09,2781.03
2568.54,2828.51
2569.99,2866.19
2571.44,2911.16
2572.89,2950.34
2574.34,3055.06
2575.8,3129.33
2577.25,3185.4
2578.7,3258.18
2580.15,3321.72
2581.6,3440.05
2583.06,3543.85
2584.51,3575.24
2585.96,3679.51
2587.41,3795.98
2588.86,3882.81
2590.31,3982.38
2591.77,4122.84
2593.22,4256.61
2594.67,4358.98
2596.12,4474.8
2597.57,4630.75
2599.02,4830.29
2600.48,4985.33
2601.93,5112.47
2603.38,5327.19
2604.83,5531.27
2606.28,5696.81
2607.74,5845.82
2609.19,6117.44
2610.64,6405.04
2612.09,6634.89
2613.54,6899.81
2614.99,7114.41
2616.45,7397.11
2617.9,7722.42
2619.35,8015.75
2620.8,8241.84
2622.25,8534.35
2623.71,8925.13
2625.16,9273.04
2626.61,9638.39
2628.06,10008.2
2629.51,10400.4
2630.96,10787.9
2632.42,11145
2633.87,11529.3
2635.32,11950
2636.77,12252.1
2638.22,12645.7
2639.68,13035.4
2641.13,13355.3
2642.58,13702.9
2644.03,14093
2645.48,14346.8
2646.93,14673.6
2648.39,15049.7
2649.84,15111.5
2651.29,15380.1
2652.74,15576.4
2654.19,15712.2
2655.64,15874
2657.1,15933
2658.55,15945.7
2660,15925.4
2661.45,15889
2662.9,15704.2
2664.36,15683.7
2665.81,15473.7
2667.26,15326.9
2668.71,15145.4
2670.16,14831.1
2671.61,14499.8
2673.07,14150.8
2674.52,13955.7
2675.97,13504.4
2677.42,13136.1
2678.87,12741.9
2680.32,12383.8
2681.78,12021.1
2683.23,11665.5
2684.68,11216.1
2686.13,10771.6
2687.58,10340.5
2689.04,9933.81
2690.49,9579.95
2691.94,9225.56
2693.39,8777.97
2694.84,8487.42
2696.29,8133.5
2697.75,7797.56
2699.2,7461.23
2700.65,7182.51
2702.1,6898.12
2703.55,6552.16
2705.01,6282.69
2706.46,5992.72
2707.91,5764.81
2709.36,5621
2710.81,5350.71
2712.26,5078.6
2713.72,4927.79
2715.17,4791.92
2716.62,4613.5
2718.07,4420.95
2719.52,4224.93
2720.98,4092.52
2722.43,3950.28
2723.88,3843.59
2725.33,3711.54
2726.78,3578.8
2728.23,3460.59
2729.69,3352.92
2731.14,3262.96
2732.59,3195.5
2734.04,3102.72
2735.49,3011.85
2736.94,2938.6
2738.4,2872.28
2739.85,2790.64
2741.3,2735.61
2742.75,2668.57
2744.2,2634.81
2745.66,2536.78
2747.11,2513.78
2748.56,2450.08
2750.01,2403.68
2751.46,2347.32
2752.91,2290.93
2754.37,2255.59
2755.82,2248.9
2757.27,2191.05
2758.72,2152.96
2760.17,2135.53
2761.63,2090.43
2763.08,2042.94
2764.53,2074.33
2765.98,1986.06
2767.43,1995.97
2768.88,1948.79
2770.34,1904.34
2771.79,1890.66
2773.24,1866.69
2774.69,1881.06
2776.14,1885.96
2777.59,1818.3
2779.05,1840.16
2780.5,1769.71
2781.95,1733.61
2783.4,1764.18
2784.85,1716.28
2786.31,1674.17
2787.76,1678.86
2789.21,1662.47
2790.66,1667.87
2792.11,1665.39
2793.56,1626.1
2795.02,1630.55
2796.47,1585.72
2797.92,1564.58
2799.37,1578.07
2800.82,1542.94
2802.28,1551.59
2803.73,1525.1
2805.18,1530.95
2806.63,1546.05
2808.08,1524.28
2809.53,1496.51
2810.99,1500.14
2812.44,1456.31
2813.89,1483.96
2815.34,1473.12
2816.79,1457.28
2818.24,1448.24
2819.7,1427.08
2821.15,1412.65
2822.6,1427.4
2824.05,1372.65
2825.5,1376.88
2826.96,1389.67
2828.41,1405.12
2829.86,1381.96
2831.31,1391.97
2832.76,1374.11
2834.21,1350.48
2835.67,1371.36
2837.12,1365.89
2838.57,1342.13
2840.02,1375.99
2841.47,1345.58
2842.93,1352.38
2844.38,1326.2
2845.83,1342.64
2847.28,1336.78
2848.73,1331.44
2850.18,1319.5
2851.64,1351.04
2853.09,1339.36
2854.54,1335.92
2855.99,1320.88
2857.44,1308.35
2858.9,1290.5
2860.35,1335.08
2861.8,1301.03
2863.25,1332.01
2864.7,1339.36
2866.15,1330.24
2867.61,1319.84
2869.06,1316.73
2870.51,1348.72
2871.96,1320.35
2873.41,1292.18
2874.86,1323.94
2876.32,1302.98
2877.77,1348.39
2879.22,1336.06
2880.67,1323.89
2882.12,1295.47
2883.58,1295.67
2885.03,1311.75
2886.48,1334.97
2887.93,1332.72
2889.38,1361.82
2890.83,1335.93
2892.29,1337.1
2893.74,1325.95
2895.19,1344.22
2896.64,1337.87
2898.09,1314.01
2899.54,1338.67
2901,1331.85
2902.45,1336.79
2903.9,1340.15
2905.35,1361.96
2906.8,1349.82
2908.26,1333.25
2909.71,1326.51
2911.16,1313.95
2912.61,1333.44
2914.06,1339.86
2915.51,1326.87
2916.97,1329.54
2918.42,1303.31
2919.87,1313.65
2921.32,1275.81
2922.77,1298.12
2924.23,1275.28
2925.68,1268.03
2927.13,1274.92
2928.58,1281.91
2930.03,1252.87
2931.48,1267.2
2932.94,1230.76
2934.39,1218.92
2935.84,1208.83
2937.29,1196.84
2938.74,1222.27
2940.2,1211.1
2941.65,1161.98
2943.1,1145.03
2944.55,1161.63
2946,1145.23
2947.45,1138.34
2948.91,1141.11
2950.36,1120.52
2951.81,1114
2953.26,1098.43
2954.71,1068.52
2956.16,1087.94
2957.62,1067.59
2959.07,1046.74
2960.52,1051.57
2961.97,1043.69
2963.42,1040.57
2964.88,1021.26
2966.33,1032.64
2967.78,1026.2
2969.23,1009.48
2970.68,1011.54
2972.13,1009.48
2973.59,1012.11
2975.04,1005.37
2976.49,982.465
2977.94,986.611
2979.39,961.729
2980.84,973.463
2982.3,967.829
2983.75,971.339
2985.2,951.496
2986.65,951.408
2988.1,958.083
2989.56,939.958
2991.01,940.445
2992.46,950.312
2993.91,927.838
2995.36,938.348
2996.81,958.787
2998.27,934.385
2999.72,928.413
3001.17,908.759
3002.62,902.74
3004.07,903.599
3005.53,926.492
3006.98,912.573
3008.43,918.917
3009.88,923.334
3011.33,911.566
3012.78,914.061
3014.24,907.541
3015.69,915.671
3017.14,906.054
3018.59,902.124
3020.04,884.141
3021.5,906.723
3022.95,904.194
3024.4,894.624
3025.85,890.911
3027.3,892.933
3028.75,915.569
3030.21,890.444
3031.66,891.607
3033.11,898.851
3034.56,882.673
3036.01,879.636
3037.46,896.024
3038.92,896.139
3040.37,880.468
3041.82,894.569
3043.27,874.009
3044.72,894.083
3046.18,879.041
3047.63,886.406
3049.08,882.511
3050.53,906.716
3051.98,898.452
3053.43,893.359
3054.89,895.625
3056.34,913.25
3057.79,901.718
3059.24,886.69
3060.69,891.053
3062.15,902.395
3063.6,885.622
3065.05,887.529
3066.5,913.635
3067.95,909.997
3069.4,921.961
3070.86,923.821
3072.31,927.777
3073.76,905.695
3075.21,914.853
3076.66,938.307
3078.11,931.423
3079.57,929.076
3081.02,948.446
3082.47,941.189
3083.92,946.647
3085.37,950.184
3086.83,979.868
3088.28,959.794
3089.73,961.37
3091.18,980.848
3092.63,999.786
3094.08,1010.42
3095.54,996.715
3096.99,1013.04
3098.44,1063.16
3099.89,1032.67
3101.34,1064.15
3102.8,1064.81
3104.25,1071.31
3105.7,1091.43
3107.15,1093.77
3108.6,1118.61
3110.05,1139.4
3111.51,1106.68
3112.96,1143.64
3114.41,1168.1
3115.86,1183.68
3117.31,1200.76
3118.76,1216.88
3120.22,1254.27
3121.67,1230.82
3123.12,1250.99
3124.57,1289.48
3126.02,1284.91
3127.48,1283.52
3128.93,1295.11
3130.38,1310.38
3131.83,1339.31
3133.28,1350.12
3134.73,1343.48
3136.19,1369.95
3137.64,1380.14
3139.09,1371.59
3140.54,1389.02
3141.99,1384.22
3143.45,1381.35
3144.9,1420.06
3146.35,1407.28
3147.8,1392.62
3149.25,1436.52
3150.7,1403.69
3152.16,1416.6
3153.61,1398.28
3155.06,1425.73
3156.51,1417.62
3157.96,1420.98
3159.42,1395.11
3160.87,1428.73
3162.32,1426.39
3163.77,1406.45
3165.22,1432.95
3166.67,1453.51
3168.13,1430.63
3169.58,1431.77
3171.03,1478.37
3172.48,1466.19
3173.93,1469.84
3175.38,1475.72
3176.84,1505.87
3178.29,1523.41
3179.74,1570.52
3181.19,1518.25
3182.64,1541.6
3184.1,1590.87
3185.55,1566.07
3187,1565.48
3188.45,1592.36
3189.9,1653.58
3191.35,1649.36
3192.81,1659.22
3194.26,1628.11
3195.71,1671.17
3197.16,1696.88
3198.61,1687.45
3200.06,1683.7
3201.52,1702.2
3202.97,1710.23
3204.42,1696.82
3205.87,1669.75
3207.32,1662.94
3208.78,1651.51
3210.23,1640.58
3211.68,1593.12
3213.13,1555.22
3214.58,1559.24
3216.03,1528.86
3217.49,1523.35
3218.94,1511.88
3220.39,1450.73
3221.84,1429.43
3223.29,1376.5
3224.75,1343.96
3226.2,1317.93
3227.65,1289.35
3229.1,1272.37
3230.55,1229.38
3232,1184.53
3233.46,1165.52
3234.91,1133.7
3236.36,1099.93
3237.81,1071.96
3239.26,1065.98
3240.72,1033.7
3242.17,1020.63
3243.62,980.388
3245.07,969.932
3246.52,955.175
3247.97,949.643
3249.43,934.067
3250.88,901.955
3252.33,884.019
3253.78,892.852
3255.23,871.716
3256.68,865.163
3258.14,855.316
3259.59,821.127
3261.04,825.706
3262.49,813.066
3263.94,802.961
3265.4,819.01
3266.85,797.327
3268.3,809.271
3269.75,783.584
3271.2,802.217
3272.65,792.133
3274.11,771.478
3275.56,756.572
3277.01,788.819
3278.46,783.984
3279.91,775.881
3281.37,763.403
3282.82,757.904
3284.27,761.631
3285.72,766
3287.17,750.945
3288.62,749.437
3290.08,770.153
3291.53,766.331
3292.98,753.326
3294.43,749.721
3295.88,754.435
3297.33,761.333
3298.79,744.324
3300.24,722.688
3301.69,721.653
3303.14,724.785
3304.59,746.502
3306.05,730.107
3307.5,722.762
3308.95,721.396
3310.4,730.513
3311.85,754.604
3313.3,738.433
3314.76,732.015
3316.21,730.249
3317.66,727.632
3319.11,713.571
3320.56,722.992
3322.02,733.448
3323.47,735.403
3324.92,724.981
3326.37,713.456
3327.82,708.276
3329.27,725.738
3330.73,719.895
3332.18,703.771
3333.63,709.479
3335.08,705.692
3336.53,718.224
3337.98,732.65
3339.44,724.46
3340.89,724.21
3342.34,713.105
3343.79,718.738
3345.24,718.42
3346.7,710.244
3348.15,709.932
3349.6,708.668
3351.05,721.606
3352.5,713.632
3353.95,717.257
3355.41,729.424
3356.86,702.168
3358.31,711.745
3359.76,707.024
3361.21,702.263
3362.67,710.305
3364.12,681.865
3365.57,714.87
3367.02,708.323
3368.47,705.712
3369.92,714.565
3371.38,709.939
3372.83,728.268
3374.28,707.863
3375.73,700.586
3377.18,702.588
3378.63,713.132
3380.09,698.658
3381.54,686.349
3382.99,693.315
3384.44,700.234
3385.89,706.693
3387.35,700.877
3388.8,710.961
3390.25,710.433
3391.7,704.481
3393.15,701.654
3394.6,707.45
3396.06,715.032
3397.51,686.187
3398.96,694.377
3400.41,690.941
3401.86,686.552
3403.32,705.219
3404.77,717.176
3406.22,722.201
3407.67,698.604
3409.12,696.528
3410.57,695.135
3412.03,704.515
3413.48,695.784
3414.93,707.775
3416.38,689.744
3417.83,697.13
3419.28,708.492
3420.74,703.548
3422.19,715.688
3423.64,702.567
3425.09,699.193
3426.54,697.549
3428,685.375
3429.45,687.14
3430.9,687.323
3432.35,687.228
3433.8,683.123
3435.25,668.746
3436.71,684.584
3438.16,696.602
3439.61,692.287
3441.06,699.49
3442.51,688.797
3443.97,695.561
3445.42,711.387
3446.87,686.91
3448.32,685.544
3449.77,687.134
3451.22,686.85
3452.68,695.73
3454.13,684.577
3455.58,679.092
3457.03,682.954
3458.48,685.206
3459.94,667.354
3461.39,675.447
3462.84,670.606
3464.29,684.205
3465.74,692.788
3467.19,702.615
3468.65,682.521
3470.1,691.05
3471.55,682.359
3473,678.125
3474.45,690.772
3475.9,679.038
3477.36,675.813
3478.81,660.959
3480.26,668.953
3481.71,691.78
3483.16,689.44
3484.62,702.466
3486.07,688.926
3487.52,696.163
3488.97,699.889
3490.42,712.543
3491.87,670.782
3493.33,683.17
3494.78,694.769
3496.23,679.68
3497.68,676.935
3499.13,690.826
3500.58,696.041
3502.04,684.07
3503.49,699.267
3504.94,688.601
3506.39,696.271
3507.84,686.62
3509.3,665.464
3510.75,692.794
3512.2,686.505
3513.65,686.579
3515.1,691.496
3516.55,713.186
3518.01,704.995
3519.46,697.475
3520.91,683.035
3522.36,688.452
3523.81,702.148
3525.27,665.388
3526.72,674.998
3528.17,680.56
3529.62,688.892
3531.07,698.956
3532.52,689.69
3533.98,705.678
3535.43,687.411
3536.88,698.198
3538.33,689.71
3539.78,688.439
3541.24,692.537
3542.69,671.09
3544.14,692.943
3545.59,702.838
3547.04,674.307
3548.49,681.899
3549.95,683.292
3551.4,684.219
3552.85,665.856
3554.3,683.414
3555.75,678.037
3557.2,687.127
3558.66,667.486
3560.11,676.237
3561.56,685.436
3563.01,672.154
3564.46,682.487
3565.92,691.462
3567.37,682.677
3568.82,687.445
3570.27,681.432
3571.72,688.872
3573.17,676.38
3574.63,686.457
3576.08,693.221
3577.53,666.535
3578.98,674.65
3580.43,679.897
3581.89,687.695
3583.34,696.764
3584.79,685.159
3586.24,679.396
3587.69,681.608
3589.14,681.682
3590.6,684.726
3592.05,673.702
3593.5,673.847
3594.95,684.787
3596.4,670.455
3597.85,679.484
3599.31,675.736
3600.76,676.183
3602.21,675.424
3603.66,682.19
3605.11,681.168
3606.57,678.524
3608.02,687.33
3609.47,677.868
3610.92,682.027
3612.37,685.632
3613.82,677.787
3615.28,683.312
3616.73,674.965
3618.18,667.379
3619.63,693.511
3621.08,663.821
3622.54,677.773
3623.99,664.871
3625.44,684.381
3626.89,693.092
3628.34,678.477
3629.79,682.907
3631.25,680.052
3632.7,687.046
3634.15,671.669
3635.6,675.061
3637.05,698.422
3638.5,688.297
3639.96,699.463
3641.41,669.926
3642.86,671.39
3644.31,682.913
3645.76,670.863
3647.22,674.718
3648.67,680.357
3650.12,663.108
3651.57,683.989
3653.02,676.596
3654.47,682.48
3655.93,677.3
3657.38,659.594
3658.83,696.041
3660.28,685.355
3661.73,680.823
3663.19,676.251
3664.64,681.148
3666.09,690.143
3667.54,696.088
3668.99,677.002
3670.44,669.193
3671.9,692.49
3673.35,704.65
3674.8,695.507
3676.25,682.792
3677.7,694.262
3679.16,688.067
3680.61,696.298
3682.06,679.559
3683.51,683.434
3684.96,685.395
3686.41,698.53
3687.87,679.038
3689.32,675.848
3690.77,671.51
3692.22,704.231
3693.67,677.286
3695.12,679.66
3696.58,701.255
3698.03,672.892
3699.48,678.524
3700.93,692.822
3702.38,698.178
3703.84,683.103
3705.29,697.008
3706.74,695.31
3708.19,689.616
3709.64,676.142
3711.09,675.598
3712.55,684.077
3714,683.055
3715.45,699.544
3716.9,697.008
3718.35,686.349
3719.8,698.827
3721.26,680.411
3722.71,694.972
3724.16,695.155
3725.61,701.878
3727.06,704.373
3728.52,709.29
3729.97,707.038
3731.42,716.486
3732.87,691.672
3734.32,699.193
3735.77,691.435
3737.23,701.898
3738.68,701.221
3740.13,693.795
3741.58,687.154
3743.03,722.133
3744.49,702.033
3745.94,696.507
3747.39,700.072
3748.84,695.689
3750.29,697.799
3751.74,696.054
3753.2,693.092
3754.65,692.592
3756.1,707.018
3757.55,694.093
3759,702.838
3760.46,715.871
3761.91,702.128
3763.36,711.299
3764.81,711.637
3766.26,690.191
3767.71,700.701
3769.17,708.526
3770.62,709.682
3772.07,709.195
3773.52,707.106
3774.97,691.807
3776.42,700.16
3777.88,695.385
3779.33,714.714
3780.78,708.458
3782.23,706.713
3783.68,714.937
3785.14,690.583
3786.59,697.549
3788.04,708.972
3789.49,722.83
3790.94,728.904
3792.39,705.787
3793.85,703.893
3795.3,708.438
3796.75,711.4
3798.2,717.359
3799.65,692.625
3801.1,696.325
3802.56,712.097
3804.01,712.3
3805.46,728.417
3806.91,713.01
3808.36,721.362
3809.82,707.734
3811.27,699.422
3812.72,708.235
3814.17,721.559
3815.62,722.343
3817.07,725.617
3818.53,717.866
3819.98,716.878
3821.43,719.76
3822.88,716.324
3824.33,734.74
3825.79,730.087
3827.24,715.465
3828.69,716.358
3830.14,698.367
3831.59,721.829
3833.04,717.453
3834.5,716.304
3835.95,704.333
3837.4,703.406
3838.85,733.55
3840.3,708.093
3841.76,721.295
3843.21,719.935
3844.66,718.583
3846.11,718.65
3847.56,710.433
3849.01,737.567
3850.47,735.924
3851.92,737.182
3853.37,727.341
3854.82,748.348
3856.27,739.691
3857.72,743.404
3859.18,726.455
3860.63,736.073
3862.08,727.26
3863.53,740.617
3864.98,764.093
3866.44,744.378
3867.89,742.43
3869.34,732.346
3870.79,723.926
3872.24,747.07
3873.69,752.663
3875.15,739.752
3876.6,744.31
3878.05,744.249
3879.5,747.719
3880.95,766.338
3882.41,752.568
3883.86,740.124
3885.31,739.779
3886.76,757.499
3888.21,747.989
3889.66,750.701
3891.12,754.097
3892.57,729.992
3894.02,760.549
3895.47,754.604
3896.92,774.312
3898.37,748.301
3899.83,746.813
3901.28,761.895
3902.73,758.953
3904.18,764.099
3905.63,781.535
3907.09,743.708
3908.54,772.797
3909.99,775.786
3911.44,778.58
3912.89,797.287
3914.34,779.817
3915.8,775.881
3917.25,798.301
3918.7,783.497
3920.15,762.476
3921.6,788.779
3923.06,761.009
3924.51,758.878
3925.96,776.99
3927.41,796.928
3928.86,788.177
3930.31,799.093
3931.77,804.666
3933.22,805.234
3934.67,806.302
3936.12,806.431
3937.57,797.591
3939.02,774.393
3940.48,805.734
3941.93,831.489
3943.38,831.38
3944.83,805.978
3946.28,823.156
3947.74,834.005
3949.19,843.926
3950.64,830.785
3952.09,834.843
3953.54,809.434
3954.99,833.051
3956.45,828.655
3957.9,823.149
3959.35,841.478
3960.8,828.939
3962.25,841.471
3963.71,832.625
3965.16,826.991
3966.61,837.028
3968.06,842.026
3969.51,842.06
3970.96,859.955
3972.42,846.719
3973.87,848.038
3975.32,860.077
3976.77,860.659
3978.22,850.236
3979.68,868.139
3981.13,859.975
3982.58,867.131
3984.03,878.202
3985.48,881.686
3986.93,860.922
3988.39,880.529
3989.84,882.957
3991.29,866.948
3992.74,881.28
3994.19,870.229
3995.64,874.537
3997.1,889.01
3998.55,883.89
4000,886.284
