0,3.77216
1.45033,3.77216
2.90065,3.77216
4.35098,3.77216
5.80131,3.77216
7.25163,3.77216
8.70196,15.7811
10.1523,6.9226
11.6026,5.45479
13.0529,6.05615
14.5033,6.77174
15.9536,6.1372
17.4039,2.46123
18.8542,0.210496
20.3046,0.165929
21.7549,1.46502
23.2052,3.0294
24.6555,2.84546
26.1059,2.03035
27.5562,0.576102
29.0065,0.134207
30.4569,2.77888
31.9072,1.30618
33.3575,1.21607
34.8078,1.06066
36.2582,0.579297
37.7085,1.13189
39.1588,0.154926
40.6091,1.19642
42.0595,3.33919
43.5098,5.24064
44.9601,5.97802
46.4104,5.65311
47.8608,8.74422
49.3111,15.2867
50.7614,23.0666
52.2117,57.3815
53.6621,111.525
55.1124,192.941
56.5627,302.917
58.0131,433.796
59.4634,562.018
60.9137,676.971
62.364,757.523
63.8144,793.789
65.2647,860.295
66.715,888.827
68.1653,913.523
69.6157,941.478
71.066,968.016
72.5163,979.66
73.9666,976.23
75.417,967.528
76.8673,968.562
78.3176,1009.26
79.7679,1016.97
81.2183,1033.59
82.6686,1062.63
84.1189,1100.01
85.5693,1124.64
87.0196,1131.55
88.4699,1130.65
89.9202,1106.62
91.3706,1039.34
92.8209,983.757
94.2712,932.899
95.7215,876.55
97.1719,825.076
98.6222,810.245
100.073,781.345
101.523,747.724
102.973,717.098
104.423,693.57
105.874,674.644
107.324,659.079
108.774,651.579
110.225,640.048
111.675,617.954
113.125,622.781
114.576,632.477
116.026,627.005
117.476,607.395
118.927,583.921
120.377,590.433
121.827,578.188
123.278,571.328
124.728,570.976
126.178,562.237
127.629,549.973
129.079,537.287
130.529,528.827
131.98,523.768
133.43,512.975
134.88,499.889
136.331,482.975
137.781,475.301
139.231,477.943
140.682,456.712
142.132,462.327
143.582,453.498
145.033,438.743
146.483,429.659
147.933,415.493
149.384,427.742
150.834,423.913
152.284,408.97
153.735,401.213
155.185,418.001
156.635,403.864
158.086,398.473
159.536,405.934
160.986,414.609
162.437,413.303
163.887,398.911
165.337,382.261
166.788,369.194
168.238,362.77
169.688,364.453
171.139,356.367
172.589,351.7
174.039,350.383
175.489,339.154
176.94,361.182
178.39,366.663
179.84,365.292
181.291,362.038
182.741,354.555
184.191,345.797
185.642,337.53
187.092,328.289
188.542,322.825
189.993,338.195
191.443,325.547
192.893,325.444
194.344,332.698
195.794,336.19
197.244,317.078
198.695,321.348
200.145,322.514
201.595,318.035
203.046,310.33
204.496,308.829
205.946,316.491
207.397,320.916
208.847,325.707
210.297,331.221
211.748,323.902
213.198,324.824
214.648,327.636
216.099,326.903
217.549,321.765
218.999,324.018
220.45,330.908
221.9,326.777
223.35,317.435
224.801,312.11
226.251,322.823
227.701,319.619
229.152,326.251
230.602,321.602
232.052,300.926
233.503,317.498
234.953,318.466
236.403,319.229
237.854,319.988
239.304,319.921
240.754,319.544
242.204,316.538
243.655,313.85
245.105,307.041
246.555,297.538
248.006,300.551
249.456,301.79
250.906,306.873
252.357,312.298
253.807,311.274
255.257,291.831
256.708,296.719
258.158,301.215
259.608,303.663
261.059,305.711
262.509,312.134
263.959,285.67
265.41,282.131
266.86,282.354
268.31,284.035
269.761,303.22
271.211,293.766
272.661,289.965
274.112,283.915
275.562,280.038
277.012,290.355
278.463,289.599
279.913,291.862
281.363,289.2
282.814,285.888
284.264,289.883
285.714,279.846
287.165,282.428
288.615,285.859
290.065,280.924
291.516,265.832
292.966,275.309
294.416,285.283
295.867,279.022
297.317,270.072
298.767,270.741
300.218,266.762
301.668,269.371
303.118,270.544
304.569,260.008
306.019,243.618
307.469,258.805
308.919,252.063
310.37,253.69
311.82,252.899
313.27,247.531
314.721,247.149
316.171,246.579
317.621,248.961
319.072,242.947
320.522,237.173
321.972,248.97
323.423,248.02
324.873,239.778
326.323,239.292
327.774,244.583
329.224,247.456
330.674,238.701
332.125,246.761
333.575,247.204
335.025,240.616
336.476,232.951
337.926,232.38
339.376,231.444
340.827,234.626
342.277,236.68
343.727,237.292
345.178,241.436
346.628,228.663
348.078,234.473
349.529,246.649
350.979,252.733
352.429,243.441
353.88,229.323
355.33,236.999
356.78,241.774
358.231,242.303
359.681,241.032
361.131,235.495
362.582,226.718
364.032,222.772
365.482,225.282
366.933,229.41
368.383,224.324
369.833,222.411
371.284,219.283
372.734,219.195
374.184,219.683
375.635,218.066
377.085,231.455
378.535,237.775
379.986,227.411
381.436,219.05
382.886,224.641
384.336,229.618
385.787,224.012
387.237,219.782
388.687,221.883
390.138,227.908
391.588,230.022
393.038,226.573
394.489,217.827
395.939,222.243
397.389,228.472
398.84,222.645
400.29,213.44
401.74,227.044
403.191,219.815
404.641,218.831
406.091,226.718
407.542,214.969
408.992,220.918
410.442,227.809
411.893,229.232
413.343,228.72
414.793,229.639
416.244,219.074
417.694,227.3
419.144,227.951
420.595,220.727
422.045,214.466
423.495,223.12
424.946,221.006
426.396,218.106
427.846,212.978
429.297,216.274
430.747,230.908
432.197,214.919
433.648,223.099
435.098,220.28
436.548,214.356
437.999,212.511
439.449,215.039
440.899,206.95
442.35,217.893
443.8,217.418
445.25,212.117
446.701,215.9
448.151,226.707
449.601,225.16
451.051,223.037
452.502,221.516
453.952,216.767
455.402,205.516
456.853,218.843
458.303,215.083
459.753,215.368
461.204,215.961
462.654,213.384
464.104,214.729
465.555,211.832
467.005,215.92
468.455,220.147
469.906,216.812
471.356,206.578
472.806,223.992
474.257,226.201
475.707,221.54
477.157,220.611
478.608,225.563
480.058,228.169
481.508,207.856
482.959,217.589
484.409,219.118
485.859,218.647
487.31,222.101
488.76,212.64
490.21,224.453
491.661,230.468
493.111,222.969
494.561,210.502
496.012,207.232
497.462,218.083
498.912,210.881
500.363,214.86
501.813,216.345
503.263,212.795
504.714,213.36
506.164,220.925
507.614,218.511
509.065,216.266
510.515,216.347
511.965,215.988
513.416,209.548
514.866,214.019
516.316,218.976
517.766,219.618
519.217,217.182
520.667,214.445
522.117,213.113
523.568,217.588
525.018,213.371
526.468,210.052
527.919,209.48
529.369,212.599
530.819,228.566
532.27,213.048
533.72,217.25
535.17,216.828
536.621,213.395
538.071,220.182
539.521,222.13
540.972,216.408
542.422,219.585
543.872,216.867
545.323,212.971
546.773,222.413
548.223,217.731
549.674,216.963
551.124,220.58
552.574,222.7
554.025,221.079
555.475,218.127
556.925,216.761
558.376,215.567
559.826,212.912
561.276,212.449
562.727,212.148
564.177,205.976
565.627,213.795
567.078,210.09
568.528,204.281
569.978,203.719
571.429,207.363
572.879,206.772
574.329,213.425
575.78,206.912
577.23,211.007
578.68,215.456
580.131,215.837
581.581,221.177
583.031,209.426
584.482,215.267
585.932,214.202
587.382,212.787
588.832,213.106
590.283,206.042
591.733,206.042
593.183,210.514
594.634,218.011
596.084,213.428
597.534,199.211
598.985,197.048
600.435,199.01
601.885,210.388
603.336,213.315
604.786,215.144
606.236,217.676
607.687,214.32
609.137,212.553
610.587,215.053
612.038,219.254
613.488,219.429
614.938,217.614
616.389,219.793
617.839,215.076
619.289,220.755
620.74,212.397
622.19,210.701
623.64,213.604
625.091,206.569
626.541,205.388
627.991,213.063
629.442,221.885
630.892,223.194
632.342,217.329
633.793,210.559
635.243,209.574
636.693,221.868
638.144,220.905
639.594,215.729
641.044,214.188
642.495,218.922
643.945,224.31
645.395,207.943
646.846,220.428
648.296,226.203
649.746,225.595
651.197,224.563
652.647,222.08
654.097,222.869
655.547,226.817
656.998,227.021
658.448,223.325
659.898,220.003
661.349,221.211
662.799,218.643
664.249,224.83
665.7,226.631
667.15,222.803
668.6,223.715
670.051,233.854
671.501,228.122
672.951,226.342
674.402,228.59
675.852,230.764
677.302,226.413
678.753,219.514
680.203,226.903
681.653,229.678
683.104,232.276
684.554,226.724
686.004,226.494
687.455,229.805
688.905,224.24
690.355,228.402
691.806,235.595
693.256,228.747
694.706,231.091
696.157,235.128
697.607,230.952
699.057,239.126
700.508,230.386
701.958,226.876
703.408,227.069
704.859,227.987
706.309,225.331
707.759,219.039
709.21,235.72
710.66,234.778
712.11,231.993
713.561,229.125
715.011,229.119
716.461,232.59
717.912,232.451
719.362,226.878
720.812,238.944
722.263,240.933
723.713,241.155
725.163,240.528
726.613,227.764
728.064,230.549
729.514,226.017
730.964,228.635
732.415,237.915
733.865,238.505
735.315,227.883
736.766,237.685
738.216,236.089
739.666,232.071
741.117,234.288
742.567,239.065
744.017,241.122
745.468,237.277
746.918,226.695
748.368,227.654
749.819,232.856
751.269,248.17
752.719,250.369
754.17,237.477
755.62,245.205
757.07,254.2
758.521,249.392
759.971,240.567
761.421,232.249
762.872,234.91
764.322,246.262
765.772,234.987
767.223,230.786
768.673,243.812
770.123,242.583
771.574,233.347
773.024,232.451
774.474,244.435
775.925,238.233
777.375,248.851
778.825,240.73
780.276,241.174
781.726,242.587
783.176,242.007
784.627,248.362
786.077,241.744
787.527,251.783
788.978,248.4
790.428,245.123
791.878,244.12
793.328,244.296
794.779,247.288
796.229,248.493
797.68,240.092
799.13,240.46
800.58,245.953
802.03,251.781
803.481,250.756
804.931,236.527
806.381,241.148
807.832,249.101
809.282,252.51
810.732,251.275
812.183,248.689
813.633,245.36
815.083,237.392
816.534,244.836
817.984,238.559
819.434,249.572
820.885,253.554
822.335,251.288
823.785,256.594
825.236,266.91
826.686,257.644
828.136,262.457
829.587,273.186
831.037,268.312
832.487,259.203
833.938,258.582
835.388,249.299
836.838,270.473
838.289,262.525
839.739,256.065
841.189,253.498
842.64,255.997
844.09,259.6
845.54,254.736
846.991,265.638
848.441,258.175
849.891,269.981
851.342,267.027
852.792,253.422
854.242,250.803
855.693,262.479
857.143,248.331
858.593,265.894
860.044,273.776
861.494,277.741
862.944,272.611
864.394,263.73
865.845,266.912
867.295,258.819
868.745,266.811
870.196,262.986
871.646,262.789
873.096,260.961
874.547,255.382
875.997,255.41
877.447,270.94
878.898,273.573
880.348,258.219
881.798,256.641
883.249,254.95
884.699,255.983
886.149,266.863
887.6,263.658
889.05,261.019
890.5,263.554
891.951,268.43
893.401,269.082
894.851,275.588
896.302,284.863
897.752,271.987
899.202,265.691
900.653,259.192
902.103,275.925
903.553,274.794
905.004,267.559
906.454,268.217
907.904,271.394
909.355,271.409
910.805,265.709
912.255,280.719
913.706,288.478
915.156,282.87
916.606,281.412
918.057,290.471
919.507,283.101
920.957,271.893
922.408,288.412
923.858,284.546
925.308,274.385
926.759,275.521
928.209,284.761
929.659,284.245
931.109,275.799
932.56,282.126
934.01,273.869
935.46,280.364
936.911,283.56
938.361,287.472
939.811,294.461
941.262,284.405
942.712,285.425
944.162,272.119
945.613,288.382
947.063,281.342
948.513,269.944
949.964,271.131
951.414,282.117
952.864,304.616
954.315,297.057
955.765,282.481
957.215,289.752
958.666,289.581
960.116,284.53
961.566,280.388
963.017,274.142
964.467,282.668
965.917,283.692
967.368,290.899
968.818,286.146
970.268,282.641
971.719,286.345
973.169,289.888
974.619,283.319
976.07,275.703
977.52,292.091
978.97,292.614
980.421,292.176
981.871,294.134
983.321,287.153
984.772,274.638
986.222,283.544
987.672,290.319
989.123,296.885
990.573,293.565
992.023,290.445
993.474,290.361
994.924,290.901
996.374,287.603
997.825,281.085
999.275,294.859
1000.73,302.56
1002.18,306.195
1003.63,307.21
1005.08,299.075
1006.53,296.248
1007.98,307.542
1009.43,311.333
1010.88,317.097
1012.33,316.965
1013.78,311.704
1015.23,306.979
1016.68,312.511
1018.13,318.767
1019.58,318.565
1021.03,323.48
1022.48,318.352
1023.93,321.445
1025.38,329.168
1026.83,329.708
1028.28,327.836
1029.73,323.457
1031.18,323.998
1032.63,340.593
1034.08,339.848
1035.53,328.083
1036.98,348.878
1038.43,347.994
1039.88,352.685
1041.33,359.298
1042.78,363.823
1044.23,370.49
1045.69,347.973
1047.14,365.957
1048.59,359.133
1050.04,358.328
1051.49,363.649
1052.94,367.75
1054.39,376.367
1055.84,386.7
1057.29,368.837
1058.74,372.769
1060.19,377.514
1061.64,379.652
1063.09,386.602
1064.54,397.265
1065.99,402.673
1067.44,404.498
1068.89,415.224
1070.34,419.323
1071.79,412.276
1073.24,412.178
1074.69,418.255
1076.14,410.774
1077.59,412.199
1079.04,431.234
1080.49,443.338
1081.94,430.841
1083.39,426.276
1084.84,437.561
1086.29,422.078
1087.74,415.717
1089.2,411.724
1090.65,413.423
1092.1,421.482
1093.55,422.576
1095,422.239
1096.45,423.071
1097.9,417.888
1099.35,415.948
1100.8,412.808
1102.25,419.172
1103.7,424.69
1105.15,418.956
1106.6,418.218
1108.05,412.519
1109.5,411.268
1110.95,422.022
1112.4,417.855
1113.85,406.475
1115.3,404.648
1116.75,410.708
1118.2,408.345
1119.65,394.01
1121.1,390.755
1122.55,396.592
1124,392.865
1125.45,395.745
1126.9,392.63
1128.35,393.321
1129.8,397.03
1131.25,391.501
1132.7,387.369
1134.16,390.681
1135.61,381.703
1137.06,381.886
1138.51,382.876
1139.96,379.505
1141.41,388.43
1142.86,392.818
1144.31,377.054
1145.76,390.553
1147.21,391.197
1148.66,393.499
1150.11,380.767
1151.56,378.272
1153.01,370.663
1154.46,373.651
1155.91,385.124
1157.36,386.485
1158.81,383.617
1160.26,374.461
1161.71,373.412
1163.16,375.608
1164.61,373.49
1166.06,375.886
1167.51,378.367
1168.96,376.065
1170.41,376.985
1171.86,387.172
1173.31,375.483
1174.76,393.518
1176.21,378.147
1177.66,383.553
1179.12,381.41
1180.57,375.263
1182.02,369.105
1183.47,371.169
1184.92,383.819
1186.37,378.969
1187.82,385.066
1189.27,376.034
1190.72,389.797
1192.17,397.619
1193.62,401.167
1195.07,399.663
1196.52,397.623
1197.97,396.396
1199.42,390.093
1200.87,400.297
1202.32,399.664
1203.77,403.03
1205.22,394.33
1206.67,394.951
1208.12,390.068
1209.57,383.818
1211.02,388.054
1212.47,398.856
1213.92,403.854
1215.37,402.216
1216.82,402.216
1218.27,400.671
1219.72,398.137
1221.17,397.719
1222.63,400.776
1224.08,398.423
1225.53,402.089
1226.98,423.528
1228.43,414.006
1229.88,395.825
1231.33,411.463
1232.78,404.283
1234.23,423.015
1235.68,420.726
1237.13,419.577
1238.58,414.692
1240.03,401.861
1241.48,409.936
1242.93,419.987
1244.38,423.009
1245.83,412.638
1247.28,416.765
1248.73,423.822
1250.18,417.951
1251.63,431.943
1253.08,451.577
1254.53,444.298
1255.98,425.703
1257.43,434.955
1258.88,453.645
1260.33,444.529
1261.78,443.605
1263.23,448.733
1264.68,451.361
1266.13,452.928
1267.59,450.372
1269.04,451.187
1270.49,463.523
1271.94,474.052
1273.39,492.558
1274.84,479.376
1276.29,487.951
1277.74,507.991
1279.19,502.977
1280.64,498.787
1282.09,503.335
1283.54,504.831
1284.99,511.02
1286.44,537.709
1287.89,544.752
1289.34,550.303
1290.79,557.963
1292.24,569.09
1293.69,575.807
1295.14,593.681
1296.59,619.428
1298.04,630.781
1299.49,634.632
1300.94,651.07
1302.39,667.718
1303.84,702.522
1305.29,694.425
1306.74,696.955
1308.19,744.396
1309.64,780.789
1311.09,794.628
1312.55,817.16
1314,840.837
1315.45,860.596
1316.9,893.422
1318.35,924.231
1319.8,980.675
1321.25,1005.44
1322.7,1034.58
1324.15,1082.57
1325.6,1106.49
1327.05,1132.61
1328.5,1159.07
1329.95,1172.78
1331.4,1173.58
1332.85,1182.69
1334.3,1216.7
1335.75,1207.81
1337.2,1192.41
1338.65,1174.69
1340.1,1173.52
1341.55,1176.61
1343,1133.1
1344.45,1105.82
1345.9,1095.28
1347.35,1061.41
1348.8,1023.53
1350.25,1019.87
1351.7,997.093
1353.15,948.526
1354.6,911.88
1356.06,880.88
1357.51,865.369
1358.96,830.3
1360.41,797.178
1361.86,776.779
1363.31,742.895
1364.76,705.264
1366.21,705.85
1367.66,699.615
1369.11,670.494
1370.56,677.587
1372.01,651.318
1373.46,648.528
1374.91,637.383
1376.36,626.241
1377.81,618.882
1379.26,613.512
1380.71,601.447
1382.16,585.441
1383.61,583.071
1385.06,584.248
1386.51,592.83
1387.96,574.33
1389.41,593.02
1390.86,585.199
1392.31,570.598
1393.76,560.885
1395.21,561.553
1396.66,558.284
1398.11,556.526
1399.56,564.833
1401.02,565.284
1402.47,575.947
1403.92,581.458
1405.37,555.131
1406.82,564.213
1408.27,556.235
1409.72,559.429
1411.17,554.86
1412.62,555.394
1414.07,564.111
1415.52,565.263
1416.97,568.963
1418.42,586.574
1419.87,572.629
1421.32,587.057
1422.77,591.806
1424.22,577.531
1425.67,589.555
1427.12,586.494
1428.57,587.331
1430.02,582.142
1431.47,582.883
1432.92,589.76
1434.37,602.951
1435.82,609.246
1437.27,585.985
1438.72,603.045
1440.17,609.625
1441.62,597.273
1443.07,643.33
1444.53,634.117
1445.98,633.853
1447.43,637.952
1448.88,636.443
1450.33,636.033
1451.78,651.044
1453.23,664.757
1454.68,665.775
1456.13,680.928
1457.58,675.248
1459.03,693.302
1460.48,689.609
1461.93,699.157
1463.38,696.985
1464.83,701.707
1466.28,730.389
1467.73,750.173
1469.18,749.967
1470.63,746.022
1472.08,756.64
1473.53,774.198
1474.98,777.672
1476.43,781.618
1477.88,793.433
1479.33,829.15
1480.78,818.907
1482.23,821.569
1483.68,869.119
1485.13,874.038
1486.58,890.394
1488.03,911.022
1489.49,908.343
1490.94,930.161
1492.39,967.556
1493.84,979.989
1495.29,1021.62
1496.74,1007.99
1498.19,1014.15
1499.64,1080.17
1501.09,1098.49
1502.54,1125.97
1503.99,1156.4
1505.44,1184.97
1506.89,1219.83
1508.34,1257.5
1509.79,1313.09
1511.24,1359.22
1512.69,1405.15
1514.14,1489.5
1515.59,1563.48
1517.04,1612.51
1518.49,1677.89
1519.94,1740.06
1521.39,1873.19
1522.84,1967.02
1524.29,2075.67
1525.74,2197.77
1527.19,2334.43
1528.64,2488.78
1530.09,2657.95
1531.54,2853.29
1532.99,3079
1534.45,3301.7
1535.9,3547.73
1537.35,3907.99
1538.8,4264.07
1540.25,4661.6
1541.7,5030.21
1543.15,5438.74
1544.6,5927.32
1546.05,6443.98
1547.5,7032.76
1548.95,7583.68
1550.4,8106.96
1551.85,8680.62
1553.3,9262.4
1554.75,9842.18
1556.2,10444.3
1557.65,10997.1
1559.1,11014.9
1560.55,11028.1
1562,11053.4
1563.45,11061
1564.9,11066.6
1566.35,11060
1567.8,11057.2
1569.25,11065.7
1570.7,11063.8
1572.15,10707.7
1573.6,10153.6
1575.05,9580.92
1576.5,9003.53
1577.96,8372.96
1579.41,7727.28
1580.86,7138.94
1582.31,6594.31
1583.76,6026.64
1585.21,5535.89
1586.66,5061.75
1588.11,4656.47
1589.56,4303.5
1591.01,3957.36
1592.46,3669.43
1593.91,3433.87
1595.36,3185.53
1596.81,2977.29
1598.26,2764.44
1599.71,2605.17
1601.16,2497.66
1602.61,2372.31
1604.06,2257.64
1605.51,2160.44
1606.96,2057.79
1608.41,1952.54
1609.86,1870.35
1611.31,1772.17
1612.76,1736.03
1614.21,1621.27
1615.66,1578.21
1617.11,1511.52
1618.56,1471.39
1620.01,1407.54
1621.46,1355.72
1622.92,1303.67
1624.37,1262.63
1625.82,1233.14
1627.27,1197.33
1628.72,1169.72
1630.17,1133.04
1631.62,1111.5
1633.07,1084.25
1634.52,1064.17
1635.97,1029.53
1637.42,1027.59
1638.87,997.948
1640.32,971.888
1641.77,967.359
1643.22,954.972
1644.67,940.359
1646.12,925.12
1647.57,921.591
1649.02,907.931
1650.47,887.686
1651.92,883.622
1653.37,881.67
1654.82,861.254
1656.27,848.872
1657.72,845.429
1659.17,828.208
1660.62,812.983
1662.07,816.429
1663.52,833.685
1664.97,825.253
1666.42,814.188
1667.88,806.99
1669.33,800.332
1670.78,789.495
1672.23,772.705
1673.68,776.949
1675.13,774.849
1676.58,773.288
1678.03,762.516
1679.48,753.029
1680.93,759.356
1682.38,757.812
1683.83,751.685
1685.28,743.762
1686.73,749.049
1688.18,747.377
1689.63,744.936
1691.08,738.197
1692.53,725.532
1693.98,724.381
1695.43,737.569
1696.88,745.705
1698.33,739.978
1699.78,741.867
1701.23,730.767
1702.68,733.359
1704.13,724.232
1705.58,731.837
1707.03,731.634
1708.48,714.838
1709.93,731.46
1711.39,731.164
1712.84,730.487
1714.29,727.312
1715.74,738.086
1717.19,746.516
1718.64,731.231
1720.09,732.48
1721.54,735.175
1722.99,716.756
1724.44,720.194
1725.89,740.46
1727.34,747.227
1728.79,747.319
1730.24,729.175
1731.69,716.887
1733.14,747.386
1734.59,723.364
1736.04,717.523
1737.49,735.642
1738.94,720.522
1740.39,718.287
1741.84,732.178
1743.29,719.605
1744.74,714.818
1746.19,702.578
1747.64,695.951
1749.09,706.322
1750.54,696.024
1751.99,694.481
1753.44,705.242
1754.89,696.308
1756.35,694.804
1757.8,711.225
1759.25,707.15
1760.7,698.444
1762.15,701.546
1763.6,685.065
1765.05,686.207
1766.5,697.163
1767.95,692.59
1769.4,672.502
1770.85,670.199
1772.3,665.025
1773.75,676.29
1775.2,671.681
1776.65,670.608
1778.1,671.855
1779.55,675.752
1781,671.483
1782.45,673.959
1783.9,671.269
1785.35,680.072
1786.8,682.487
1788.25,679.603
1789.7,673.044
1791.15,670.843
1792.6,680.333
1794.05,678.258
1795.5,674.738
1796.95,672.067
1798.4,675.654
1799.85,682.901
1801.31,663.276
1802.76,663.248
1804.21,649.47
1805.66,668.95
1807.11,636.014
1808.56,649.859
1810.01,656.508
1811.46,657.346
1812.91,640.947
1814.36,661.716
1815.81,675.422
1817.26,681.141
1818.71,680.473
1820.16,672.052
1821.61,665.627
1823.06,657.667
1824.51,663.644
1825.96,665.479
1827.41,658.702
1828.86,669.859
1830.31,675.322
1831.76,669.822
1833.21,676.06
1834.66,667.469
1836.11,667.243
1837.56,659.002
1839.01,679.654
1840.46,695.012
1841.91,665.835
1843.36,674.381
1844.82,685.691
1846.27,675.491
1847.72,684.745
1849.17,690.874
1850.62,684.678
1852.07,686.645
1853.52,701.945
1854.97,702.464
1856.42,689.608
1857.87,684.014
1859.32,704.228
1860.77,713.122
1862.22,704.552
1863.67,695.144
1865.12,699.118
1866.57,702.1
1868.02,694.294
1869.47,682.36
1870.92,676.418
1872.37,686.108
1873.82,695.177
1875.27,688.033
1876.72,679.056
1878.17,686.261
1879.62,679.6
1881.07,673.969
1882.52,665.94
1883.97,667.716
1885.42,668.393
1886.87,674.383
1888.32,672.053
1889.78,663.307
1891.23,669.238
1892.68,666.232
1894.13,671.266
1895.58,666.256
1897.03,673.105
1898.48,672.136
1899.93,655.975
1901.38,658.059
1902.83,653.03
1904.28,648.593
1905.73,652.64
1907.18,662.784
1908.63,662.717
1910.08,655.543
1911.53,644.885
1912.98,635.456
1914.43,642.352
1915.88,647.595
1917.33,636.228
1918.78,636.497
1920.23,648.644
1921.68,649.766
1923.13,648.656
1924.58,646.598
1926.03,640.488
1927.48,642.511
1928.93,650.002
1930.38,646.626
1931.83,643.839
1933.29,625.839
1934.74,645.537
1936.19,650.219
1937.64,625.025
1939.09,635.797
1940.54,629.268
1941.99,643.845
1943.44,645.42
1944.89,646.116
1946.34,647.494
1947.79,632.766
1949.24,646.422
1950.69,635.807
1952.14,652.543
1953.59,656.205
1955.04,643.995
1956.49,652.436
1957.94,648.65
1959.39,640.036
1960.84,647.691
1962.29,645.29
1963.74,651.21
1965.19,655.584
1966.64,654.913
1968.09,666.697
1969.54,673.188
1970.99,674.68
1972.44,678.036
1973.89,664.925
1975.34,665.107
1976.79,672.087
1978.25,670.866
1979.7,662.486
1981.15,663.592
1982.6,668.749
1984.05,661.748
1985.5,667.604
1986.95,662.855
1988.4,654.3
1989.85,671.892
1991.3,666.455
1992.75,666.88
1994.2,669.513
1995.65,673.836
1997.1,675.987
1998.55,670.605
2000,664.509
2001.45,676.286
2002.9,668.427
2004.35,663.082
2005.8,667.027
2007.25,672.59
2008.7,676.327
2010.15,677.271
2011.6,680.947
2013.05,659.328
2014.5,654.66
2015.95,663.914
2017.4,655.543
2018.85,640.112
2020.3,663.465
2021.75,665.974
2023.21,644.053
2024.66,661.003
2026.11,653.181
2027.56,662.233
2029.01,665.53
2030.46,648.589
2031.91,650.219
2033.36,639.936
2034.81,647.364
2036.26,659.182
2037.71,651.897
2039.16,652.926
2040.61,660.613
2042.06,642.145
2043.51,629.783
2044.96,638.826
2046.41,620.378
2047.86,630.523
2049.31,638.99
2050.76,630.726
2052.21,629.419
2053.66,644.681
2055.11,648.319
2056.56,634.286
2058.01,628.694
2059.46,641.854
2060.91,643.366
2062.36,634.916
2063.81,628.141
2065.26,620.862
2066.72,623.289
2068.17,632.785
2069.62,615.093
2071.07,617.879
2072.52,636.1
2073.97,634.676
2075.42,629.187
2076.87,630.569
2078.32,627.783
2079.77,616.25
2081.22,625.079
2082.67,636.071
2084.12,633.157
2085.57,618.815
2087.02,619.768
2088.47,607.763
2089.92,606.97
2091.37,612.738
2092.82,623.339
2094.27,639.033
2095.72,630.192
2097.17,624.819
2098.62,627.022
2100.07,618.295
2101.52,610.76
2102.97,616.792
2104.42,610.701
2105.87,621.081
2107.32,625.338
2108.77,628.104
2110.22,629.373
2111.68,634.206
2113.13,626.39
2114.58,622.518
2116.03,633.132
2117.48,633.528
2118.93,623.456
2120.38,635.066
2121.83,634.307
2123.28,615.869
2124.73,627.156
2126.18,634.967
2127.63,630.453
2129.08,632.769
2130.53,637.452
2131.98,641.792
2133.43,641.357
2134.88,641.305
2136.33,637.365
2137.78,642.722
2139.23,642.501
2140.68,641.562
2142.13,635.291
2143.58,634.262
2145.03,655.32
2146.48,656.512
2147.93,648.732
2149.38,640.077
2150.83,641.44
2152.28,651.201
2153.73,651.672
2155.18,643.71
2156.64,647.507
2158.09,648.294
2159.54,646.044
2160.99,653.72
2162.44,654.802
2163.89,655.471
2165.34,649.581
2166.79,653.755
2168.24,674.214
2169.69,668.712
2171.14,659.881
2172.59,660.721
2174.04,662.068
2175.49,667.194
2176.94,668.939
2178.39,663.776
2179.84,664.768
2181.29,665.554
2182.74,669.679
2184.19,668.283
2185.64,663.314
2187.09,667.888
2188.54,673.664
2189.99,673.86
2191.44,669.734
2192.89,677.668
2194.34,677.371
2195.79,677.235
2197.24,683.323
2198.69,681.159
2200.15,671.238
2201.6,672.524
2203.05,672.921
2204.5,687.625
2205.95,683.968
2207.4,687.054
2208.85,680.997
2210.3,686.135
2211.75,693.123
2213.2,695.642
2214.65,689.53
2216.1,689.601
2217.55,694.908
2219,699.401
2220.45,680.816
2221.9,697.213
2223.35,706.087
2224.8,704.753
2226.25,693.118
2227.7,681.203
2229.15,702.177
2230.6,713.061
2232.05,712.595
2233.5,695.692
2234.95,700.842
2236.4,700.964
2237.85,704.061
2239.3,687.431
2240.75,692.124
2242.2,708.099
2243.65,718.046
2245.11,699.82
2246.56,716.468
2248.01,710.094
2249.46,707.996
2250.91,722.242
2252.36,714.938
2253.81,709.959
2255.26,717.968
2256.71,707.054
2258.16,714.456
2259.61,723.898
2261.06,719.102
2262.51,701.585
2263.96,721.835
2265.41,728.773
2266.86,718.485
2268.31,704.986
2269.76,716.161
2271.21,731.475
2272.66,723.501
2274.11,722.383
2275.56,711.787
2277.01,713.545
2278.46,734.573
2279.91,734.891
2281.36,748.997
2282.81,752.919
2284.26,728.345
2285.71,727.993
2287.16,739.25
2288.61,750.95
2290.07,740.156
2291.52,727.698
2292.97,744.69
2294.42,749.029
2295.87,752.309
2297.32,754.118
2298.77,735.513
2300.22,754.187
2301.67,780.475
2303.12,779.511
2304.57,768.334
2306.02,754.633
2307.47,759.496
2308.92,757.17
2310.37,767.654
2311.82,764.549
2313.27,775.342
2314.72,759.769
2316.17,783.213
2317.62,767.469
2319.07,775.97
2320.52,789.501
2321.97,778.61
2323.42,781.147
2324.87,804.676
2326.32,787.94
2327.77,790.872
2329.22,785.07
2330.67,807.276
2332.12,810.549
2333.57,813.264
2335.03,815.333
2336.48,794.947
2337.93,793.775
2339.38,810.289
2340.83,826.854
2342.28,820.671
2343.73,828.62
2345.18,820.657
2346.63,832.066
2348.08,844.724
2349.53,845.856
2350.98,843.742
2352.43,856.923
2353.88,852.208
2355.33,855.531
2356.78,857.925
2358.23,874.473
2359.68,865.583
2361.13,876.871
2362.58,901.219
2364.03,906.93
2365.48,889.107
2366.93,893.784
2368.38,915.413
2369.83,916.565
2371.28,911.574
2372.73,917.702
2374.18,946.101
2375.63,956.411
2377.08,962.227
2378.54,967.114
2379.99,967.349
2381.44,975.741
2382.89,1004.48
2384.34,1013.59
2385.79,1006.08
2387.24,1016.11
2388.69,1038.23
2390.14,1054.75
2391.59,1073.96
2393.04,1073.11
2394.49,1078.33
2395.94,1097.05
2397.39,1088.47
2398.84,1092.37
2400.29,1142.79
2401.74,1163.84
2403.19,1168.9
2404.64,1174.27
2406.09,1177.3
2407.54,1210.43
2408.99,1198.47
2410.44,1208.43
2411.89,1204.36
2413.34,1235.33
2414.79,1249.97
2416.24,1228.02
2417.69,1257.81
2419.14,1251.22
2420.59,1262.72
2422.04,1270.49
2423.5,1264.31
2424.95,1276.91
2426.4,1286.88
2427.85,1285.35
2429.3,1268.14
2430.75,1265.26
2432.2,1252.56
2433.65,1259.91
2435.1,1264.79
2436.55,1275.45
2438,1243.36
2439.45,1251.22
2440.9,1255.01
2442.35,1250.73
2443.8,1228.84
2445.25,1222.86
2446.7,1241.68
2448.15,1225.7
2449.6,1218.91
2451.05,1225.99
2452.5,1207.97
2453.95,1216.18
2455.4,1207.03
2456.85,1196.81
2458.3,1177.43
2459.75,1149.4
2461.2,1158.27
2462.65,1158.84
2464.1,1164.62
2465.55,1173.88
2467.01,1183.9
2468.46,1153.7
2469.91,1181.82
2471.36,1178.51
2472.81,1160.85
2474.26,1151.67
2475.71,1145.64
2477.16,1173.57
2478.61,1164.42
2480.06,1156.71
2481.51,1162.67
2482.96,1142.56
2484.41,1157.84
2485.86,1151.31
2487.31,1156.71
2488.76,1155.95
2490.21,1159.55
2491.66,1150.42
2493.11,1158.57
2494.56,1183.69
2496.01,1169.51
2497.46,1174.05
2498.91,1171.94
2500.36,1194.04
2501.81,1186.72
2503.26,1182.26
2504.71,1202.8
2506.16,1212.57
2507.61,1198.57
2509.06,1210.54
2510.51,1211.13
2511.97,1204.39
2513.42,1189.11
2514.87,1226.53
2516.32,1225.64
2517.77,1217.79
2519.22,1234.89
2520.67,1238.69
2522.12,1236.6
2523.57,1257.94
2525.02,1293.62
2526.47,1303.71
2527.92,1306.47
2529.37,1308.75
2530.82,1336.59
2532.27,1347.04
2533.72,1344.81
2535.17,1356.41
2536.62,1360.59
2538.07,1389.94
2539.52,1377.63
2540.97,1406.55
2542.42,1422.71
2543.87,1425.07
2545.32,1456.51
2546.77,1450.46
2548.22,1492.07
2549.67,1528.14
2551.12,1543.43
2552.57,1553.9
2554.02,1555.61
2555.48,1563.67
2556.93,1594.96
2558.38,1632.59
2559.83,1652.26
2561.28,1672.12
2562.73,1696.47
2564.18,1757.5
2565.63,1764.75
2567.08,1810.87
2568.53,1828.12
2569.98,1910.91
2571.43,1944.18
2572.88,1971.09
2574.33,2003.74
2575.78,2051.23
2577.23,2088.92
2578.68,2132.27
2580.13,2185.51
2581.58,2213.03
2583.03,2241.93
2584.48,2318.84
2585.93,2377.91
2587.38,2428.6
2588.83,2531.8
2590.28,2566.47
2591.73,2617.07
2593.18,2718.95
2594.63,2816.72
2596.08,2881.68
2597.53,2973.12
2598.98,3095.28
2600.44,3181.87
2601.89,3269.75
2603.34,3384.22
2604.79,3503.22
2606.24,3585.36
2607.69,3723.23
2609.14,3844.18
2610.59,3991.09
2612.04,4100.21
2613.49,4285.98
2614.94,4379.53
2616.39,4502.76
2617.84,4723.22
2619.29,4853.87
2620.74,5023.54
2622.19,5233.5
2623.64,5406.23
2625.09,5544.22
2626.54,5713.14
2627.99,5884.77
2629.44,6087.08
2630.89,6219.21
2632.34,6399.55
2633.79,6603.37
2635.24,6787.05
2636.69,6983.27
2638.14,7120.32
2639.59,7253.65
2641.04,7437.59
2642.49,7606.4
2643.94,7720.09
2645.4,7837.51
2646.85,7921.61
2648.3,8026.76
2649.75,8089.54
2651.2,8139.28
2652.65,8168.93
2654.1,8114.8
2655.55,8132.01
2657,8170.35
2658.45,8104.93
2659.9,8086.08
2661.35,8054.32
2662.8,7977.42
2664.25,7834.72
2665.7,7713.53
2667.15,7620.95
2668.6,7487.66
2670.05,7270.09
2671.5,7073.02
2672.95,6996.89
2674.4,6747.34
2675.85,6635.26
2677.3,6420.11
2678.75,6225.39
2680.2,6045.85
2681.65,5814.16
2683.1,5657.74
2684.55,5492.45
2686,5338.13
2687.45,5144.19
2688.91,4917.87
2690.36,4749.5
2691.81,4545.79
2693.26,4374.52
2694.71,4229.67
2696.16,4083.61
2697.61,3869.06
2699.06,3795.24
2700.51,3690.55
2701.96,3557.16
2703.41,3417.17
2704.86,3282.23
2706.31,3160.39
2707.76,3054.01
2709.21,2937.58
2710.66,2813.95
2712.11,2721.32
2713.56,2645.08
2715.01,2563
2716.46,2551.39
2717.91,2428.02
2719.36,2371.55
2720.81,2290.4
2722.26,2193.75
2723.71,2167.23
2725.16,2125.22
2726.61,2050.03
2728.06,2005.73
2729.51,1988.43
2730.96,1908.61
2732.41,1891.7
2733.87,1844.33
2735.32,1776.33
2736.77,1756.21
2738.22,1716.67
2739.67,1701.67
2741.12,1662.74
2742.57,1637.42
2744.02,1627.82
2745.47,1551.62
2746.92,1556.39
2748.37,1523.7
2749.82,1516.38
2751.27,1482.97
2752.72,1451.94
2754.17,1460.89
2755.62,1414.8
2757.07,1383.72
2758.52,1385.91
2759.97,1367.7
2761.42,1353.51
2762.87,1355.62
2764.32,1315.09
2765.77,1313.26
2767.22,1314.04
2768.67,1287
2770.12,1271.57
2771.57,1273.72
2773.02,1251.57
2774.47,1250.24
2775.92,1235.83
2777.38,1230.07
2778.83,1218.07
2780.28,1205.52
2781.73,1189.87
2783.18,1163.21
2784.63,1194.16
2786.08,1155.17
2787.53,1161.04
2788.98,1154.8
2790.43,1139.1
2791.88,1140.4
2793.33,1133.27
2794.78,1108.91
2796.23,1123.92
2797.68,1102.99
2799.13,1122.58
2800.58,1099.24
2802.03,1090.5
2803.48,1075.74
2804.93,1103.11
2806.38,1092.84
2807.83,1071.59
2809.28,1065.93
2810.73,1067.26
2812.18,1051.93
2813.63,1066.89
2815.08,1050.15
2816.53,1051.06
2817.98,1047.99
2819.43,1052.97
2820.88,1048.58
2822.33,1033.42
2823.79,1020.58
2825.24,1030
2826.69,1034.5
2828.14,1030.64
2829.59,1017.68
2831.04,1022.88
2832.49,1001.14
2833.94,1003.98
2835.39,1017.96
2836.84,1007.16
2838.29,982.987
2839.74,976.85
2841.19,983.372
2842.64,1000.37
2844.09,996.172
2845.54,987.422
2846.99,963.355
2848.44,1002.02
2849.89,989.368
2851.34,986.934
2852.79,990.937
2854.24,988.156
2855.69,982.78
2857.14,981.098
2858.59,982.865
2860.04,961.504
2861.49,1001.39
2862.94,960.968
2864.39,970.272
2865.84,986.624
2867.3,990.101
2868.75,973.223
2870.2,971.409
2871.65,968.12
2873.1,962.528
2874.55,954.362
2876,951.26
2877.45,972.959
2878.9,977.856
2880.35,946.872
2881.8,950.377
2883.25,966.879
2884.7,970.422
2886.15,967.293
2887.6,962.472
2889.05,968.016
2890.5,974.811
2891.95,961.448
2893.4,963.703
2894.85,956.796
2896.3,960.743
2897.75,960.207
2899.2,961.852
2900.65,963.703
2902.1,961.945
2903.55,946.853
2905,952.914
2906.45,959.756
2907.9,952.135
2909.35,947.351
2910.8,942.446
2912.26,931.14
2913.71,940.895
2915.16,930.629
2916.61,936.263
2918.06,916.712
2919.51,940.359
2920.96,929.14
2922.41,941.882
2923.86,929.345
2925.31,922.032
2926.76,931.221
2928.21,925.923
2929.66,919.286
2931.11,911.187
2932.56,911.242
2934.01,909.615
2935.46,891.613
2936.91,890.141
2938.36,890.632
2939.81,889.233
2941.26,883.919
2942.71,879.677
2944.16,892.267
2945.61,889.467
2947.06,873.328
2948.51,873.072
2949.96,864.139
2951.41,871.942
2952.86,877.02
2954.31,872.698
2955.77,853.953
2957.22,852.804
2958.67,842.599
2960.12,859.481
2961.57,836.409
2963.02,850.605
2964.47,846.204
2965.92,849.515
2967.37,843.388
2968.82,843.2
2970.27,839.697
2971.72,839.583
2973.17,829.68
2974.62,828.191
2976.07,821.319
2977.52,817.515
2978.97,819.366
2980.42,825.579
2981.87,818.144
2983.32,819.145
2984.77,814.935
2986.22,818.555
2987.67,817.013
2989.12,829.308
2990.57,818.489
2992.02,821.1
2993.47,821.582
2994.92,822.531
2996.37,812.736
2997.82,822.646
2999.27,829.46
3000.73,809.638
3002.18,817.277
3003.63,796.781
3005.08,818.251
3006.53,820.468
3007.98,817.015
3009.43,818.287
3010.88,810.415
3012.33,801.986
3013.78,791.807
3015.23,801.124
3016.68,809.033
3018.13,817.477
3019.58,790.945
3021.03,790.46
3022.48,795.37
3023.93,804.335
3025.38,809.798
3026.83,814.504
3028.28,812.853
3029.73,818.365
3031.18,809.036
3032.63,799.273
3034.08,819.027
3035.53,799.276
3036.98,806.162
3038.43,786.359
3039.88,798.926
3041.33,832.37
3042.78,828.654
3044.23,810.532
3045.69,810.463
3047.14,804.716
3048.59,800.658
3050.04,808.007
3051.49,787.586
3052.94,807.02
3054.39,810.187
3055.84,795.591
3057.29,812.397
3058.74,816.826
3060.19,838.784
3061.64,821.933
3063.09,833.842
3064.54,826.217
3065.99,820.462
3067.44,827.04
3068.89,836.196
3070.34,835.093
3071.79,821.454
3073.24,838.085
3074.69,845.897
3076.14,852.626
3077.59,852.206
3079.04,863.496
3080.49,872.428
3081.94,871.472
3083.39,841.974
3084.84,866.324
3086.29,887.6
3087.74,866.725
3089.2,882.622
3090.65,894.127
3092.1,914.126
3093.55,903.096
3095,906.746
3096.45,906.999
3097.9,913.955
3099.35,909.681
3100.8,914.918
3102.25,937.875
3103.7,926.353
3105.15,960.978
3106.6,967.678
3108.05,967.18
3109.5,963.994
3110.95,979.058
3112.4,989.885
3113.85,999.31
3115.3,968.026
3116.75,996.191
3118.2,1032.01
3119.65,1024.26
3121.1,1040.69
3122.55,1057.74
3124,1051.99
3125.45,1051.76
3126.9,1070.79
3128.35,1072.89
3129.8,1060.23
3131.25,1081.54
3132.7,1083.15
3134.16,1075.75
3135.61,1084.22
3137.06,1071.29
3138.51,1078.78
3139.96,1111.98
3141.41,1115.92
3142.86,1117
3144.31,1119.17
3145.76,1105.99
3147.21,1116.81
3148.66,1149.91
3150.11,1139.89
3151.56,1127.12
3153.01,1128.87
3154.46,1137.3
3155.91,1122.19
3157.36,1149.25
3158.81,1142.32
3160.26,1155.72
3161.71,1150.52
3163.16,1143.05
3164.61,1155.96
3166.06,1146.81
3167.51,1157.58
3168.96,1162.47
3170.41,1189.79
3171.86,1207.65
3173.31,1191.41
3174.76,1196.62
3176.21,1201.36
3177.67,1201.24
3179.12,1226.31
3180.57,1216.83
3182.02,1219.32
3183.47,1238.54
3184.92,1242.96
3186.37,1252.7
3187.82,1250.65
3189.27,1237.55
3190.72,1246.02
3192.17,1246.19
3193.62,1244.93
3195.07,1238.29
3196.52,1233.44
3197.97,1235.56
3199.42,1232.2
3200.87,1208.75
3202.32,1229.31
3203.77,1198.89
3205.22,1179.37
3206.67,1164.33
3208.12,1212.89
3209.57,1174.4
3211.02,1148.43
3212.47,1136.37
3213.92,1142.21
3215.37,1132.01
3216.82,1114.64
3218.27,1119.88
3219.72,1098.61
3221.17,1085.91
3222.63,1074.9
3224.08,1072.04
3225.53,1053.65
3226.98,1024.4
3228.43,1021.46
3229.88,1007
3231.33,991.266
3232.78,966.438
3234.23,960.752
3235.68,941.374
3237.13,906.288
3238.58,935.878
3240.03,936.464
3241.48,915.82
3242.93,899.315
3244.38,890.732
3245.83,869.113
3247.28,861.18
3248.73,859.113
3250.18,870.423
3251.63,856.269
3253.08,840.34
3254.53,837.946
3255.98,817.885
3257.43,811.55
3258.88,821.918
3260.33,807.228
3261.78,824.806
3263.23,816.909
3264.68,794.53
3266.13,812.415
3267.59,829.397
3269.04,806.326
3270.49,796.61
3271.94,811.644
3273.39,790.186
3274.84,780.215
3276.29,811.445
3277.74,777.534
3279.19,782.083
3280.64,798.913
3282.09,796.956
3283.54,791.462
3284.99,775.96
3286.44,781.865
3287.89,787.024
3289.34,766.647
3290.79,780.175
3292.24,784.402
3293.69,782.644
3295.14,781.211
3296.59,779.663
3298.04,770.713
3299.49,781.484
3300.94,779.059
3302.39,796.747
3303.84,775.539
3305.29,772.685
3306.74,782.171
3308.19,776.794
3309.64,778.403
3311.09,786.575
3312.55,782.684
3314,797.747
3315.45,785.606
3316.9,779.141
3318.35,773.812
3319.8,768.764
3321.25,781.69
3322.7,771.152
3324.15,771.278
3325.6,788.914
3327.05,788.993
3328.5,769.684
3329.95,776.792
3331.4,794.054
3332.85,776.284
3334.3,775.6
3335.75,769.696
3337.2,774.225
3338.65,764.704
3340.1,781.675
3341.55,768.685
3343,769.84
3344.45,767.404
3345.9,772.135
3347.35,735.72
3348.8,774.184
3350.25,778.677
3351.7,786.664
3353.15,786.35
3354.6,777.969
3356.06,772.789
3357.51,787.058
3358.96,754.142
3360.41,761.574
3361.86,766.129
3363.31,777.263
3364.76,756.415
3366.21,769.092
3367.66,788.628
3369.11,785.18
3370.56,780.622
3372.01,782.747
3373.46,761.21
3374.91,788.526
3376.36,791.258
3377.81,780.875
3379.26,766.343
3380.71,791.776
3382.16,798.184
3383.61,786.197
3385.06,779.956
3386.51,771.755
3387.96,782.127
3389.41,800.638
3390.86,798.745
3392.31,772.437
3393.76,780.578
3395.21,787.946
3396.66,762.732
3398.11,787.618
3399.56,784.48
3401.02,785.31
3402.47,784.514
3403.92,775.045
3405.37,787.457
3406.82,768.698
3408.27,796.484
3409.72,782.249
3411.17,785.453
3412.62,770.842
3414.07,793.324
3415.52,770.118
3416.97,790.363
3418.42,789.246
3419.87,782.514
3421.32,778.615
3422.77,777.939
3424.22,787.169
3425.67,802.988
3427.12,811.708
3428.57,787.978
3430.02,791.772
3431.47,786.77
3432.92,772.238
3434.37,783.995
3435.82,794.873
3437.27,796.243
3438.72,800.557
3440.17,783.174
3441.62,787.587
3443.07,791.163
3444.52,799.761
3445.98,789.758
3447.43,767.239
3448.88,775.404
3450.33,780.768
3451.78,787.469
3453.23,801.952
3454.68,785.459
3456.13,790.022
3457.58,809.915
3459.03,789.869
3460.48,785.266
3461.93,787.053
3463.38,780.28
3464.83,796.145
3466.28,795.667
3467.73,776.97
3469.18,802.218
3470.63,794.615
3472.08,791.156
3473.53,786.713
3474.98,793.575
3476.43,770.489
3477.88,807.381
3479.33,797.702
3480.78,795.268
3482.23,803.857
3483.68,799.285
3485.13,791.442
3486.58,797.148
3488.03,786.433
3489.49,786.263
3490.94,787.644
3492.39,788.898
3493.84,800.759
3495.29,786.978
3496.74,797.215
3498.19,786.078
3499.64,814.072
3501.09,786.598
3502.54,812.911
3503.99,802.921
3505.44,789.283
3506.89,808.224
3508.34,805.81
3509.79,818.813
3511.24,814.434
3512.69,813.252
3514.14,802.909
3515.59,810.775
3517.04,836.18
3518.49,816.259
3519.94,802.815
3521.39,787.052
3522.84,823.222
3524.29,805.512
3525.74,796.108
3527.19,816.305
3528.64,807.585
3530.09,812.916
3531.54,794.667
3532.99,796.957
3534.45,805.994
3535.9,825.112
3537.35,804.302
3538.8,804.611
3540.25,790.577
3541.7,793.523
3543.15,797.987
3544.6,804.172
3546.05,827.024
3547.5,818.109
3548.95,824.797
3550.4,820.371
3551.85,820.375
3553.3,794.372
3554.75,800.492
3556.2,801.538
3557.65,816.703
3559.1,808.997
3560.55,804.744
3562,794.69
3563.45,822.607
3564.9,820.398
3566.35,805.181
3567.8,824.221
3569.25,809.762
3570.7,819.017
3572.15,821.041
3573.6,824.381
3575.05,819.585
3576.5,796.428
3577.96,793.994
3579.41,814.152
3580.86,807.653
3582.31,818.673
3583.76,825.226
3585.21,823.301
3586.66,816.525
3588.11,829.128
3589.56,812.383
3591.01,826.203
3592.46,835.694
3593.91,813.571
3595.36,816.396
3596.81,828.625
3598.26,824.231
3599.71,809.428
3601.16,820.818
3602.61,830.201
3604.06,819.907
3605.51,818.142
3606.96,816.721
3608.41,829.32
3609.86,822.165
3611.31,832.012
3612.76,813.486
3614.21,812.481
3615.66,845.376
3617.11,819.851
3618.56,829.26
3620.01,822.45
3621.46,832.095
3622.92,830.941
3624.37,831.501
3625.82,831.72
3627.27,834.7
3628.72,810.03
3630.17,822.414
3631.62,833.91
3633.07,816.058
3634.52,832.091
3635.97,833.882
3637.42,831.924
3638.87,838.772
3640.32,815.988
3641.77,849.182
3643.22,850.827
3644.67,837.718
3646.12,838.234
3647.57,840.793
3649.02,836.689
3650.47,846.481
3651.92,839.588
3653.37,847.686
3654.82,843.188
3656.27,838.917
3657.72,835.377
3659.17,847.778
3660.62,854.449
3662.07,846.462
3663.52,844.207
3664.97,848.124
3666.43,842.93
3667.88,858.408
3669.33,833.023
3670.78,837.019
3672.23,846.623
3673.68,854.891
3675.13,855.008
3676.58,858.334
3678.03,845.29
3679.48,858.476
3680.93,864.551
3682.38,845.854
3683.83,844.849
3685.28,843.356
3686.73,863.127
3688.18,856.132
3689.63,858.103
3691.08,850.155
3692.53,863.481
3693.98,854.03
3695.43,862.521
3696.88,853.675
3698.33,843.966
3699.78,844.047
3701.23,854.526
3702.68,858.069
3704.13,873.544
3705.58,857.901
3707.03,873.384
3708.48,856.891
3709.93,852.961
3711.39,862.716
3712.84,840.856
3714.29,868.659
3715.74,860.367
3717.19,862.377
3718.64,868.01
3720.09,861.737
3721.54,861.344
3722.99,861.325
3724.44,865.857
3725.89,856.179
3727.34,845.88
3728.79,848.867
3730.24,845.328
3731.69,871.075
3733.14,867.901
3734.59,870.488
3736.04,859.483
3737.49,862.464
3738.94,873.009
3740.39,888.185
3741.84,858.697
3743.29,884.256
3744.74,892.064
3746.19,867.541
3747.64,877.946
3749.09,886.185
3750.54,863.755
3751.99,867.83
3753.44,873.33
3754.89,875.37
3756.35,884.095
3757.8,879.803
3759.25,879.256
3760.7,879.976
3762.15,876.916
3763.6,866.786
3765.05,882.706
3766.5,882.17
3767.95,887.271
3769.4,884.203
3770.85,881.227
3772.3,873.266
3773.75,874.777
3775.2,881.312
3776.65,878.455
3778.1,891.885
3779.55,879.269
3781,893.252
3782.45,903.957
3783.9,887.919
3785.35,874.531
3786.8,907.987
3788.25,874.222
3789.7,891.406
3791.15,877.237
3792.6,904.284
3794.05,886.274
3795.5,874.744
3796.95,881.861
3798.4,872.385
3799.85,892.516
3801.31,893
3802.76,875.019
3804.21,914.315
3805.66,910.817
3807.11,911.516
3808.56,902.811
3810.01,910.593
3811.46,916.92
3812.91,914.947
3814.36,901.388
3815.81,902.091
3817.26,906.244
3818.71,905.586
3820.16,914.805
3821.61,917.037
3823.06,900.071
3824.51,894.508
3825.96,912.197
3827.41,912.994
3828.86,911.446
3830.31,920.425
3831.76,911.703
3833.21,917.316
3834.66,931.027
3836.11,928.906
3837.56,923.2
3839.01,916.941
3840.46,917.316
3841.91,909.27
3843.36,907.713
3844.82,882.075
3846.27,913.935
3847.72,925.744
3849.17,923.649
3850.62,939.444
3852.07,928.232
3853.52,923.198
3854.97,924.558
3856.42,923.383
3857.87,923.211
3859.32,932.574
3860.77,928.34
3862.22,926.724
3863.67,937.64
3865.12,935.727
3866.57,926.835
3868.02,927.113
3869.47,947.483
3870.92,926.464
3872.37,921.721
3873.82,936.392
3875.27,955.273
3876.72,965.385
3878.17,961.015
3879.62,936.172
3881.07,941.891
3882.52,941.186
3883.97,943.752
3885.42,954.315
3886.87,953.525
3888.32,961.56
3889.78,947.539
3891.23,955.865
3892.68,951.345
3894.13,949.231
3895.58,956.946
3897.03,968.89
3898.48,970.901
3899.93,978.185
3901.38,973.176
3902.83,953.648
3904.28,975.177
3905.73,977.508
3907.18,978.551
3908.63,961.213
3910.08,973.166
3911.53,969.539
3912.98,985.374
3914.43,977.16
3915.88,978.729
3917.33,968.129
3918.78,960.818
3920.23,980.139
3921.68,986.313
3923.13,999.545
3924.58,982.385
3926.03,990.777
3927.48,986.765
3928.93,1021.24
3930.38,985.862
3931.83,990.674
3933.28,994.978
3934.74,999.884
3936.19,1017.33
3937.64,1006.07
3939.09,990.561
3940.54,1017.97
3941.99,1006.87
3943.44,999.62
3944.89,1004.26
3946.34,1014.55
3947.79,1025.43
3949.24,1017.95
3950.69,1021.31
3952.14,1027.35
3953.59,1032.85
3955.04,1036.21
3956.49,1006.1
3957.94,1040.47
3959.39,1017.03
3960.84,1014.45
3962.29,1022.63
3963.74,1017.48
3965.19,1009.19
3966.64,1047.82
3968.09,1023.83
3969.54,1043.19
3970.99,1018.98
3972.44,1039.09
3973.89,1035.57
3975.34,1058.55
3976.79,1053.14
3978.25,1059.99
3979.7,1057.4
3981.15,1046.5
3982.6,1052.68
3984.05,1062.43
3985.5,1067.15
3986.95,1081.19
3988.4,1063.2
3989.85,1067.88
3991.3,1063.64
3992.75,1070.51
3994.2,1083.43
3995.65,1060.67
3997.1,1113.88
3998.55,1068.11
4000,1070.4
