0,4.64757
1.45033,4.64757
2.90065,4.64757
4.35098,4.64757
5.80131,4.64757
7.25163,4.64757
8.70196,19.4434
10.1523,8.52914
11.6026,6.72069
13.0529,7.46161
14.5033,8.34328
15.9536,7.56148
17.4039,3.03242
18.8542,0.259347
20.3046,0.204437
21.7549,1.80501
23.2052,3.73244
24.6555,3.50582
26.1059,2.50153
27.5562,0.709799
29.0065,0.165353
30.4569,3.42379
31.9072,1.60931
33.3575,1.49828
34.8078,1.30681
36.2582,0.713736
37.7085,1.39457
39.1588,0.19088
40.6091,1.47407
42.0595,4.11413
43.5098,6.45685
44.9601,7.36535
46.4104,6.96505
47.8608,10.7735
49.3111,18.8343
50.7614,28.4198
52.2117,70.6982
53.6621,137.407
55.1124,237.717
56.5627,373.216
58.0131,534.468
59.4634,692.448
60.9137,834.077
62.364,933.323
63.8144,978.006
65.2647,1059.95
66.715,1095.1
68.1653,1125.53
69.6157,1159.97
71.066,1192.67
72.5163,1207.01
73.9666,1202.79
75.417,1192.06
76.8673,1193.34
78.3176,1243.48
79.7679,1252.98
81.2183,1273.46
82.6686,1309.24
84.1189,1355.3
85.5693,1385.63
87.0196,1394.16
88.4699,1393.04
89.9202,1363.44
91.3706,1280.55
92.8209,1212.06
94.2712,1149.4
95.7215,1079.97
97.1719,1016.55
98.6222,998.281
100.073,962.673
101.523,921.25
102.973,883.517
104.423,854.528
105.874,831.21
107.324,812.033
108.774,802.793
110.225,788.586
111.675,761.364
113.125,767.312
114.576,779.257
116.026,772.516
117.476,748.354
118.927,719.433
120.377,727.456
121.827,712.37
123.278,703.917
124.728,703.484
126.178,692.716
127.629,677.606
129.079,661.976
130.529,651.553
131.98,645.321
133.43,632.023
134.88,615.9
136.331,595.061
137.781,585.606
139.231,588.86
140.682,562.702
142.132,569.62
143.582,558.742
145.033,540.563
146.483,529.371
147.933,511.918
149.384,527.009
150.834,522.291
152.284,503.88
153.735,494.323
155.185,515.007
156.635,497.589
158.086,490.948
159.536,500.14
160.986,510.828
162.437,509.219
163.887,491.488
165.337,470.973
166.788,454.874
168.238,446.959
169.688,449.033
171.139,439.069
172.589,433.319
174.039,431.697
175.489,417.862
176.94,445.002
178.39,451.756
179.84,450.067
181.291,446.057
182.741,436.837
184.191,426.047
185.642,415.861
187.092,404.476
188.542,397.743
189.993,416.681
191.443,401.098
192.893,400.97
194.344,409.908
195.794,414.21
197.244,390.663
198.695,395.924
200.145,397.36
201.595,391.842
203.046,382.349
204.496,380.5
205.946,389.94
207.397,395.392
208.847,401.295
210.297,408.089
211.748,399.07
213.198,400.206
214.648,403.672
216.099,402.769
217.549,396.437
218.999,399.214
220.45,407.702
221.9,402.613
223.35,391.103
224.801,384.542
226.251,397.741
227.701,393.794
229.152,401.965
230.602,396.237
232.052,370.763
233.503,391.181
234.953,392.373
236.403,393.314
237.854,394.248
239.304,394.166
240.754,393.701
242.204,389.997
243.655,386.686
245.105,378.296
246.555,366.588
248.006,370.301
249.456,371.827
250.906,378.09
252.357,384.773
253.807,383.512
255.257,359.557
256.708,365.579
258.158,371.119
259.608,374.135
261.059,376.658
262.509,384.572
263.959,351.967
265.41,347.606
266.86,347.881
268.31,349.952
269.761,373.589
271.211,361.94
272.661,357.258
274.112,349.804
275.562,345.027
277.012,357.739
278.463,356.806
279.913,359.595
281.363,356.316
282.814,352.235
284.264,357.157
285.714,344.79
287.165,347.972
288.615,352.199
290.065,346.118
291.516,327.524
292.966,339.2
294.416,351.49
295.867,343.775
297.317,332.749
298.767,333.572
300.218,328.67
301.668,331.885
303.118,333.33
304.569,320.348
306.019,300.155
307.469,318.866
308.919,310.56
310.37,312.564
311.82,311.59
313.27,304.976
314.721,304.505
316.171,303.804
317.621,306.738
319.072,299.328
320.522,292.215
321.972,306.749
323.423,305.579
324.873,295.424
326.323,294.826
327.774,301.344
329.224,304.884
330.674,294.097
332.125,304.027
333.575,304.574
335.025,296.456
336.476,287.012
337.926,286.308
339.376,285.155
340.827,289.076
342.277,291.607
343.727,292.361
345.178,297.467
346.628,281.729
348.078,288.888
349.529,303.889
350.979,311.385
352.429,299.936
353.88,282.542
355.33,292
356.78,297.884
358.231,298.535
359.681,296.969
361.131,290.147
362.582,279.334
364.032,274.472
365.482,277.563
366.933,282.65
368.383,276.383
369.833,274.026
371.284,270.173
372.734,270.064
374.184,270.666
375.635,268.673
377.085,285.169
378.535,292.956
379.986,280.187
381.436,269.886
382.886,276.774
384.336,282.906
385.787,275.999
387.237,270.788
388.687,273.375
390.138,280.799
391.588,283.403
393.038,279.154
394.489,268.379
395.939,273.82
397.389,281.494
398.84,274.314
400.29,262.973
401.74,279.734
403.191,270.828
404.641,269.616
406.091,279.332
407.542,264.857
408.992,272.187
410.442,280.677
411.893,282.431
413.343,281.8
414.793,282.932
416.244,269.916
417.694,280.05
419.144,280.853
420.595,271.951
422.045,264.238
423.495,274.9
424.946,272.295
426.396,268.723
427.846,262.405
429.297,266.465
430.747,284.495
432.197,264.796
433.648,274.874
435.098,271.401
436.548,264.102
437.999,261.829
439.449,264.944
440.899,254.977
442.35,268.46
443.8,267.874
445.25,261.344
446.701,266.004
448.151,279.32
449.601,277.414
451.051,274.798
452.502,272.924
453.952,267.073
455.402,253.21
456.853,269.631
458.303,264.998
459.753,265.349
461.204,266.08
462.654,262.905
464.104,264.562
465.555,260.992
467.005,266.029
468.455,271.237
469.906,267.128
471.356,254.519
472.806,275.975
474.257,278.696
475.707,272.954
477.157,271.809
478.608,277.91
480.058,281.121
481.508,256.093
482.959,268.085
484.409,269.969
485.859,269.389
487.31,273.645
488.76,261.988
490.21,276.542
491.661,283.953
493.111,274.714
494.561,259.354
496.012,255.324
497.462,268.694
498.912,259.82
500.363,264.723
501.813,266.553
503.263,262.179
504.714,262.875
506.164,272.196
507.614,269.221
509.065,266.456
510.515,266.556
511.965,266.113
513.416,258.179
514.866,263.686
516.316,269.794
517.766,270.585
519.217,267.584
520.667,264.212
522.117,262.57
523.568,268.084
525.018,262.889
526.468,258.799
527.919,258.094
529.369,261.937
530.819,281.61
532.27,262.49
533.72,267.667
535.17,267.147
536.621,262.918
538.071,271.281
539.521,273.68
540.972,266.631
542.422,270.544
543.872,267.196
545.323,262.395
546.773,274.029
548.223,268.26
549.674,267.314
551.124,271.771
552.574,274.383
554.025,272.385
555.475,268.749
556.925,267.065
558.376,265.595
559.826,262.324
561.276,261.753
562.727,261.382
564.177,253.778
565.627,263.411
567.078,258.847
568.528,251.689
569.978,250.996
571.429,255.487
572.879,254.758
574.329,262.955
575.78,254.931
577.23,259.976
578.68,265.458
580.131,265.927
581.581,272.506
583.031,258.028
584.482,265.224
585.932,263.912
587.382,262.17
588.832,262.562
590.283,253.859
591.733,253.859
593.183,259.369
594.634,268.605
596.084,262.959
597.534,245.442
598.985,242.777
600.435,245.194
601.885,259.214
603.336,262.819
604.786,265.074
606.236,268.193
607.687,264.058
609.137,261.88
610.587,264.961
612.038,270.137
613.488,270.352
614.938,268.116
616.389,270.801
617.839,264.989
619.289,271.986
620.74,261.689
622.19,259.599
623.64,263.176
625.091,254.508
626.541,253.053
627.991,262.509
629.442,273.379
630.892,274.992
632.342,267.766
633.793,259.424
635.243,258.211
636.693,273.358
638.144,272.171
639.594,265.794
641.044,263.895
642.495,269.728
643.945,276.366
645.395,256.201
646.846,271.583
648.296,278.699
649.746,277.95
651.197,276.678
652.647,273.618
654.097,274.591
655.547,279.455
656.998,279.706
658.448,275.153
659.898,271.06
661.349,272.549
662.799,269.384
664.249,277.006
665.7,279.226
667.15,274.509
668.6,275.633
670.051,288.125
671.501,281.062
672.951,278.869
674.402,281.64
675.852,284.318
677.302,278.957
678.753,270.458
680.203,279.561
681.653,282.98
683.104,286.181
684.554,279.341
686.004,279.057
687.455,283.136
688.905,276.28
690.355,281.407
691.806,290.271
693.256,281.833
694.706,284.721
696.157,289.695
697.607,284.55
699.057,294.621
700.508,283.853
701.958,279.528
703.408,279.765
704.859,280.897
706.309,277.625
707.759,269.872
709.21,290.425
710.66,289.263
712.11,285.833
713.561,282.299
715.011,282.291
716.461,286.568
717.912,286.396
719.362,279.53
720.812,294.396
722.263,296.847
723.713,297.121
725.163,296.348
726.613,280.621
728.064,284.053
729.514,278.47
730.964,281.694
732.415,293.128
733.865,293.855
735.315,280.768
736.766,292.845
738.216,290.879
739.666,285.929
741.117,288.66
742.567,294.545
744.017,297.08
745.468,292.342
746.918,279.305
748.368,280.487
749.819,286.896
751.269,305.764
752.719,308.473
754.17,292.589
755.62,302.111
757.07,313.193
758.521,307.269
759.971,296.396
761.421,286.148
762.872,289.427
764.322,303.412
765.772,289.522
767.223,284.345
768.673,300.394
770.123,298.879
771.574,287.501
773.024,286.396
774.474,301.161
775.925,293.521
777.375,306.602
778.825,296.597
780.276,297.144
781.726,298.885
783.176,298.171
784.627,306
786.077,297.846
787.527,310.215
788.978,306.046
790.428,302.009
791.878,300.774
793.328,300.99
794.779,304.677
796.229,306.161
797.68,295.811
799.13,296.264
800.58,303.033
802.03,310.212
803.481,308.949
804.931,291.418
806.381,297.112
807.832,306.91
809.282,311.111
810.732,309.589
812.183,306.403
813.633,302.302
815.083,292.484
816.534,301.656
817.984,293.921
819.434,307.491
820.885,312.397
822.335,309.606
823.785,316.143
825.236,328.853
826.686,317.436
828.136,323.367
829.587,336.585
831.037,330.58
832.487,319.357
833.938,318.592
835.388,307.154
836.838,333.242
838.289,323.45
839.739,315.491
841.189,312.328
842.64,315.406
844.09,319.846
845.54,313.854
846.991,327.285
848.441,318.09
849.891,332.636
851.342,328.996
852.792,312.234
854.242,309.007
855.693,323.393
857.143,305.962
858.593,327.601
860.044,337.312
861.494,342.197
862.944,335.876
864.394,324.934
865.845,328.855
867.295,318.883
868.745,328.731
870.196,324.017
871.646,323.775
873.096,321.523
874.547,314.649
875.997,314.684
877.447,333.817
878.898,337.062
880.348,318.145
881.798,316.201
883.249,314.117
884.699,315.39
886.149,328.795
887.6,324.846
889.05,321.594
890.5,324.718
891.951,330.725
893.401,331.528
894.851,339.544
896.302,350.972
897.752,335.107
899.202,327.351
900.653,319.343
902.103,339.96
903.553,338.566
905.004,329.653
906.454,330.463
907.904,334.377
909.355,334.395
910.805,327.373
912.255,345.866
913.706,355.426
915.156,348.516
916.606,346.721
918.057,357.881
919.507,348.801
920.957,334.991
922.408,355.344
923.858,350.581
925.308,338.062
926.759,339.462
928.209,350.846
929.659,350.21
931.109,339.805
932.56,347.599
934.01,337.426
935.46,345.428
936.911,349.366
938.361,354.186
939.811,362.797
941.262,350.407
942.712,351.664
944.162,335.271
945.613,355.307
947.063,346.634
948.513,332.59
949.964,334.052
951.414,347.589
952.864,375.309
954.315,365.995
955.765,348.037
957.215,356.995
958.666,356.785
960.116,350.561
961.566,345.458
963.017,337.763
964.467,348.267
965.917,349.529
967.368,358.409
968.818,352.553
970.268,348.234
971.719,352.798
973.169,357.163
974.619,349.07
976.07,339.687
977.52,359.877
978.97,360.522
980.421,359.983
981.871,362.394
983.321,353.794
984.772,338.374
986.222,349.346
987.672,357.695
989.123,365.783
990.573,361.694
992.023,357.85
993.474,357.746
994.924,358.411
996.374,354.347
997.825,346.318
999.275,363.288
1000.73,372.776
1002.18,377.254
1003.63,378.505
1005.08,368.482
1006.53,364.999
1007.98,378.915
1009.43,383.585
1010.88,390.686
1012.33,390.524
1013.78,384.041
1015.23,378.22
1016.68,385.036
1018.13,392.744
1019.58,392.495
1021.03,398.55
1022.48,392.233
1023.93,396.044
1025.38,405.559
1026.83,406.224
1028.28,403.918
1029.73,398.523
1031.18,399.19
1032.63,419.635
1034.08,418.718
1035.53,404.222
1036.98,429.842
1038.43,428.754
1039.88,434.533
1041.33,442.681
1042.78,448.256
1044.23,456.471
1045.69,428.727
1047.14,450.885
1048.59,442.478
1050.04,441.486
1051.49,448.042
1052.94,453.094
1054.39,463.712
1055.84,476.443
1057.29,454.434
1058.74,459.278
1060.19,465.125
1061.64,467.759
1063.09,476.322
1064.54,489.459
1065.99,496.123
1067.44,498.371
1068.89,511.586
1070.34,516.636
1071.79,507.953
1073.24,507.833
1074.69,515.321
1076.14,506.103
1077.59,507.86
1079.04,531.312
1080.49,546.225
1081.94,530.828
1083.39,525.203
1084.84,539.106
1086.29,520.031
1087.74,512.194
1089.2,507.274
1090.65,509.367
1092.1,519.297
1093.55,520.645
1095,520.229
1096.45,521.254
1097.9,514.868
1099.35,512.478
1100.8,508.61
1102.25,516.45
1103.7,523.249
1105.15,516.185
1106.6,515.274
1108.05,508.253
1109.5,506.712
1110.95,519.961
1112.4,514.828
1113.85,500.807
1115.3,498.555
1116.75,506.022
1118.2,503.111
1119.65,485.449
1121.1,481.439
1122.55,488.63
1124,484.038
1125.45,487.587
1126.9,483.749
1128.35,484.6
1129.8,489.17
1131.25,482.358
1132.7,477.267
1134.16,481.347
1135.61,470.286
1137.06,470.511
1138.51,471.731
1139.96,467.578
1141.41,478.574
1142.86,483.98
1144.31,464.558
1145.76,481.19
1147.21,481.983
1148.66,484.82
1150.11,469.133
1151.56,466.059
1153.01,456.684
1154.46,460.365
1155.91,474.501
1157.36,476.177
1158.81,472.644
1160.26,461.363
1161.71,460.07
1163.16,462.776
1164.61,460.167
1166.06,463.119
1167.51,466.176
1168.96,463.339
1170.41,464.473
1171.86,477.024
1173.31,462.622
1174.76,484.843
1176.21,465.905
1177.66,472.565
1179.12,469.925
1180.57,462.351
1182.02,454.764
1183.47,457.307
1184.92,472.893
1186.37,466.917
1187.82,474.429
1189.27,463.301
1190.72,480.258
1192.17,489.896
1193.62,494.266
1195.07,492.414
1196.52,489.9
1197.97,488.388
1199.42,480.622
1200.87,493.194
1202.32,492.415
1203.77,496.563
1205.22,485.843
1206.67,486.608
1208.12,480.592
1209.57,472.891
1211.02,478.111
1212.47,491.419
1213.92,497.578
1215.37,495.56
1216.82,495.56
1218.27,493.656
1219.72,490.534
1221.17,490.018
1222.63,493.785
1224.08,490.886
1225.53,495.403
1226.98,521.817
1228.43,510.085
1229.88,487.685
1231.33,506.952
1232.78,498.106
1234.23,521.185
1235.68,518.365
1237.13,516.95
1238.58,510.93
1240.03,495.122
1241.48,505.071
1242.93,517.455
1244.38,521.177
1245.83,508.4
1247.28,513.484
1248.73,522.18
1250.18,514.946
1251.63,532.185
1253.08,556.376
1254.53,547.407
1255.98,524.497
1257.43,535.896
1258.88,558.923
1260.33,547.692
1261.78,546.554
1263.23,552.872
1264.68,556.109
1266.13,558.04
1267.59,554.892
1269.04,555.895
1270.49,571.094
1271.94,584.067
1273.39,606.867
1274.84,590.626
1276.29,601.192
1277.74,625.882
1279.19,619.704
1280.64,614.542
1282.09,620.146
1283.54,621.989
1284.99,629.613
1286.44,662.496
1287.89,671.174
1289.34,678.014
1290.79,687.45
1292.24,701.16
1293.69,709.435
1295.14,731.458
1296.59,763.181
1298.04,777.168
1299.49,781.912
1300.94,802.165
1302.39,822.677
1303.84,865.558
1305.29,855.581
1306.74,858.7
1308.19,917.149
1309.64,961.988
1311.09,979.04
1312.55,1006.8
1314,1035.97
1315.45,1060.32
1316.9,1100.76
1318.35,1138.72
1319.8,1208.26
1321.25,1238.77
1322.7,1274.68
1324.15,1333.81
1325.6,1363.28
1327.05,1395.45
1328.5,1428.06
1329.95,1444.95
1331.4,1445.93
1332.85,1457.15
1334.3,1499.07
1335.75,1488.12
1337.2,1469.14
1338.65,1447.3
1340.1,1445.87
1341.55,1449.66
1343,1396.07
1344.45,1362.45
1345.9,1349.46
1347.35,1307.73
1348.8,1261.06
1350.25,1256.56
1351.7,1228.49
1353.15,1168.65
1354.6,1123.5
1356.06,1085.31
1357.51,1066.2
1358.96,1022.99
1360.41,982.181
1361.86,957.049
1363.31,915.3
1364.76,868.936
1366.21,869.659
1367.66,861.976
1369.11,826.097
1370.56,834.837
1372.01,802.471
1373.46,799.033
1374.91,785.302
1376.36,771.575
1377.81,762.508
1379.26,755.891
1380.71,741.026
1382.16,721.306
1383.61,718.386
1385.06,719.836
1386.51,730.41
1387.96,707.617
1389.41,730.644
1390.86,721.007
1392.31,703.018
1393.76,691.051
1395.21,691.874
1396.66,687.846
1398.11,685.68
1399.56,695.915
1401.02,696.471
1402.47,709.608
1403.92,716.399
1405.37,683.962
1406.82,695.151
1408.27,685.322
1409.72,689.257
1411.17,683.628
1412.62,684.286
1414.07,695.026
1415.52,696.446
1416.97,701.004
1418.42,722.702
1419.87,705.521
1421.32,723.297
1422.77,729.148
1424.22,711.56
1425.67,726.375
1427.12,722.603
1428.57,723.634
1430.02,717.242
1431.47,718.154
1432.92,726.627
1434.37,742.88
1435.82,750.635
1437.27,721.976
1438.72,742.996
1440.17,751.102
1441.62,735.883
1443.07,792.629
1444.53,781.278
1445.98,780.952
1447.43,786.003
1448.88,784.143
1450.33,783.639
1451.78,802.133
1453.23,819.029
1454.68,820.283
1456.13,838.953
1457.58,831.954
1459.03,854.198
1460.48,849.649
1461.93,861.413
1463.38,858.737
1464.83,864.554
1466.28,899.893
1467.73,924.268
1469.18,924.014
1470.63,919.153
1472.08,932.236
1473.53,953.868
1474.98,958.148
1476.43,963.01
1477.88,977.567
1479.33,1021.57
1480.78,1008.95
1482.23,1012.23
1483.68,1070.82
1485.13,1076.88
1486.58,1097.03
1488.03,1122.45
1489.49,1119.14
1490.94,1146.03
1492.39,1192.1
1493.84,1207.42
1495.29,1258.71
1496.74,1241.92
1498.19,1249.51
1499.64,1330.84
1501.09,1353.42
1502.54,1387.28
1503.99,1424.77
1505.44,1459.97
1506.89,1502.92
1508.34,1549.33
1509.79,1617.82
1511.24,1674.66
1512.69,1731.25
1514.14,1835.17
1515.59,1926.33
1517.04,1986.73
1518.49,2067.28
1519.94,2143.87
1521.39,2307.91
1522.84,2423.51
1524.29,2557.38
1525.74,2707.82
1527.19,2876.19
1528.64,3066.36
1530.09,3274.78
1531.54,3515.46
1532.99,3793.55
1534.45,4067.93
1535.9,4371.06
1537.35,4814.93
1538.8,5253.64
1540.25,5743.44
1541.7,6197.59
1543.15,6700.92
1544.6,7302.88
1546.05,7939.45
1547.5,8664.87
1548.95,9343.64
1550.4,9988.37
1551.85,10695.2
1553.3,11412
1554.75,12126.3
1556.2,12868.1
1557.65,13549.3
1559.1,13571.2
1560.55,13587.4
1562,13618.6
1563.45,13627.9
1564.9,13634.8
1566.35,13626.7
1567.8,13623.3
1569.25,13633.7
1570.7,13631.4
1572.15,13192.7
1573.6,12510
1575.05,11804.4
1576.5,11093
1577.96,10316.1
1579.41,9520.57
1580.86,8795.69
1582.31,8124.67
1583.76,7425.26
1585.21,6820.62
1586.66,6236.45
1588.11,5737.11
1589.56,5302.22
1591.01,4875.75
1592.46,4521
1593.91,4230.77
1595.36,3924.81
1596.81,3668.24
1598.26,3405.99
1599.71,3209.76
1601.16,3077.3
1602.61,2922.85
1604.06,2781.57
1605.51,2661.82
1606.96,2535.34
1608.41,2405.68
1609.86,2304.41
1611.31,2183.44
1612.76,2138.92
1614.21,1997.52
1615.66,1944.47
1617.11,1862.3
1618.56,1812.86
1620.01,1734.19
1621.46,1670.35
1622.92,1606.22
1624.37,1555.65
1625.82,1519.32
1627.27,1475.19
1628.72,1441.18
1630.17,1395.99
1631.62,1369.45
1633.07,1335.87
1634.52,1311.14
1635.97,1268.46
1637.42,1266.06
1638.87,1229.54
1640.32,1197.44
1641.77,1191.86
1643.22,1176.6
1644.67,1158.59
1646.12,1139.82
1647.57,1135.47
1649.02,1118.64
1650.47,1093.69
1651.92,1088.69
1653.37,1086.28
1654.82,1061.13
1656.27,1045.87
1657.72,1041.63
1659.17,1020.41
1660.62,1001.65
1662.07,1005.9
1663.52,1027.16
1664.97,1016.77
1666.42,1003.14
1667.88,994.27
1669.33,986.067
1670.78,972.716
1672.23,952.028
1673.68,957.257
1675.13,954.67
1676.58,952.747
1678.03,939.475
1679.48,927.786
1680.93,935.582
1682.38,933.68
1683.83,926.131
1685.28,916.369
1686.73,922.883
1688.18,920.823
1689.63,917.815
1691.08,909.512
1692.53,893.908
1693.98,892.49
1695.43,908.738
1696.88,918.763
1698.33,911.707
1699.78,914.033
1701.23,900.358
1702.68,903.551
1704.13,892.307
1705.58,901.676
1707.03,901.427
1708.48,880.733
1709.93,901.211
1711.39,900.847
1712.84,900.013
1714.29,896.102
1715.74,909.375
1717.19,919.761
1718.64,900.93
1720.09,902.469
1721.54,905.789
1722.99,883.096
1724.44,887.331
1725.89,912.3
1727.34,920.638
1728.79,920.751
1730.24,898.397
1731.69,883.256
1733.14,920.834
1734.59,891.236
1736.04,884.04
1737.49,906.364
1738.94,887.735
1740.39,884.982
1741.84,902.096
1743.29,886.606
1744.74,880.708
1746.19,865.627
1747.64,857.462
1749.09,870.24
1750.54,857.552
1751.99,855.651
1753.44,868.91
1754.89,857.902
1756.35,856.049
1757.8,876.28
1759.25,871.26
1760.7,860.534
1762.15,864.356
1763.6,844.049
1765.05,845.457
1766.5,858.956
1767.95,853.322
1769.4,828.571
1770.85,825.733
1772.3,819.359
1773.75,833.239
1775.2,827.56
1776.65,826.237
1778.1,827.775
1779.55,832.575
1781,827.316
1782.45,830.366
1783.9,827.052
1785.35,837.898
1786.8,840.873
1788.25,837.32
1789.7,829.239
1791.15,826.528
1792.6,838.22
1794.05,835.663
1795.5,831.326
1796.95,828.035
1798.4,832.455
1799.85,841.384
1801.31,817.205
1802.76,817.17
1804.21,800.195
1805.66,824.195
1807.11,783.615
1808.56,800.674
1810.01,808.866
1811.46,809.897
1812.91,789.693
1814.36,815.283
1815.81,832.169
1817.26,839.215
1818.71,838.392
1820.16,828.017
1821.61,820.1
1823.06,810.293
1824.51,817.657
1825.96,819.919
1827.41,811.568
1828.86,825.314
1830.31,832.046
1831.76,825.269
1833.21,832.955
1834.66,822.37
1836.11,822.092
1837.56,811.939
1839.01,837.383
1840.46,856.305
1841.91,820.357
1843.36,830.886
1844.82,844.821
1846.27,832.254
1847.72,843.656
1849.17,851.207
1850.62,843.572
1852.07,845.997
1853.52,864.847
1854.97,865.487
1856.42,849.648
1857.87,842.755
1859.32,867.661
1860.77,878.618
1862.22,868.06
1863.67,856.467
1865.12,861.364
1866.57,865.038
1868.02,855.421
1869.47,840.717
1870.92,833.396
1872.37,845.335
1873.82,856.509
1875.27,847.707
1876.72,836.646
1878.17,845.523
1879.62,837.317
1881.07,830.379
1882.52,820.486
1883.97,822.674
1885.42,823.509
1886.87,830.889
1888.32,828.018
1889.78,817.243
1891.23,824.55
1892.68,820.846
1894.13,827.049
1895.58,820.876
1897.03,829.315
1898.48,828.121
1899.93,808.208
1901.38,810.776
1902.83,804.581
1904.28,799.113
1905.73,804.1
1907.18,816.598
1908.63,816.516
1910.08,807.677
1911.53,794.546
1912.98,782.928
1914.43,791.424
1915.88,797.884
1917.33,783.879
1918.78,784.211
1920.23,799.177
1921.68,800.558
1923.13,799.191
1924.58,796.655
1926.03,789.128
1927.48,791.621
1928.93,800.85
1930.38,796.69
1931.83,793.256
1933.29,771.079
1934.74,795.348
1936.19,801.118
1937.64,770.076
1939.09,783.348
1940.54,775.304
1941.99,793.264
1943.44,795.204
1944.89,796.062
1946.34,797.76
1947.79,779.614
1949.24,796.439
1950.69,783.361
1952.14,803.981
1953.59,808.492
1955.04,793.449
1956.49,803.849
1957.94,799.184
1959.39,788.571
1960.84,798.002
1962.29,795.044
1963.74,802.338
1965.19,807.728
1966.64,806.9
1968.09,821.419
1969.54,829.416
1970.99,831.254
1972.44,835.39
1973.89,819.236
1975.34,819.46
1976.79,828.06
1978.25,826.556
1979.7,816.231
1981.15,817.594
1982.6,823.948
1984.05,815.322
1985.5,822.537
1986.95,816.686
1988.4,806.145
1989.85,827.82
1991.3,821.12
1992.75,821.645
1994.2,824.888
1995.65,830.214
1997.1,832.865
1998.55,826.235
2000,818.724
2001.45,833.233
2002.9,823.551
2004.35,816.965
2005.8,821.826
2007.25,828.68
2008.7,833.284
2010.15,834.448
2011.6,838.976
2013.05,812.339
2014.5,806.588
2015.95,817.99
2017.4,807.677
2018.85,788.665
2020.3,817.438
2021.75,820.529
2023.21,793.52
2024.66,814.404
2026.11,804.766
2027.56,815.92
2029.01,819.981
2030.46,799.109
2031.91,801.118
2033.36,788.447
2034.81,797.6
2036.26,812.16
2037.71,803.184
2039.16,804.452
2040.61,813.923
2042.06,791.169
2043.51,775.938
2044.96,787.08
2046.41,764.351
2047.86,776.85
2049.31,787.282
2050.76,777.1
2052.21,775.49
2053.66,794.293
2055.11,798.776
2056.56,781.486
2058.01,774.597
2059.46,790.81
2060.91,792.673
2062.36,782.263
2063.81,773.915
2065.26,764.947
2066.72,767.937
2068.17,779.637
2069.62,757.839
2071.07,761.272
2072.52,783.721
2073.97,781.967
2075.42,775.204
2076.87,776.907
2078.32,773.474
2079.77,759.265
2081.22,770.143
2082.67,783.686
2084.12,780.096
2085.57,762.424
2087.02,763.599
2088.47,748.808
2089.92,747.831
2091.37,754.938
2092.82,768
2094.27,787.334
2095.72,776.443
2097.17,769.822
2098.62,772.536
2100.07,761.784
2101.52,752.501
2102.97,759.933
2104.42,752.427
2105.87,765.217
2107.32,770.462
2108.77,773.87
2110.22,775.433
2111.68,781.388
2113.13,771.758
2114.58,766.988
2116.03,780.064
2117.48,780.553
2118.93,768.143
2120.38,782.447
2121.83,781.513
2123.28,758.795
2124.73,772.702
2126.18,782.326
2127.63,776.763
2129.08,779.617
2130.53,785.387
2131.98,790.734
2133.43,790.199
2134.88,790.134
2136.33,785.28
2137.78,791.88
2139.23,791.608
2140.68,790.451
2142.13,782.725
2143.58,781.457
2145.03,807.402
2146.48,808.87
2147.93,799.285
2149.38,788.621
2150.83,790.301
2152.28,802.326
2153.73,802.908
2155.18,793.097
2156.64,797.776
2158.09,798.745
2159.54,795.973
2160.99,805.431
2162.44,806.763
2163.89,807.588
2165.34,800.332
2166.79,805.473
2168.24,830.681
2169.69,823.901
2171.14,813.021
2172.59,814.056
2174.04,815.716
2175.49,822.032
2176.94,824.182
2178.39,817.82
2179.84,819.042
2181.29,820.01
2182.74,825.093
2184.19,823.374
2185.64,817.251
2187.09,822.886
2188.54,830.002
2189.99,830.244
2191.44,825.161
2192.89,834.936
2194.34,834.57
2195.79,834.402
2197.24,841.904
2198.69,839.237
2200.15,827.014
2201.6,828.598
2203.05,829.088
2204.5,847.203
2205.95,842.698
2207.4,846.501
2208.85,839.038
2210.3,845.368
2211.75,853.978
2213.2,857.081
2214.65,849.551
2216.1,849.638
2217.55,856.177
2219,861.712
2220.45,838.815
2221.9,859.017
2223.35,869.95
2224.8,868.306
2226.25,853.971
2227.7,839.292
2229.15,865.133
2230.6,878.543
2232.05,877.969
2233.5,857.144
2234.95,863.488
2236.4,863.639
2237.85,867.454
2239.3,846.965
2240.75,852.747
2242.2,872.429
2243.65,884.684
2245.11,862.229
2246.56,882.74
2248.01,874.888
2249.46,872.302
2250.91,889.855
2252.36,880.855
2253.81,874.721
2255.26,884.589
2256.71,871.142
2258.16,880.261
2259.61,891.895
2261.06,885.986
2262.51,864.403
2263.96,889.354
2265.41,897.901
2266.86,885.226
2268.31,868.593
2269.76,882.363
2271.21,901.23
2272.66,891.406
2274.11,890.029
2275.56,876.973
2277.01,879.139
2278.46,905.047
2279.91,905.439
2281.36,922.818
2282.81,927.651
2284.26,897.374
2285.71,896.94
2287.16,910.81
2288.61,925.225
2290.07,911.926
2291.52,896.576
2292.97,917.512
2294.42,922.858
2295.87,926.899
2297.32,929.128
2298.77,906.205
2300.22,929.213
2301.67,961.601
2303.12,960.414
2304.57,946.643
2306.02,929.763
2307.47,935.755
2308.92,932.888
2310.37,945.805
2311.82,941.98
2313.27,955.277
2314.72,936.09
2316.17,964.975
2317.62,945.578
2319.07,956.052
2320.52,972.722
2321.97,959.304
2323.42,962.429
2324.87,991.419
2326.32,970.799
2327.77,974.412
2329.22,967.264
2330.67,994.623
2332.12,998.655
2333.57,1002
2335.03,1004.55
2336.48,979.432
2337.93,977.988
2339.38,998.334
2340.83,1018.74
2342.28,1011.13
2343.73,1020.92
2345.18,1011.11
2346.63,1025.17
2348.08,1040.76
2349.53,1042.16
2350.98,1039.55
2352.43,1055.79
2353.88,1049.98
2355.33,1054.08
2356.78,1057.03
2358.23,1077.41
2359.68,1066.46
2361.13,1080.37
2362.58,1110.37
2364.03,1117.4
2365.48,1095.44
2366.93,1101.21
2368.38,1127.86
2369.83,1129.28
2371.28,1123.12
2372.73,1130.68
2374.18,1165.67
2375.63,1178.37
2377.08,1185.53
2378.54,1191.55
2379.99,1191.84
2381.44,1202.18
2382.89,1237.59
2384.34,1248.82
2385.79,1239.56
2387.24,1251.93
2388.69,1279.17
2390.14,1299.52
2391.59,1323.2
2393.04,1322.15
2394.49,1328.57
2395.94,1351.64
2397.39,1341.08
2398.84,1345.87
2400.29,1408
2401.74,1433.94
2403.19,1440.17
2404.64,1446.78
2406.09,1450.52
2407.54,1491.33
2408.99,1476.61
2410.44,1488.88
2411.89,1483.85
2413.34,1522.02
2414.79,1540.06
2416.24,1513.01
2417.69,1549.71
2419.14,1541.6
2420.59,1555.77
2422.04,1565.33
2423.5,1557.73
2424.95,1573.25
2426.4,1585.53
2427.85,1583.65
2429.3,1562.44
2430.75,1558.89
2432.2,1543.24
2433.65,1552.31
2435.1,1558.32
2436.55,1571.45
2438,1531.9
2439.45,1541.6
2440.9,1546.26
2442.35,1540.99
2443.8,1514.02
2445.25,1506.65
2446.7,1529.84
2448.15,1510.15
2449.6,1501.79
2451.05,1510.51
2452.5,1488.31
2453.95,1498.42
2455.4,1487.14
2456.85,1474.56
2458.3,1450.68
2459.75,1416.14
2461.2,1427.07
2462.65,1427.78
2464.1,1434.9
2465.55,1446.31
2467.01,1458.65
2468.46,1421.45
2469.91,1456.09
2471.36,1452.01
2472.81,1430.25
2474.26,1418.94
2475.71,1411.51
2477.16,1445.92
2478.61,1434.65
2480.06,1425.15
2481.51,1432.49
2482.96,1407.71
2484.41,1426.54
2485.86,1418.49
2487.31,1425.15
2488.76,1424.21
2490.21,1428.65
2491.66,1417.41
2493.11,1427.44
2494.56,1458.39
2496.01,1440.92
2497.46,1446.51
2498.91,1443.92
2500.36,1471.14
2501.81,1462.12
2503.26,1456.63
2504.71,1481.93
2506.16,1493.97
2507.61,1476.72
2509.06,1491.47
2510.51,1492.2
2511.97,1483.9
2513.42,1465.07
2514.87,1511.18
2516.32,1510.08
2517.77,1500.41
2519.22,1521.47
2520.67,1526.15
2522.12,1523.58
2523.57,1549.87
2525.02,1593.84
2526.47,1606.26
2527.92,1609.67
2529.37,1612.48
2530.82,1646.77
2532.27,1659.65
2533.72,1656.91
2535.17,1671.19
2536.62,1676.35
2538.07,1712.51
2539.52,1697.34
2540.97,1732.97
2542.42,1752.88
2543.87,1755.79
2545.32,1794.53
2546.77,1787.07
2548.22,1838.34
2549.67,1882.78
2551.12,1901.62
2552.57,1914.52
2554.02,1916.62
2555.48,1926.56
2556.93,1965.1
2558.38,2011.47
2559.83,2035.71
2561.28,2060.17
2562.73,2090.17
2564.18,2165.36
2565.63,2174.3
2567.08,2231.12
2568.53,2252.38
2569.98,2354.38
2571.43,2395.37
2572.88,2428.53
2574.33,2468.76
2575.78,2527.26
2577.23,2573.7
2578.68,2627.11
2580.13,2692.71
2581.58,2726.61
2583.03,2762.22
2584.48,2856.98
2585.93,2929.75
2587.38,2992.21
2588.83,3119.36
2590.28,3162.08
2591.73,3224.42
2593.18,3349.94
2594.63,3470.4
2596.08,3550.44
2597.53,3663.1
2598.98,3813.61
2600.44,3920.29
2601.89,4028.57
2603.34,4169.6
2604.79,4316.22
2606.24,4417.43
2607.69,4587.29
2609.14,4736.31
2610.59,4917.32
2612.04,5051.76
2613.49,5280.64
2614.94,5395.89
2616.39,5547.72
2617.84,5819.35
2619.29,5980.32
2620.74,6189.37
2622.19,6448.05
2623.64,6660.87
2625.09,6830.88
2626.54,7039.01
2627.99,7250.47
2629.44,7499.73
2630.89,7662.51
2632.34,7884.71
2633.79,8135.83
2635.24,8362.14
2636.69,8603.89
2638.14,8772.75
2639.59,8937.03
2641.04,9163.65
2642.49,9371.64
2643.94,9511.71
2645.4,9656.38
2646.85,9759.99
2648.3,9889.55
2649.75,9966.9
2651.2,10028.2
2652.65,10064.7
2654.1,9998.02
2655.55,10019.2
2657,10066.5
2658.45,9985.86
2659.9,9962.64
2661.35,9923.5
2662.8,9828.76
2664.25,9652.95
2665.7,9503.63
2667.15,9389.56
2668.6,9225.34
2670.05,8957.28
2671.5,8714.48
2672.95,8620.68
2674.4,8313.21
2675.85,8175.12
2677.3,7910.04
2678.75,7670.13
2680.2,7448.92
2681.65,7163.47
2683.1,6970.74
2684.55,6767.1
2686,6576.96
2687.45,6338.01
2688.91,6059.17
2690.36,5851.73
2691.81,5600.74
2693.26,5389.72
2694.71,5211.26
2696.16,5031.31
2697.61,4766.96
2699.06,4676.01
2700.51,4547.03
2701.96,4382.68
2703.41,4210.2
2704.86,4043.94
2706.31,3893.83
2707.76,3762.76
2709.21,3619.31
2710.66,3466.98
2712.11,3352.87
2713.56,3258.93
2715.01,3157.8
2716.46,3143.49
2717.91,2991.49
2719.36,2921.93
2720.81,2821.93
2722.26,2702.86
2723.71,2670.19
2725.16,2618.43
2726.61,2525.78
2728.06,2471.2
2729.51,2449.89
2730.96,2351.55
2732.41,2330.71
2733.87,2272.35
2735.32,2188.57
2736.77,2163.78
2738.22,2115.06
2739.67,2096.58
2741.12,2048.62
2742.57,2017.43
2744.02,2005.59
2745.47,1911.71
2746.92,1917.58
2748.37,1877.31
2749.82,1868.29
2751.27,1827.12
2752.72,1788.89
2754.17,1799.92
2755.62,1743.13
2757.07,1704.84
2758.52,1707.54
2759.97,1685.11
2761.42,1667.63
2762.87,1670.22
2764.32,1620.28
2765.77,1618.04
2767.22,1618.99
2768.67,1585.68
2770.12,1566.66
2771.57,1569.31
2773.02,1542.02
2774.47,1540.39
2775.92,1522.63
2777.38,1515.53
2778.83,1500.75
2780.28,1485.29
2781.73,1466.01
2783.18,1433.16
2784.63,1471.29
2786.08,1423.25
2787.53,1430.49
2788.98,1422.8
2790.43,1403.45
2791.88,1405.05
2793.33,1396.27
2794.78,1366.25
2796.23,1384.75
2797.68,1358.97
2799.13,1383.1
2800.58,1354.35
2802.03,1343.57
2803.48,1325.39
2804.93,1359.11
2806.38,1346.45
2807.83,1320.27
2809.28,1313.3
2810.73,1314.95
2812.18,1296.05
2813.63,1314.48
2815.08,1293.86
2816.53,1294.99
2817.98,1291.2
2819.43,1297.34
2820.88,1291.93
2822.33,1273.25
2823.79,1257.42
2825.24,1269.04
2826.69,1274.58
2828.14,1269.83
2829.59,1253.86
2831.04,1260.26
2832.49,1233.48
2833.94,1236.98
2835.39,1254.21
2836.84,1240.89
2838.29,1211.11
2839.74,1203.55
2841.19,1211.59
2842.64,1232.53
2844.09,1227.36
2845.54,1216.58
2846.99,1186.92
2848.44,1234.56
2849.89,1218.97
2851.34,1215.97
2852.79,1220.91
2854.24,1217.48
2855.69,1210.86
2857.14,1208.78
2858.59,1210.96
2860.04,1184.64
2861.49,1233.78
2862.94,1183.98
2864.39,1195.45
2865.84,1215.59
2867.3,1219.88
2868.75,1199.08
2870.2,1196.85
2871.65,1192.79
2873.1,1185.9
2874.55,1175.84
2876,1172.02
2877.45,1198.76
2878.9,1204.79
2880.35,1166.61
2881.8,1170.93
2883.25,1191.27
2884.7,1195.63
2886.15,1191.77
2887.6,1185.84
2889.05,1192.67
2890.5,1201.04
2891.95,1184.57
2893.4,1187.35
2894.85,1178.84
2896.3,1183.7
2897.75,1183.04
2899.2,1185.07
2900.65,1187.35
2902.1,1185.19
2903.55,1166.59
2905,1174.06
2906.45,1182.49
2907.9,1173.1
2909.35,1167.21
2910.8,1161.16
2912.26,1147.23
2913.71,1159.25
2915.16,1146.6
2916.61,1153.54
2918.06,1129.46
2919.51,1158.59
2920.96,1144.77
2922.41,1160.47
2923.86,1145.02
2925.31,1136.01
2926.76,1147.33
2928.21,1140.8
2929.66,1132.63
2931.11,1122.65
2932.56,1122.72
2934.01,1120.71
2935.46,1098.53
2936.91,1096.72
2938.36,1097.32
2939.81,1095.6
2941.26,1089.05
2942.71,1083.83
2944.16,1099.34
2945.61,1095.89
2947.06,1076
2948.51,1075.69
2949.96,1064.68
2951.41,1074.3
2952.86,1080.55
2954.31,1075.23
2955.77,1052.13
2957.22,1050.72
2958.67,1038.14
2960.12,1058.94
2961.57,1030.52
2963.02,1048.01
2964.47,1042.58
2965.92,1046.66
2967.37,1039.11
2968.82,1038.88
2970.27,1034.57
2971.72,1034.43
2973.17,1022.23
2974.62,1020.39
2976.07,1011.92
2977.52,1007.24
2978.97,1009.52
2980.42,1017.17
2981.87,1008.01
2983.32,1009.25
2984.77,1004.06
2986.22,1008.52
2987.67,1006.62
2989.12,1021.77
2990.57,1008.44
2992.02,1011.66
2993.47,1012.25
2994.92,1013.42
2996.37,1001.35
2997.82,1013.56
2999.27,1021.96
3000.73,997.533
3002.18,1006.95
3003.63,981.692
3005.08,1008.14
3006.53,1010.88
3007.98,1006.62
3009.43,1008.19
3010.88,998.49
3012.33,988.105
3013.78,975.564
3015.23,987.043
3016.68,996.787
3018.13,1007.19
3019.58,974.502
3021.03,973.905
3022.48,979.953
3023.93,990.999
3025.38,997.73
3026.83,1003.53
3028.28,1001.49
3029.73,1008.28
3031.18,996.791
3032.63,984.762
3034.08,1009.1
3035.53,984.766
3036.98,993.25
3038.43,968.851
3039.88,984.335
3041.33,1025.54
3042.78,1020.96
3044.23,998.634
3045.69,998.549
3047.14,991.469
3048.59,986.469
3050.04,995.523
3051.49,970.363
3052.94,994.307
3054.39,998.209
3055.84,980.226
3057.29,1000.93
3058.74,1006.39
3060.19,1033.44
3061.64,1012.68
3063.09,1027.35
3064.54,1017.96
3065.99,1010.87
3067.44,1018.97
3068.89,1030.25
3070.34,1028.9
3071.79,1012.09
3073.24,1032.58
3074.69,1042.21
3076.14,1050.5
3077.59,1049.98
3079.04,1063.89
3080.49,1074.89
3081.94,1073.72
3083.39,1037.37
3084.84,1067.37
3086.29,1093.59
3087.74,1067.87
3089.2,1087.45
3090.65,1101.63
3092.1,1126.27
3093.55,1112.68
3095,1117.18
3096.45,1117.49
3097.9,1126.06
3099.35,1120.79
3100.8,1127.25
3102.25,1155.53
3103.7,1141.33
3105.15,1183.99
3106.6,1192.25
3108.05,1191.64
3109.5,1187.71
3110.95,1206.27
3112.4,1219.61
3113.85,1231.22
3115.3,1192.68
3116.75,1227.38
3118.2,1271.52
3119.65,1261.96
3121.1,1282.2
3122.55,1303.22
3124,1296.13
3125.45,1295.84
3126.9,1319.29
3128.35,1321.88
3129.8,1306.29
3131.25,1332.53
3132.7,1334.51
3134.16,1325.4
3135.61,1335.83
3137.06,1319.9
3138.51,1329.13
3139.96,1370.04
3141.41,1374.89
3142.86,1376.22
3144.31,1378.9
3145.76,1362.66
3147.21,1375.99
3148.66,1416.77
3150.11,1404.43
3151.56,1388.69
3153.01,1390.84
3154.46,1401.24
3155.91,1382.62
3157.36,1415.96
3158.81,1407.42
3160.26,1423.94
3161.71,1417.52
3163.16,1408.32
3164.61,1424.22
3166.06,1412.96
3167.51,1426.23
3168.96,1432.25
3170.41,1465.91
3171.86,1487.92
3173.31,1467.9
3174.76,1474.33
3176.21,1480.16
3177.67,1480.01
3179.12,1510.9
3180.57,1499.22
3182.02,1502.29
3183.47,1525.97
3184.92,1531.42
3186.37,1543.41
3187.82,1540.89
3189.27,1524.75
3190.72,1535.18
3192.17,1535.4
3193.62,1533.85
3195.07,1525.66
3196.52,1519.69
3197.97,1522.29
3199.42,1518.16
3200.87,1489.27
3202.32,1514.6
3203.77,1477.12
3205.22,1453.07
3206.67,1434.54
3208.12,1494.37
3209.57,1446.94
3211.02,1414.95
3212.47,1400.1
3213.92,1407.29
3215.37,1394.72
3216.82,1373.31
3218.27,1379.78
3219.72,1353.57
3221.17,1337.92
3222.63,1324.36
3224.08,1320.83
3225.53,1298.17
3226.98,1262.14
3228.43,1258.51
3229.88,1240.69
3231.33,1221.31
3232.78,1190.72
3234.23,1183.72
3235.68,1159.84
3237.13,1116.61
3238.58,1153.07
3240.03,1153.79
3241.48,1128.36
3242.93,1108.02
3244.38,1097.45
3245.83,1070.81
3247.28,1061.04
3248.73,1058.49
3250.18,1072.42
3251.63,1054.99
3253.08,1035.36
3254.53,1032.41
3255.98,1007.69
3257.43,999.889
3258.88,1012.66
3260.33,994.563
3261.78,1016.22
3263.23,1006.49
3264.68,978.918
3266.13,1000.95
3267.59,1021.88
3269.04,993.453
3270.49,981.482
3271.94,1000
3273.39,973.567
3274.84,961.282
3276.29,999.759
3277.74,957.978
3279.19,963.583
3280.64,984.318
3282.09,981.908
3283.54,975.139
3284.99,956.039
3286.44,963.314
3287.89,969.671
3289.34,944.565
3290.79,961.232
3292.24,966.44
3293.69,964.274
3295.14,962.509
3296.59,960.601
3298.04,949.575
3299.49,962.845
3300.94,959.858
3302.39,981.65
3303.84,955.52
3305.29,952.004
3306.74,963.691
3308.19,957.067
3309.64,959.049
3311.09,969.117
3312.55,964.323
3314,982.882
3315.45,967.924
3316.9,959.958
3318.35,953.392
3319.8,947.173
3321.25,963.099
3322.7,950.115
3324.15,950.271
3325.6,971.999
3327.05,972.097
3328.5,948.307
3329.95,957.064
3331.4,978.332
3332.85,956.438
3334.3,955.595
3335.75,948.321
3337.2,953.902
3338.65,942.17
3340.1,963.08
3341.55,947.075
3343,948.499
3344.45,945.497
3345.9,951.327
3347.35,906.46
3348.8,953.851
3350.25,959.386
3351.7,969.227
3353.15,968.84
3354.6,958.515
3356.06,952.132
3357.51,969.712
3358.96,929.157
3360.41,938.315
3361.86,943.927
3363.31,957.645
3364.76,931.958
3366.21,947.577
3367.66,971.647
3369.11,967.399
3370.56,961.783
3372.01,964.401
3373.46,937.866
3374.91,971.522
3376.36,974.888
3377.81,962.094
3379.26,944.191
3380.71,975.526
3382.16,983.421
3383.61,968.651
3385.06,960.962
3386.51,950.858
3387.96,963.637
3389.41,986.444
3390.86,984.111
3392.31,951.698
3393.76,961.729
3395.21,970.806
3396.66,939.741
3398.11,970.402
3399.56,966.536
3401.02,967.558
3402.47,966.578
3403.92,954.911
3405.37,970.204
3406.82,947.091
3408.27,981.326
3409.72,963.787
3411.17,967.736
3412.62,949.733
3414.07,977.433
3415.52,948.842
3416.97,973.784
3418.42,972.409
3419.87,964.114
3421.32,959.31
3422.77,958.477
3424.22,969.849
3425.67,989.34
3427.12,1000.08
3428.57,970.846
3430.02,975.521
3431.47,969.358
3432.92,951.453
3434.37,965.939
3435.82,979.341
3437.27,981.029
3438.72,986.344
3440.17,964.927
3441.62,970.364
3443.07,974.771
3444.52,985.364
3445.98,973.04
3447.43,945.294
3448.88,955.354
3450.33,961.963
3451.78,970.219
3453.23,988.063
3454.68,967.742
3456.13,973.364
3457.58,997.874
3459.03,973.176
3460.48,967.505
3461.93,969.706
3463.38,961.361
3464.83,980.908
3466.28,980.319
3467.73,957.284
3469.18,988.391
3470.63,979.023
3472.08,974.761
3473.53,969.287
3474.98,977.742
3476.43,949.298
3477.88,994.752
3479.33,982.827
3480.78,979.828
3482.23,990.41
3483.68,984.777
3485.13,975.115
3486.58,982.144
3488.03,968.942
3489.49,968.733
3490.94,970.435
3492.39,971.98
3493.84,986.593
3495.29,969.614
3496.74,982.226
3498.19,968.506
3499.64,1003
3501.09,969.146
3502.54,1001.57
3503.99,989.256
3505.44,972.454
3506.89,995.79
3508.34,992.817
3509.79,1008.84
3511.24,1003.44
3512.69,1001.99
3514.14,989.243
3515.59,998.934
3517.04,1030.23
3518.49,1005.69
3519.94,989.126
3521.39,969.705
3522.84,1014.27
3524.29,992.449
3525.74,980.863
3527.19,1005.75
3528.64,995.003
3530.09,1001.57
3531.54,979.087
3532.99,981.909
3534.45,993.043
3535.9,1016.6
3537.35,990.959
3538.8,991.34
3540.25,974.048
3541.7,977.678
3543.15,983.178
3544.6,990.798
3546.05,1018.95
3547.5,1007.97
3548.95,1016.21
3550.4,1010.76
3551.85,1010.76
3553.3,978.724
3554.75,986.265
3556.2,987.553
3557.65,1006.24
3559.1,996.743
3560.55,991.503
3562,979.116
3563.45,1013.51
3564.9,1010.79
3566.35,992.041
3567.8,1015.5
3569.25,997.686
3570.7,1009.09
3572.15,1011.58
3573.6,1015.7
3575.05,1009.79
3576.5,981.257
3577.96,978.258
3579.41,1003.09
3580.86,995.088
3582.31,1008.66
3583.76,1016.74
3585.21,1014.37
3586.66,1006.02
3588.11,1021.55
3589.56,1000.91
3591.01,1017.94
3592.46,1029.64
3593.91,1002.38
3595.36,1005.86
3596.81,1020.93
3598.26,1015.51
3599.71,997.275
3601.16,1011.31
3602.61,1022.87
3604.06,1010.18
3605.51,1008.01
3606.96,1006.26
3608.41,1021.78
3609.86,1012.97
3611.31,1025.1
3612.76,1002.27
3614.21,1001.04
3615.66,1041.56
3617.11,1010.12
3618.56,1021.71
3620.01,1013.32
3621.46,1025.2
3622.92,1023.78
3624.37,1024.47
3625.82,1024.74
3627.27,1028.41
3628.72,998.016
3630.17,1013.27
3631.62,1027.44
3633.07,1005.44
3634.52,1025.2
3635.97,1027.4
3637.42,1024.99
3638.87,1033.43
3640.32,1005.36
3641.77,1046.25
3643.22,1048.28
3644.67,1032.13
3646.12,1032.77
3647.57,1035.92
3649.02,1030.86
3650.47,1042.93
3651.92,1034.43
3653.37,1044.41
3654.82,1038.87
3656.27,1033.61
3657.72,1029.25
3659.17,1044.52
3660.62,1052.74
3662.07,1042.9
3663.52,1040.12
3664.97,1044.95
3666.43,1038.55
3667.88,1057.62
3669.33,1026.34
3670.78,1031.27
3672.23,1043.1
3673.68,1053.29
3675.13,1053.43
3676.58,1057.53
3678.03,1041.46
3679.48,1057.7
3680.93,1065.19
3682.38,1042.15
3683.83,1040.92
3685.28,1039.08
3686.73,1063.44
3688.18,1054.82
3689.63,1057.25
3691.08,1047.45
3692.53,1063.87
3693.98,1052.23
3695.43,1062.69
3696.88,1051.79
3698.33,1039.83
3699.78,1039.93
3701.23,1052.84
3702.68,1057.2
3704.13,1076.27
3705.58,1057
3707.03,1076.07
3708.48,1055.75
3709.93,1050.91
3711.39,1062.93
3712.84,1036
3714.29,1070.25
3715.74,1060.03
3717.19,1062.51
3718.64,1069.45
3720.09,1061.72
3721.54,1061.24
3722.99,1061.21
3724.44,1066.8
3725.89,1054.87
3727.34,1042.19
3728.79,1045.87
3730.24,1041.51
3731.69,1073.23
3733.14,1069.32
3734.59,1072.5
3736.04,1058.95
3737.49,1062.62
3738.94,1075.61
3740.39,1094.31
3741.84,1057.98
3743.29,1089.47
3744.74,1099.09
3746.19,1068.87
3747.64,1081.69
3749.09,1091.84
3750.54,1064.21
3751.99,1069.23
3753.44,1076.01
3754.89,1078.52
3756.35,1089.27
3757.8,1083.98
3759.25,1083.31
3760.7,1084.19
3762.15,1080.42
3763.6,1067.94
3765.05,1087.56
3766.5,1086.9
3767.95,1093.18
3769.4,1089.4
3770.85,1085.74
3772.3,1075.93
3773.75,1077.79
3775.2,1085.84
3776.65,1082.32
3778.1,1098.87
3779.55,1083.32
3781,1100.55
3782.45,1113.74
3783.9,1093.98
3785.35,1077.49
3786.8,1118.71
3788.25,1077.1
3789.7,1098.28
3791.15,1080.82
3792.6,1114.14
3794.05,1091.95
3795.5,1077.75
3796.95,1086.52
3798.4,1074.84
3799.85,1099.64
3801.31,1100.24
3802.76,1078.09
3804.21,1126.5
3805.66,1122.19
3807.11,1123.05
3808.56,1112.33
3810.01,1121.92
3811.46,1129.71
3812.91,1127.28
3814.36,1110.57
3815.81,1111.44
3817.26,1116.56
3818.71,1115.75
3820.16,1127.11
3821.61,1129.86
3823.06,1108.95
3824.51,1102.1
3825.96,1123.89
3827.41,1124.88
3828.86,1122.97
3830.31,1134.03
3831.76,1123.28
3833.21,1130.2
3834.66,1147.09
3836.11,1144.48
3837.56,1137.45
3839.01,1129.74
3840.46,1130.2
3841.91,1120.29
3843.36,1118.37
3844.82,1086.78
3846.27,1126.03
3847.72,1140.58
3849.17,1138
3850.62,1157.46
3852.07,1143.65
3853.52,1137.45
3854.97,1139.12
3856.42,1137.67
3857.87,1137.46
3859.32,1149
3860.77,1143.78
3862.22,1141.79
3863.67,1155.24
3865.12,1152.88
3866.57,1141.93
3868.02,1142.27
3869.47,1167.37
3870.92,1141.47
3872.37,1135.63
3873.82,1153.7
3875.27,1176.97
3876.72,1189.42
3878.17,1184.04
3879.62,1153.43
3881.07,1160.48
3882.52,1159.61
3883.97,1162.77
3885.42,1175.78
3886.87,1174.81
3888.32,1184.71
3889.78,1167.44
3891.23,1177.7
3892.68,1172.13
3894.13,1169.52
3895.58,1179.03
3897.03,1193.74
3898.48,1196.22
3899.93,1205.19
3901.38,1199.02
3902.83,1174.96
3904.28,1201.49
3905.73,1204.36
3907.18,1205.65
3908.63,1184.28
3910.08,1199.01
3911.53,1194.54
3912.98,1214.05
3914.43,1203.93
3915.88,1205.87
3917.33,1192.81
3918.78,1183.8
3920.23,1207.6
3921.68,1215.21
3923.13,1231.51
3924.58,1210.37
3926.03,1220.71
3927.48,1215.77
3928.93,1258.25
3930.38,1214.65
3931.83,1220.58
3933.28,1225.89
3934.74,1231.93
3936.19,1253.42
3937.64,1239.55
3939.09,1220.44
3940.54,1254.22
3941.99,1240.53
3943.44,1231.6
3944.89,1237.32
3946.34,1250
3947.79,1263.4
3949.24,1254.18
3950.69,1258.33
3952.14,1265.77
3953.59,1272.55
3955.04,1276.68
3956.49,1239.59
3957.94,1281.94
3959.39,1253.06
3960.84,1249.88
3962.29,1259.95
3963.74,1253.6
3965.19,1243.39
3966.64,1290.99
3968.09,1261.43
3969.54,1285.28
3970.99,1255.46
3972.44,1280.23
3973.89,1275.89
3975.34,1304.21
3976.79,1297.54
3978.25,1305.99
3979.7,1302.79
3981.15,1289.37
3982.6,1296.98
3984.05,1309
3985.5,1314.81
3986.95,1332.11
3988.4,1309.93
3989.85,1315.71
3991.3,1310.48
3992.75,1318.94
3994.2,1334.86
3995.65,1306.82
3997.1,1372.38
3998.55,1315.99
4000,1318.81
