0,4.75279
1.45033,4.75279
2.90065,4.75279
4.35098,4.75279
5.80131,4.75279
7.25163,4.75279
8.70196,19.8836
10.1523,8.72224
11.6026,6.87285
13.0529,7.63054
14.5033,8.53217
15.9536,7.73267
17.4039,3.10107
18.8542,0.265218
20.3046,0.209065
21.7549,1.84587
23.2052,3.81695
24.6555,3.58519
26.1059,2.55817
27.5562,0.725869
29.0065,0.169096
30.4569,3.5013
31.9072,1.64574
33.3575,1.5322
34.8078,1.33639
36.2582,0.729895
37.7085,1.42615
39.1588,0.195201
40.6091,1.50744
42.0595,4.20727
43.5098,6.60304
44.9601,7.5321
46.4104,7.12273
47.8608,11.0174
49.3111,19.2607
50.7614,29.0632
52.2117,72.2988
53.6621,140.518
55.1124,243.099
56.5627,381.665
58.0131,546.568
59.4634,708.124
60.9137,852.96
62.364,954.453
63.8144,1000.15
65.2647,1083.94
66.715,1119.89
68.1653,1151.01
69.6157,1186.23
71.066,1219.67
72.5163,1234.34
73.9666,1230.02
75.417,1219.05
76.8673,1220.36
78.3176,1271.64
79.7679,1281.35
81.2183,1302.29
82.6686,1338.88
84.1189,1385.98
85.5693,1417
87.0196,1425.72
88.4699,1424.58
89.9202,1394.31
91.3706,1309.54
92.8209,1239.5
94.2712,1175.42
95.7215,1104.42
97.1719,1039.57
98.6222,1020.88
100.073,984.468
101.523,942.107
102.973,903.52
104.423,873.874
105.874,850.028
107.324,830.417
108.774,820.968
110.225,806.44
111.675,778.601
113.125,784.684
114.576,796.9
116.026,790.006
117.476,765.297
118.927,735.721
120.377,743.926
121.827,728.497
123.278,719.854
124.728,719.411
126.178,708.399
127.629,692.947
129.079,676.963
130.529,666.304
131.98,659.931
133.43,646.332
134.88,629.844
136.331,608.533
137.781,598.864
139.231,602.192
140.682,575.442
142.132,582.517
143.582,571.392
145.033,552.801
146.483,541.356
147.933,523.508
149.384,538.941
150.834,534.116
152.284,515.288
153.735,505.515
155.185,526.667
156.635,508.855
158.086,502.063
159.536,511.463
160.986,522.393
162.437,520.748
163.887,502.615
165.337,481.636
166.788,465.172
168.238,457.078
169.688,459.199
171.139,449.01
172.589,443.13
174.039,441.471
175.489,427.323
176.94,455.077
178.39,461.984
179.84,460.256
181.291,456.156
182.741,446.727
184.191,435.693
185.642,425.276
187.092,413.634
188.542,406.748
189.993,426.115
191.443,410.178
192.893,410.048
194.344,419.188
195.794,423.588
197.244,399.508
198.695,404.888
200.145,406.356
201.595,400.713
203.046,391.005
204.496,389.114
205.946,398.768
207.397,404.343
208.847,410.38
210.297,417.328
211.748,408.105
213.198,409.267
214.648,412.811
216.099,411.887
217.549,405.413
218.999,408.252
220.45,416.932
221.9,411.728
223.35,399.958
224.801,393.248
226.251,406.746
227.701,402.709
229.152,411.065
230.602,405.208
232.052,379.157
233.503,400.037
234.953,401.257
236.403,402.218
237.854,403.174
239.304,403.09
240.754,402.615
242.204,398.827
243.655,395.44
245.105,386.861
246.555,374.888
248.006,378.685
249.456,380.245
250.906,386.65
252.357,393.484
253.807,392.195
255.257,367.698
256.708,373.856
258.158,379.521
259.608,382.605
261.059,385.185
262.509,393.278
263.959,359.935
265.41,355.476
266.86,355.757
268.31,357.875
269.761,382.048
271.211,370.135
272.661,365.346
274.112,357.723
275.562,352.838
277.012,365.838
278.463,364.885
279.913,367.736
281.363,364.383
282.814,360.21
284.264,365.243
285.714,352.596
287.165,355.85
288.615,360.173
290.065,353.954
291.516,334.94
292.966,346.88
294.416,359.447
295.867,351.558
297.317,340.282
298.767,341.124
300.218,336.111
301.668,339.399
303.118,340.876
304.569,327.601
306.019,306.951
307.469,326.085
308.919,317.591
310.37,319.64
311.82,318.645
313.27,311.881
314.721,311.399
316.171,310.682
317.621,313.682
319.072,306.105
320.522,298.83
321.972,313.694
323.423,312.497
324.873,302.113
326.323,301.5
327.774,308.167
329.224,311.786
330.674,300.756
332.125,310.91
333.575,311.469
335.025,303.168
336.476,293.51
337.926,292.79
339.376,291.611
340.827,295.62
342.277,298.209
343.727,298.98
345.178,304.201
346.628,288.107
348.078,295.429
349.529,310.769
350.979,318.435
352.429,306.727
353.88,288.939
355.33,298.611
356.78,304.628
358.231,305.294
359.681,303.692
361.131,296.716
362.582,285.658
364.032,280.686
365.482,283.847
366.933,289.049
368.383,282.641
369.833,280.23
371.284,276.289
372.734,276.178
374.184,276.794
375.635,274.756
377.085,291.625
378.535,299.588
379.986,286.53
381.436,275.996
382.886,283.04
384.336,289.311
385.787,282.248
387.237,276.918
388.687,279.565
390.138,287.157
391.588,289.82
393.038,285.474
394.489,274.455
395.939,280.019
397.389,287.867
398.84,280.525
400.29,268.927
401.74,286.067
403.191,276.96
404.641,275.72
406.091,285.656
407.542,270.853
408.992,278.35
410.442,287.031
411.893,288.825
413.343,288.18
414.793,289.338
416.244,276.026
417.694,286.391
419.144,287.211
420.595,278.108
422.045,270.22
423.495,281.124
424.946,278.46
426.396,274.807
427.846,268.345
429.297,272.498
430.747,290.936
432.197,270.791
433.648,281.097
435.098,277.546
436.548,270.081
437.999,267.757
439.449,270.942
440.899,260.75
442.35,274.538
443.8,273.939
445.25,267.261
446.701,272.027
448.151,285.643
449.601,283.695
451.051,281.02
452.502,279.103
453.952,273.12
455.402,258.943
456.853,275.735
458.303,270.998
459.753,271.357
461.204,272.104
462.654,268.857
464.104,270.551
465.555,266.901
467.005,272.052
468.455,277.378
469.906,273.175
471.356,260.281
472.806,282.223
474.257,285.005
475.707,279.133
477.157,277.962
478.608,284.201
480.058,287.486
481.508,261.891
482.959,274.155
484.409,276.081
485.859,275.488
487.31,279.84
488.76,267.919
490.21,282.803
491.661,290.382
493.111,280.933
494.561,265.225
496.012,261.105
497.462,274.777
498.912,265.703
500.363,270.716
501.813,272.588
503.263,268.115
504.714,268.826
506.164,278.358
507.614,275.316
509.065,272.489
510.515,272.59
511.965,272.138
513.416,264.024
514.866,269.656
516.316,275.902
517.766,276.711
519.217,273.642
520.667,270.194
522.117,268.515
523.568,274.153
525.018,268.84
526.468,264.658
527.919,263.937
529.369,267.867
530.819,287.986
532.27,268.433
533.72,273.727
535.17,273.195
536.621,268.87
538.071,277.422
539.521,279.876
540.972,272.667
542.422,276.669
543.872,273.245
545.323,268.336
546.773,280.233
548.223,274.333
549.674,273.366
551.124,277.923
552.574,280.595
554.025,278.552
555.475,274.833
556.925,273.111
558.376,271.608
559.826,268.263
561.276,267.679
562.727,267.3
564.177,259.523
565.627,269.374
567.078,264.707
568.528,257.387
569.978,256.679
571.429,261.271
572.879,260.526
574.329,268.908
575.78,260.702
577.23,265.861
578.68,271.468
580.131,271.947
581.581,278.675
583.031,263.87
584.482,271.229
585.932,269.887
587.382,268.105
588.832,268.507
590.283,259.606
591.733,259.606
593.183,265.241
594.634,274.686
596.084,268.913
597.534,250.999
598.985,248.273
600.435,250.746
601.885,265.082
603.336,268.769
604.786,271.075
606.236,274.265
607.687,270.036
609.137,267.809
610.587,270.96
612.038,276.253
613.488,276.473
614.938,274.186
616.389,276.932
617.839,270.988
619.289,278.144
620.74,267.614
622.19,265.476
623.64,269.134
625.091,260.27
626.541,258.782
627.991,268.452
629.442,279.568
630.892,281.217
632.342,273.828
633.793,265.298
635.243,264.057
636.693,279.547
638.144,278.333
639.594,271.811
641.044,269.869
642.495,275.835
643.945,282.623
645.395,262.001
646.846,277.732
648.296,285.009
649.746,284.243
651.197,282.941
652.647,279.813
654.097,280.808
655.547,285.782
656.998,286.039
658.448,281.382
659.898,277.196
661.349,278.719
662.799,275.483
664.249,283.278
665.7,285.548
667.15,280.724
668.6,281.873
670.051,294.648
671.501,287.425
672.951,285.183
674.402,288.016
675.852,290.755
677.302,285.273
678.753,276.581
680.203,285.89
681.653,289.386
683.104,292.66
684.554,285.665
686.004,285.375
687.455,289.546
688.905,282.535
690.355,287.778
691.806,296.842
693.256,288.214
694.706,291.167
696.157,296.254
697.607,290.992
699.057,301.291
700.508,290.279
701.958,285.857
703.408,286.099
704.859,287.256
706.309,283.91
707.759,275.982
709.21,297
710.66,295.812
712.11,292.304
713.561,288.69
715.011,288.682
716.461,293.056
717.912,292.88
719.362,285.859
720.812,301.061
722.263,303.568
723.713,303.847
725.163,303.057
726.613,286.974
728.064,290.484
729.514,284.774
730.964,288.072
732.415,299.765
733.865,300.508
735.315,287.125
736.766,299.475
738.216,297.464
739.666,292.402
741.117,295.195
742.567,301.214
744.017,303.806
745.468,298.961
746.918,285.628
748.368,286.837
749.819,293.391
751.269,312.686
752.719,315.457
754.17,299.213
755.62,308.951
757.07,320.283
758.521,314.226
759.971,303.106
761.421,292.626
762.872,295.979
764.322,310.281
765.772,296.076
767.223,290.782
768.673,307.195
770.123,305.646
771.574,294.01
773.024,292.88
774.474,307.98
775.925,300.166
777.375,313.544
778.825,303.312
780.276,303.871
781.726,305.652
783.176,304.921
784.627,312.928
786.077,304.59
787.527,317.238
788.978,312.975
790.428,308.846
791.878,307.583
793.328,307.804
794.779,311.574
796.229,313.092
797.68,302.508
799.13,302.971
800.58,309.893
802.03,317.235
803.481,315.944
804.931,298.016
806.381,303.839
807.832,313.859
809.282,318.154
810.732,316.598
812.183,313.34
813.633,309.146
815.083,299.106
816.534,308.485
817.984,300.576
819.434,314.453
820.885,319.47
822.335,316.615
823.785,323.3
825.236,336.298
826.686,324.623
828.136,330.688
829.587,344.205
831.037,338.064
832.487,326.587
833.938,325.805
835.388,314.108
836.838,340.786
838.289,330.773
839.739,322.634
841.189,319.399
842.64,322.547
844.09,327.087
845.54,320.959
846.991,334.694
848.441,325.292
849.891,340.167
851.342,336.445
852.792,319.303
854.242,316.003
855.693,330.715
857.143,312.889
858.593,335.018
860.044,344.948
861.494,349.944
862.944,343.48
864.394,332.291
865.845,336.3
867.295,326.103
868.745,336.173
870.196,331.353
871.646,331.106
873.096,328.803
874.547,321.773
875.997,321.808
877.447,341.375
878.898,344.693
880.348,325.348
881.798,323.359
883.249,321.228
884.699,322.531
886.149,336.238
887.6,332.201
889.05,328.875
890.5,332.069
891.951,338.212
893.401,339.034
894.851,347.231
896.302,358.918
897.752,342.694
899.202,334.762
900.653,326.573
902.103,347.656
903.553,346.231
905.004,337.116
906.454,337.945
907.904,341.947
909.355,341.966
910.805,334.784
912.255,353.696
913.706,363.473
915.156,356.407
916.606,354.57
918.057,365.983
919.507,356.698
920.957,342.576
922.408,363.389
923.858,358.518
925.308,345.716
926.759,347.147
928.209,358.789
929.659,358.139
931.109,347.498
932.56,355.469
934.01,345.066
935.46,353.249
936.911,357.276
938.361,362.205
939.811,371.011
941.262,358.34
942.712,359.626
944.162,342.861
945.613,363.351
947.063,354.481
948.513,340.12
949.964,341.615
951.414,355.458
952.864,383.806
954.315,374.281
955.765,355.916
957.215,365.078
958.666,364.862
960.116,358.498
961.566,353.28
963.017,345.41
964.467,356.152
965.917,357.443
967.368,366.523
968.818,360.534
970.268,356.118
971.719,360.785
973.169,365.249
974.619,356.973
976.07,347.377
977.52,368.025
978.97,368.684
980.421,368.132
981.871,370.599
983.321,361.804
984.772,346.034
986.222,357.256
987.672,365.793
989.123,374.065
990.573,369.882
992.023,365.951
993.474,365.845
994.924,366.526
996.374,362.37
997.825,354.158
999.275,371.513
1000.73,381.215
1002.18,385.795
1003.63,387.074
1005.08,376.825
1006.53,373.263
1007.98,387.493
1009.43,392.27
1010.88,399.531
1012.33,399.366
1013.78,392.736
1015.23,386.783
1016.68,393.753
1018.13,401.635
1019.58,401.381
1021.03,407.574
1022.48,401.113
1023.93,405.01
1025.38,414.741
1026.83,415.42
1028.28,413.063
1029.73,407.545
1031.18,408.227
1032.63,429.135
1034.08,428.198
1035.53,413.373
1036.98,439.574
1038.43,438.461
1039.88,444.371
1041.33,452.703
1042.78,458.404
1044.23,466.805
1045.69,438.434
1047.14,461.093
1048.59,452.496
1050.04,451.481
1051.49,458.185
1052.94,463.352
1054.39,474.21
1055.84,487.229
1057.29,464.722
1058.74,469.676
1060.19,475.655
1061.64,478.349
1063.09,487.106
1064.54,500.54
1065.99,507.355
1067.44,509.654
1068.89,523.168
1070.34,528.333
1071.79,519.453
1073.24,519.33
1074.69,526.988
1076.14,517.561
1077.59,519.357
1079.04,543.341
1080.49,558.591
1081.94,542.846
1083.39,537.094
1084.84,551.312
1086.29,531.804
1087.74,523.789
1089.2,518.758
1090.65,520.899
1092.1,531.054
1093.55,532.432
1095,532.007
1096.45,533.055
1097.9,526.525
1099.35,524.081
1100.8,520.125
1102.25,528.142
1103.7,535.095
1105.15,527.871
1106.6,526.94
1108.05,519.76
1109.5,518.184
1110.95,531.733
1112.4,526.483
1113.85,512.145
1115.3,509.842
1116.75,517.478
1118.2,514.502
1119.65,496.44
1121.1,492.338
1122.55,499.692
1124,494.996
1125.45,498.626
1126.9,494.701
1128.35,495.571
1129.8,500.244
1131.25,493.278
1132.7,488.072
1134.16,492.245
1135.61,480.933
1137.06,481.163
1138.51,482.411
1139.96,478.164
1141.41,489.409
1142.86,494.937
1144.31,475.076
1145.76,492.084
1147.21,492.895
1148.66,495.796
1150.11,479.754
1151.56,476.61
1153.01,467.023
1154.46,470.787
1155.91,485.243
1157.36,486.958
1158.81,483.344
1160.26,471.808
1161.71,470.486
1163.16,473.254
1164.61,470.585
1166.06,473.604
1167.51,476.73
1168.96,473.829
1170.41,474.988
1171.86,487.823
1173.31,473.096
1174.76,495.819
1176.21,476.453
1177.66,483.264
1179.12,480.564
1180.57,472.819
1182.02,465.06
1183.47,467.66
1184.92,483.599
1186.37,477.488
1187.82,485.17
1189.27,473.79
1190.72,491.13
1192.17,500.987
1193.62,505.456
1195.07,503.562
1196.52,500.991
1197.97,499.445
1199.42,491.504
1200.87,504.36
1202.32,503.563
1203.77,507.805
1205.22,496.842
1206.67,497.625
1208.12,491.473
1209.57,483.598
1211.02,488.935
1212.47,502.545
1213.92,508.843
1215.37,506.779
1216.82,506.779
1218.27,504.833
1219.72,501.639
1221.17,501.112
1222.63,504.964
1224.08,501.999
1225.53,506.619
1226.98,533.631
1228.43,521.633
1229.88,498.726
1231.33,518.429
1232.78,509.383
1234.23,532.985
1235.68,530.101
1237.13,528.654
1238.58,522.497
1240.03,506.332
1241.48,516.506
1242.93,529.17
1244.38,532.977
1245.83,519.91
1247.28,525.11
1248.73,534.002
1250.18,526.604
1251.63,544.234
1253.08,568.972
1254.53,559.8
1255.98,536.371
1257.43,548.028
1258.88,571.577
1260.33,560.091
1261.78,558.928
1263.23,565.389
1264.68,568.7
1266.13,570.674
1267.59,567.454
1269.04,568.481
1270.49,584.024
1271.94,597.29
1273.39,620.607
1274.84,603.998
1276.29,614.802
1277.74,640.052
1279.19,633.734
1280.64,628.455
1282.09,634.186
1283.54,636.07
1284.99,643.868
1286.44,677.495
1287.89,686.37
1289.34,693.364
1290.79,703.014
1292.24,717.034
1293.69,725.497
1295.14,748.018
1296.59,780.459
1298.04,794.762
1299.49,799.615
1300.94,820.326
1302.39,841.302
1303.84,885.154
1305.29,874.952
1306.74,878.14
1308.19,937.913
1309.64,983.767
1311.09,1001.2
1312.55,1029.59
1314,1059.43
1315.45,1084.32
1316.9,1125.68
1318.35,1164.5
1319.8,1235.62
1321.25,1266.82
1322.7,1303.54
1324.15,1364.01
1325.6,1394.14
1327.05,1427.05
1328.5,1460.39
1329.95,1477.66
1331.4,1478.67
1332.85,1490.14
1334.3,1533.01
1335.75,1521.81
1337.2,1502.4
1338.65,1480.07
1340.1,1478.6
1341.55,1482.48
1343,1427.67
1344.45,1393.3
1345.9,1380.01
1347.35,1337.34
1348.8,1289.61
1350.25,1285
1351.7,1256.3
1353.15,1195.11
1354.6,1148.94
1356.06,1109.88
1357.51,1090.34
1358.96,1046.15
1360.41,1004.42
1361.86,978.716
1363.31,936.022
1364.76,888.609
1366.21,889.348
1367.66,881.491
1369.11,844.799
1370.56,853.737
1372.01,820.639
1373.46,817.123
1374.91,803.081
1376.36,789.043
1377.81,779.771
1379.26,773.004
1380.71,757.803
1382.16,737.636
1383.61,734.65
1385.06,736.133
1386.51,746.946
1387.96,723.637
1389.41,747.185
1390.86,737.331
1392.31,718.934
1393.76,706.697
1395.21,707.538
1396.66,703.419
1398.11,701.204
1399.56,711.671
1401.02,712.239
1402.47,725.673
1403.92,732.618
1405.37,699.446
1406.82,710.889
1408.27,700.838
1409.72,704.861
1411.17,699.106
1412.62,699.778
1414.07,710.761
1415.52,712.213
1416.97,716.875
1418.42,739.064
1419.87,721.494
1421.32,739.673
1422.77,745.656
1424.22,727.67
1425.67,742.82
1427.12,738.962
1428.57,740.017
1430.02,733.48
1431.47,734.413
1432.92,743.078
1434.37,759.699
1435.82,767.63
1437.27,738.322
1438.72,759.817
1440.17,768.107
1441.62,752.543
1443.07,810.574
1444.53,798.966
1445.98,798.633
1447.43,803.798
1448.88,801.896
1450.33,801.38
1451.78,820.293
1453.23,837.572
1454.68,838.855
1456.13,857.946
1457.58,850.79
1459.03,873.537
1460.48,868.885
1461.93,880.915
1463.38,878.178
1464.83,884.127
1466.28,920.266
1467.73,945.193
1469.18,944.934
1470.63,939.963
1472.08,953.342
1473.53,975.463
1474.98,979.841
1476.43,984.813
1477.88,999.699
1479.33,1044.7
1480.78,1031.8
1482.23,1035.15
1483.68,1095.06
1485.13,1101.26
1486.58,1121.87
1488.03,1147.86
1489.49,1144.48
1490.94,1171.97
1492.39,1219.09
1493.84,1234.75
1495.29,1287.21
1496.74,1270.04
1498.19,1277.79
1499.64,1360.97
1501.09,1384.06
1502.54,1418.69
1503.99,1457.03
1505.44,1493.02
1506.89,1536.95
1508.34,1584.41
1509.79,1654.44
1511.24,1712.57
1512.69,1770.45
1514.14,1876.72
1515.59,1969.94
1517.04,2031.71
1518.49,2114.09
1519.94,2192.41
1521.39,2360.16
1522.84,2478.38
1524.29,2615.28
1525.74,2769.12
1527.19,2941.31
1528.64,3135.78
1530.09,3348.92
1531.54,3595.05
1532.99,3879.43
1534.45,4160.03
1535.9,4470.02
1537.35,4923.94
1538.8,5372.58
1540.25,5873.47
1541.7,6337.9
1543.15,6852.63
1544.6,7468.22
1546.05,8119.19
1547.5,8861.04
1548.95,9555.18
1550.4,10214.5
1551.85,10937.3
1553.3,11670.3
1554.75,12400.8
1556.2,13159.4
1557.65,13856
1559.1,13878.4
1560.55,13895
1562,13927
1563.45,13936.4
1564.9,13943.5
1566.35,13935.2
1567.8,13931.7
1569.25,13942.3
1570.7,13940
1572.15,13491.3
1573.6,12793.2
1575.05,12071.6
1576.5,11344.1
1577.96,10549.6
1579.41,9736.12
1580.86,8994.82
1582.31,8308.61
1583.76,7593.36
1585.21,6975.03
1586.66,6377.64
1588.11,5867
1589.56,5422.26
1591.01,4986.14
1592.46,4623.35
1593.91,4326.56
1595.36,4013.67
1596.81,3751.29
1598.26,3483.1
1599.71,3282.42
1601.16,3146.97
1602.61,2989.03
1604.06,2844.55
1605.51,2722.08
1606.96,2592.74
1608.41,2460.14
1609.86,2356.58
1611.31,2232.87
1612.76,2187.34
1614.21,2042.75
1615.66,1988.49
1617.11,1904.46
1618.56,1853.9
1620.01,1773.45
1621.46,1708.17
1622.92,1642.58
1624.37,1590.87
1625.82,1553.72
1627.27,1508.59
1628.72,1473.8
1630.17,1427.59
1631.62,1400.45
1633.07,1366.11
1634.52,1340.82
1635.97,1297.18
1637.42,1294.73
1638.87,1257.38
1640.32,1224.55
1641.77,1218.84
1643.22,1203.23
1644.67,1184.82
1646.12,1165.62
1647.57,1161.17
1649.02,1143.96
1650.47,1118.45
1651.92,1113.33
1653.37,1110.87
1654.82,1085.15
1656.27,1069.55
1657.72,1065.21
1659.17,1043.51
1660.62,1024.33
1662.07,1028.67
1663.52,1050.41
1664.97,1039.79
1666.42,1025.85
1667.88,1016.78
1669.33,1008.39
1670.78,994.738
1672.23,973.582
1673.68,978.929
1675.13,976.284
1676.58,974.317
1678.03,960.744
1679.48,948.791
1680.93,956.764
1682.38,954.818
1683.83,947.098
1685.28,937.115
1686.73,943.777
1688.18,941.67
1689.63,938.594
1691.08,930.103
1692.53,914.146
1693.98,912.696
1695.43,929.312
1696.88,939.564
1698.33,932.348
1699.78,934.727
1701.23,920.742
1702.68,924.008
1704.13,912.508
1705.58,922.089
1707.03,921.835
1708.48,900.672
1709.93,921.615
1711.39,921.242
1712.84,920.389
1714.29,916.389
1715.74,929.963
1717.19,940.585
1718.64,921.327
1720.09,922.901
1721.54,926.296
1722.99,903.089
1724.44,907.42
1725.89,932.954
1727.34,941.481
1728.79,941.597
1730.24,918.736
1731.69,903.253
1733.14,941.681
1734.59,911.414
1736.04,904.055
1737.49,926.884
1738.94,907.833
1740.39,905.017
1741.84,922.519
1743.29,906.679
1744.74,900.647
1746.19,885.225
1747.64,876.875
1749.09,889.942
1750.54,876.967
1751.99,875.023
1753.44,888.582
1754.89,877.325
1756.35,875.43
1757.8,896.119
1759.25,890.985
1760.7,880.016
1762.15,883.925
1763.6,863.159
1765.05,864.598
1766.5,878.402
1767.95,872.641
1769.4,847.33
1770.85,844.428
1772.3,837.909
1773.75,852.103
1775.2,846.295
1776.65,844.943
1778.1,846.515
1779.55,851.424
1781,846.047
1782.45,849.165
1783.9,845.776
1785.35,856.868
1786.8,859.911
1788.25,856.277
1789.7,848.013
1791.15,845.24
1792.6,857.197
1794.05,854.582
1795.5,850.147
1796.95,846.782
1798.4,851.301
1799.85,860.433
1801.31,835.706
1802.76,835.671
1804.21,818.311
1805.66,842.854
1807.11,801.356
1808.56,818.801
1810.01,827.178
1811.46,828.233
1812.91,807.572
1814.36,833.74
1815.81,851.009
1817.26,858.215
1818.71,857.373
1820.16,846.763
1821.61,838.667
1823.06,828.638
1824.51,836.169
1825.96,838.481
1827.41,829.942
1828.86,843.999
1830.31,850.883
1831.76,843.953
1833.21,851.813
1834.66,840.988
1836.11,840.704
1837.56,830.321
1839.01,856.341
1840.46,875.692
1841.91,838.93
1843.36,849.697
1844.82,863.947
1846.27,851.097
1847.72,862.756
1849.17,870.478
1850.62,862.671
1852.07,865.15
1853.52,884.427
1854.97,885.081
1856.42,868.883
1857.87,861.835
1859.32,887.304
1860.77,898.51
1862.22,887.712
1863.67,875.858
1865.12,880.865
1866.57,884.622
1868.02,874.787
1869.47,859.751
1870.92,852.264
1872.37,864.473
1873.82,875.9
1875.27,866.899
1876.72,855.588
1878.17,864.666
1879.62,856.273
1881.07,849.178
1882.52,839.062
1883.97,841.299
1885.42,842.153
1886.87,849.701
1888.32,846.764
1889.78,835.745
1891.23,843.218
1892.68,839.43
1894.13,845.773
1895.58,839.461
1897.03,848.09
1898.48,846.869
1899.93,826.506
1901.38,829.132
1902.83,822.796
1904.28,817.205
1905.73,822.305
1907.18,835.086
1908.63,835.002
1910.08,825.962
1911.53,812.534
1912.98,800.653
1914.43,809.342
1915.88,815.948
1917.33,801.626
1918.78,801.965
1920.23,817.27
1921.68,818.683
1923.13,817.284
1924.58,814.691
1926.03,806.994
1927.48,809.543
1928.93,818.981
1930.38,814.727
1931.83,811.215
1933.29,788.536
1934.74,813.355
1936.19,819.255
1937.64,787.51
1939.09,801.083
1940.54,792.857
1941.99,811.223
1943.44,813.208
1944.89,814.085
1946.34,815.821
1947.79,797.264
1949.24,814.47
1950.69,801.096
1952.14,822.183
1953.59,826.796
1955.04,811.413
1956.49,822.048
1957.94,817.277
1959.39,806.424
1960.84,816.068
1962.29,813.044
1963.74,820.503
1965.19,826.014
1966.64,825.168
1968.09,840.016
1969.54,848.194
1970.99,850.074
1972.44,854.303
1973.89,837.783
1975.34,838.013
1976.79,846.807
1978.25,845.269
1979.7,834.71
1981.15,836.104
1982.6,842.602
1984.05,833.781
1985.5,841.159
1986.95,835.176
1988.4,824.396
1989.85,846.562
1991.3,839.71
1992.75,840.247
1994.2,843.564
1995.65,849.01
1997.1,851.72
1998.55,844.94
2000,837.26
2001.45,852.097
2002.9,842.196
2004.35,835.461
2005.8,840.432
2007.25,847.441
2008.7,852.149
2010.15,853.339
2011.6,857.97
2013.05,830.731
2014.5,824.849
2015.95,836.509
2017.4,825.962
2018.85,806.52
2020.3,835.944
2021.75,839.106
2023.21,811.485
2024.66,832.842
2026.11,822.986
2027.56,834.392
2029.01,838.545
2030.46,817.2
2031.91,819.255
2033.36,806.297
2034.81,815.657
2036.26,830.547
2037.71,821.368
2039.16,822.665
2040.61,832.35
2042.06,809.081
2043.51,793.505
2044.96,804.899
2046.41,781.656
2047.86,794.438
2049.31,805.106
2050.76,794.694
2052.21,793.047
2053.66,812.276
2055.11,816.861
2056.56,799.179
2058.01,792.134
2059.46,808.714
2060.91,810.619
2062.36,799.973
2063.81,791.436
2065.26,782.266
2066.72,785.323
2068.17,797.288
2069.62,774.997
2071.07,778.507
2072.52,801.464
2073.97,799.67
2075.42,792.754
2076.87,794.496
2078.32,790.985
2079.77,776.454
2081.22,787.579
2082.67,801.429
2084.12,797.757
2085.57,779.686
2087.02,780.886
2088.47,765.761
2089.92,764.762
2091.37,772.029
2092.82,785.387
2094.27,805.16
2095.72,794.021
2097.17,787.251
2098.62,790.026
2100.07,779.031
2101.52,769.537
2102.97,777.138
2104.42,769.462
2105.87,782.542
2107.32,787.905
2108.77,791.39
2110.22,792.989
2111.68,799.078
2113.13,789.23
2114.58,784.352
2116.03,797.725
2117.48,798.225
2118.93,785.534
2120.38,800.162
2121.83,799.206
2123.28,775.974
2124.73,790.195
2126.18,800.037
2127.63,794.349
2129.08,797.268
2130.53,803.168
2131.98,808.636
2133.43,808.089
2134.88,808.023
2136.33,803.059
2137.78,809.808
2139.23,809.53
2140.68,808.347
2142.13,800.446
2143.58,799.149
2145.03,825.682
2146.48,827.183
2147.93,817.38
2149.38,806.475
2150.83,808.193
2152.28,820.491
2153.73,821.085
2155.18,811.053
2156.64,815.837
2158.09,816.829
2159.54,813.994
2160.99,823.665
2162.44,825.028
2163.89,825.871
2165.34,818.451
2166.79,823.709
2168.24,849.487
2169.69,842.555
2171.14,831.428
2172.59,832.487
2174.04,834.183
2175.49,840.642
2176.94,842.841
2178.39,836.335
2179.84,837.585
2181.29,838.575
2182.74,843.773
2184.19,842.015
2185.64,835.753
2187.09,841.516
2188.54,848.793
2189.99,849.041
2191.44,843.843
2192.89,853.839
2194.34,853.465
2195.79,853.293
2197.24,860.965
2198.69,858.237
2200.15,845.738
2201.6,847.357
2203.05,847.858
2204.5,866.384
2205.95,861.777
2207.4,865.665
2208.85,858.034
2210.3,864.507
2211.75,873.312
2213.2,876.485
2214.65,868.785
2216.1,868.874
2217.55,875.56
2219,881.221
2220.45,857.805
2221.9,878.465
2223.35,889.646
2224.8,887.965
2226.25,873.305
2227.7,858.293
2229.15,884.719
2230.6,898.433
2232.05,897.846
2233.5,876.549
2234.95,883.038
2236.4,883.192
2237.85,887.093
2239.3,866.14
2240.75,872.053
2242.2,892.181
2243.65,904.713
2245.11,881.75
2246.56,902.725
2248.01,894.695
2249.46,892.051
2250.91,910.001
2252.36,900.798
2253.81,894.524
2255.26,904.616
2256.71,890.865
2258.16,900.19
2259.61,912.088
2261.06,906.044
2262.51,883.973
2263.96,909.488
2265.41,918.229
2266.86,905.267
2268.31,888.258
2269.76,902.339
2271.21,921.634
2272.66,911.587
2274.11,910.179
2275.56,896.827
2277.01,899.043
2278.46,925.537
2279.91,925.938
2281.36,943.71
2282.81,948.653
2284.26,917.69
2285.71,917.247
2287.16,931.43
2288.61,946.172
2290.07,932.572
2291.52,916.875
2292.97,938.284
2294.42,943.752
2295.87,947.884
2297.32,950.164
2298.77,926.721
2300.22,950.25
2301.67,983.372
2303.12,982.158
2304.57,968.075
2306.02,950.812
2307.47,956.94
2308.92,954.008
2310.37,967.218
2311.82,963.307
2313.27,976.905
2314.72,957.283
2316.17,986.822
2317.62,966.986
2319.07,977.697
2320.52,994.745
2321.97,981.023
2323.42,984.218
2324.87,1013.87
2326.32,992.778
2327.77,996.472
2329.22,989.162
2330.67,1017.14
2332.12,1021.26
2333.57,1024.69
2335.03,1027.29
2336.48,1001.61
2337.93,1000.13
2339.38,1020.94
2340.83,1041.81
2342.28,1034.02
2343.73,1044.03
2345.18,1034
2346.63,1048.38
2348.08,1064.32
2349.53,1065.75
2350.98,1063.09
2352.43,1079.69
2353.88,1073.75
2355.33,1077.94
2356.78,1080.96
2358.23,1101.81
2359.68,1090.61
2361.13,1104.83
2362.58,1135.51
2364.03,1142.7
2365.48,1120.24
2366.93,1126.14
2368.38,1153.39
2369.83,1154.84
2371.28,1148.55
2372.73,1156.27
2374.18,1192.06
2375.63,1205.05
2377.08,1212.37
2378.54,1218.53
2379.99,1218.83
2381.44,1229.4
2382.89,1265.61
2384.34,1277.1
2385.79,1267.62
2387.24,1280.27
2388.69,1308.13
2390.14,1328.95
2391.59,1353.16
2393.04,1352.08
2394.49,1358.65
2395.94,1382.24
2397.39,1371.44
2398.84,1376.34
2400.29,1439.88
2401.74,1466.4
2403.19,1472.77
2404.64,1479.53
2406.09,1483.36
2407.54,1525.1
2408.99,1510.04
2410.44,1522.59
2411.89,1517.45
2413.34,1556.48
2414.79,1574.92
2416.24,1547.26
2417.69,1584.8
2419.14,1576.5
2420.59,1590.99
2422.04,1600.77
2423.5,1592.99
2424.95,1608.87
2426.4,1621.42
2427.85,1619.5
2429.3,1597.81
2430.75,1594.19
2432.2,1578.18
2433.65,1587.45
2435.1,1593.6
2436.55,1607.02
2438,1566.59
2439.45,1576.5
2440.9,1581.27
2442.35,1575.88
2443.8,1548.29
2445.25,1540.76
2446.7,1564.48
2448.15,1544.34
2449.6,1535.79
2451.05,1544.71
2452.5,1522.01
2453.95,1532.34
2455.4,1520.81
2456.85,1507.94
2458.3,1483.52
2459.75,1448.2
2461.2,1459.38
2462.65,1460.1
2464.1,1467.39
2465.55,1479.05
2467.01,1491.67
2468.46,1453.63
2469.91,1489.05
2471.36,1484.89
2472.81,1462.63
2474.26,1451.07
2475.71,1443.47
2477.16,1478.66
2478.61,1467.13
2480.06,1457.42
2481.51,1464.92
2482.96,1439.58
2484.41,1458.84
2485.86,1450.61
2487.31,1457.42
2488.76,1456.46
2490.21,1460.99
2491.66,1449.49
2493.11,1459.76
2494.56,1491.41
2496.01,1473.54
2497.46,1479.26
2498.91,1476.61
2500.36,1504.45
2501.81,1495.22
2503.26,1489.61
2504.71,1515.48
2506.16,1527.8
2507.61,1510.15
2509.06,1525.24
2510.51,1525.99
2511.97,1517.5
2513.42,1498.24
2514.87,1545.39
2516.32,1544.27
2517.77,1534.38
2519.22,1555.92
2520.67,1560.7
2522.12,1558.07
2523.57,1584.96
2525.02,1629.92
2526.47,1642.63
2527.92,1646.11
2529.37,1648.99
2530.82,1684.06
2532.27,1697.22
2533.72,1694.42
2535.17,1709.03
2536.62,1714.3
2538.07,1751.28
2539.52,1735.77
2540.97,1772.2
2542.42,1792.57
2543.87,1795.54
2545.32,1835.16
2546.77,1827.53
2548.22,1879.96
2549.67,1925.41
2551.12,1944.67
2552.57,1957.86
2554.02,1960.02
2555.48,1970.17
2556.93,2009.59
2558.38,2057.01
2559.83,2081.8
2561.28,2106.82
2562.73,2137.5
2564.18,2214.39
2565.63,2223.53
2567.08,2281.63
2568.53,2303.37
2569.98,2407.69
2571.43,2449.6
2572.88,2483.51
2574.33,2524.65
2575.78,2584.48
2577.23,2631.97
2578.68,2686.59
2580.13,2753.67
2581.58,2788.34
2583.03,2824.76
2584.48,2921.66
2585.93,2996.08
2587.38,3059.95
2588.83,3189.99
2590.28,3233.67
2591.73,3297.42
2593.18,3425.78
2594.63,3548.97
2596.08,3630.82
2597.53,3746.03
2598.98,3899.95
2600.44,4009.05
2601.89,4119.77
2603.34,4264
2604.79,4413.94
2606.24,4517.44
2607.69,4691.14
2609.14,4843.54
2610.59,5028.65
2612.04,5166.13
2613.49,5400.19
2614.94,5518.06
2616.39,5673.32
2617.84,5951.1
2619.29,6115.71
2620.74,6329.49
2622.19,6594.04
2623.64,6811.67
2625.09,6985.53
2626.54,7198.37
2627.99,7414.62
2629.44,7669.52
2630.89,7835.99
2632.34,8063.22
2633.79,8320.02
2635.24,8551.46
2636.69,8798.68
2638.14,8971.36
2639.59,9139.36
2641.04,9371.12
2642.49,9583.81
2643.94,9727.06
2645.4,9875
2646.85,9980.96
2648.3,10113.5
2649.75,10192.5
2651.2,10255.2
2652.65,10292.6
2654.1,10224.4
2655.55,10246.1
2657,10294.4
2658.45,10211.9
2659.9,10188.2
2661.35,10148.2
2662.8,10051.3
2664.25,9871.49
2665.7,9718.79
2667.15,9602.14
2668.6,9434.2
2670.05,9160.07
2671.5,8911.77
2672.95,8815.85
2674.4,8501.42
2675.85,8360.2
2677.3,8089.12
2678.75,7843.78
2680.2,7617.57
2681.65,7325.65
2683.1,7128.56
2684.55,6920.31
2686,6725.86
2687.45,6481.5
2688.91,6196.35
2690.36,5984.21
2691.81,5727.54
2693.26,5511.74
2694.71,5329.25
2696.16,5145.22
2697.61,4874.88
2699.06,4781.88
2700.51,4649.97
2701.96,4481.9
2703.41,4305.51
2704.86,4135.49
2706.31,3981.98
2707.76,3847.95
2709.21,3701.25
2710.66,3545.48
2712.11,3428.77
2713.56,3332.71
2715.01,3229.3
2716.46,3214.66
2717.91,3059.22
2719.36,2988.08
2720.81,2885.82
2722.26,2764.05
2723.71,2730.64
2725.16,2677.71
2726.61,2582.96
2728.06,2527.15
2729.51,2505.36
2730.96,2404.79
2732.41,2383.47
2733.87,2323.8
2735.32,2238.12
2736.77,2212.77
2738.22,2162.94
2739.67,2144.04
2741.12,2095
2742.57,2063.1
2744.02,2051
2745.47,1955
2746.92,1961
2748.37,1919.82
2749.82,1910.59
2751.27,1868.49
2752.72,1829.39
2754.17,1840.67
2755.62,1782.6
2757.07,1743.44
2758.52,1746.2
2759.97,1723.26
2761.42,1705.38
2762.87,1708.04
2764.32,1656.97
2765.77,1654.67
2767.22,1655.64
2768.67,1621.57
2770.12,1602.13
2771.57,1604.84
2773.02,1576.94
2774.47,1575.27
2775.92,1557.1
2777.38,1549.84
2778.83,1534.72
2780.28,1518.92
2781.73,1499.2
2783.18,1465.61
2784.63,1504.6
2786.08,1455.47
2787.53,1462.87
2788.98,1455.01
2790.43,1435.23
2791.88,1436.86
2793.33,1427.89
2794.78,1397.18
2796.23,1416.1
2797.68,1389.73
2799.13,1414.41
2800.58,1385.01
2802.03,1373.99
2803.48,1355.4
2804.93,1389.88
2806.38,1376.94
2807.83,1350.16
2809.28,1343.04
2810.73,1344.72
2812.18,1325.39
2813.63,1344.24
2815.08,1323.16
2816.53,1324.3
2817.98,1320.43
2819.43,1326.71
2820.88,1321.18
2822.33,1302.08
2823.79,1285.89
2825.24,1297.77
2826.69,1303.44
2828.14,1298.57
2829.59,1282.25
2831.04,1288.79
2832.49,1261.41
2833.94,1264.98
2835.39,1282.6
2836.84,1268.98
2838.29,1238.53
2839.74,1230.8
2841.19,1239.02
2842.64,1260.44
2844.09,1255.14
2845.54,1244.12
2846.99,1213.8
2848.44,1262.51
2849.89,1246.57
2851.34,1243.5
2852.79,1248.55
2854.24,1245.04
2855.69,1238.27
2857.14,1236.15
2858.59,1238.38
2860.04,1211.46
2861.49,1261.71
2862.94,1210.79
2864.39,1222.51
2865.84,1243.11
2867.3,1247.49
2868.75,1226.23
2870.2,1223.94
2871.65,1219.8
2873.1,1212.75
2874.55,1202.46
2876,1198.56
2877.45,1225.9
2878.9,1232.07
2880.35,1193.03
2881.8,1197.44
2883.25,1218.24
2884.7,1222.7
2886.15,1218.76
2887.6,1212.68
2889.05,1219.67
2890.5,1228.23
2891.95,1211.39
2893.4,1214.23
2894.85,1205.53
2896.3,1210.5
2897.75,1209.83
2899.2,1211.9
2900.65,1214.23
2902.1,1212.02
2903.55,1193
2905,1200.64
2906.45,1209.26
2907.9,1199.66
2909.35,1193.63
2910.8,1187.45
2912.26,1173.21
2913.71,1185.5
2915.16,1172.56
2916.61,1179.66
2918.06,1155.03
2919.51,1184.82
2920.96,1170.68
2922.41,1186.74
2923.86,1170.94
2925.31,1161.73
2926.76,1173.31
2928.21,1166.63
2929.66,1158.27
2931.11,1148.07
2932.56,1148.13
2934.01,1146.08
2935.46,1123.4
2936.91,1121.55
2938.36,1122.17
2939.81,1120.4
2941.26,1113.71
2942.71,1108.36
2944.16,1124.23
2945.61,1120.7
2947.06,1100.36
2948.51,1100.04
2949.96,1088.79
2951.41,1098.62
2952.86,1105.02
2954.31,1099.57
2955.77,1075.95
2957.22,1074.5
2958.67,1061.65
2960.12,1082.92
2961.57,1053.85
2963.02,1071.73
2964.47,1066.19
2965.92,1070.36
2967.37,1062.64
2968.82,1062.4
2970.27,1057.99
2971.72,1057.85
2973.17,1045.37
2974.62,1043.49
2976.07,1034.83
2977.52,1030.04
2978.97,1032.37
2980.42,1040.2
2981.87,1030.83
2983.32,1032.09
2984.77,1026.79
2986.22,1031.35
2987.67,1029.41
2989.12,1044.9
2990.57,1031.27
2992.02,1034.56
2993.47,1035.17
2994.92,1036.36
2996.37,1024.02
2997.82,1036.51
2999.27,1045.09
3000.73,1020.12
3002.18,1029.74
3003.63,1003.92
3005.08,1030.97
3006.53,1033.76
3007.98,1029.41
3009.43,1031.01
3010.88,1021.1
3012.33,1010.48
3013.78,997.651
3015.23,1009.39
3016.68,1019.35
3018.13,1029.99
3019.58,996.565
3021.03,995.954
3022.48,1002.14
3023.93,1013.44
3025.38,1020.32
3026.83,1026.25
3028.28,1024.17
3029.73,1031.11
3031.18,1019.36
3032.63,1007.06
3034.08,1031.95
3035.53,1007.06
3036.98,1015.74
3038.43,990.785
3039.88,1006.62
3041.33,1048.76
3042.78,1044.08
3044.23,1021.24
3045.69,1021.16
3047.14,1013.92
3048.59,1008.8
3050.04,1018.06
3051.49,992.332
3052.94,1016.82
3054.39,1020.81
3055.84,1002.42
3057.29,1023.59
3058.74,1029.17
3060.19,1056.84
3061.64,1035.61
3063.09,1050.61
3064.54,1041.01
3065.99,1033.75
3067.44,1042.04
3068.89,1053.58
3070.34,1052.19
3071.79,1035
3073.24,1055.96
3074.69,1065.8
3076.14,1074.28
3077.59,1073.75
3079.04,1087.98
3080.49,1099.23
3081.94,1098.03
3083.39,1060.86
3084.84,1091.54
3086.29,1118.35
3087.74,1092.04
3089.2,1112.07
3090.65,1126.57
3092.1,1151.77
3093.55,1137.87
3095,1142.47
3096.45,1142.79
3097.9,1151.55
3099.35,1146.17
3100.8,1152.77
3102.25,1181.69
3103.7,1167.17
3105.15,1210.8
3106.6,1219.24
3108.05,1218.61
3109.5,1214.6
3110.95,1233.58
3112.4,1247.22
3113.85,1259.1
3115.3,1219.68
3116.75,1255.17
3118.2,1300.3
3119.65,1290.53
3121.1,1311.23
3122.55,1332.72
3124,1325.48
3125.45,1325.18
3126.9,1349.16
3128.35,1351.81
3129.8,1335.86
3131.25,1362.7
3132.7,1364.73
3134.16,1355.41
3135.61,1366.08
3137.06,1349.79
3138.51,1359.22
3139.96,1401.05
3141.41,1406.02
3142.86,1407.38
3144.31,1410.11
3145.76,1393.51
3147.21,1407.14
3148.66,1448.84
3150.11,1436.22
3151.56,1420.13
3153.01,1422.33
3154.46,1432.97
3155.91,1413.93
3157.36,1448.02
3158.81,1439.29
3160.26,1456.17
3161.71,1449.61
3163.16,1440.2
3164.61,1456.47
3166.06,1444.95
3167.51,1458.52
3168.96,1464.67
3170.41,1499.1
3171.86,1521.6
3173.31,1501.13
3174.76,1507.7
3176.21,1513.67
3177.67,1513.52
3179.12,1545.11
3180.57,1533.16
3182.02,1536.3
3183.47,1560.51
3184.92,1566.09
3186.37,1578.36
3187.82,1575.78
3189.27,1559.27
3190.72,1569.94
3192.17,1570.16
3193.62,1568.58
3195.07,1560.2
3196.52,1554.09
3197.97,1556.76
3199.42,1552.53
3200.87,1522.99
3202.32,1548.89
3203.77,1510.56
3205.22,1485.96
3206.67,1467.02
3208.12,1528.2
3209.57,1479.7
3211.02,1446.98
3212.47,1431.79
3213.92,1439.15
3215.37,1426.3
3216.82,1404.41
3218.27,1411.01
3219.72,1384.22
3221.17,1368.21
3222.63,1354.34
3224.08,1350.73
3225.53,1327.56
3226.98,1290.71
3228.43,1287.01
3229.88,1268.78
3231.33,1248.96
3232.78,1217.68
3234.23,1210.52
3235.68,1186.1
3237.13,1141.89
3238.58,1179.17
3240.03,1179.91
3241.48,1153.9
3242.93,1133.11
3244.38,1122.29
3245.83,1095.05
3247.28,1085.06
3248.73,1082.45
3250.18,1096.7
3251.63,1078.87
3253.08,1058.8
3254.53,1055.78
3255.98,1030.51
3257.43,1022.53
3258.88,1035.59
3260.33,1017.08
3261.78,1039.23
3263.23,1029.28
3264.68,1001.08
3266.13,1023.62
3267.59,1045.01
3269.04,1015.94
3270.49,1003.7
3271.94,1022.64
3273.39,995.608
3274.84,983.045
3276.29,1022.39
3277.74,979.667
3279.19,985.399
3280.64,1006.6
3282.09,1004.14
3283.54,997.216
3284.99,977.684
3286.44,985.123
3287.89,991.624
3289.34,965.95
3290.79,982.994
3292.24,988.32
3293.69,986.105
3295.14,984.3
3296.59,982.349
3298.04,971.073
3299.49,984.643
3300.94,981.589
3302.39,1003.87
3303.84,977.153
3305.29,973.557
3306.74,985.509
3308.19,978.735
3309.64,980.762
3311.09,991.058
3312.55,986.156
3314,1005.13
3315.45,989.838
3316.9,981.692
3318.35,974.977
3319.8,968.617
3321.25,984.904
3322.7,971.626
3324.15,971.785
3325.6,994.005
3327.05,994.105
3328.5,969.776
3329.95,978.732
3331.4,1000.48
3332.85,978.092
3334.3,977.23
3335.75,969.791
3337.2,975.498
3338.65,963.501
3340.1,984.884
3341.55,968.517
3343,969.973
3344.45,966.903
3345.9,972.864
3347.35,926.982
3348.8,975.446
3350.25,981.107
3351.7,991.17
3353.15,990.775
3354.6,980.215
3356.06,973.689
3357.51,991.666
3358.96,950.193
3360.41,959.558
3361.86,965.297
3363.31,979.326
3364.76,953.057
3366.21,969.03
3367.66,993.645
3369.11,989.3
3370.56,983.558
3372.01,986.235
3373.46,959.1
3374.91,993.517
3376.36,996.959
3377.81,983.876
3379.26,965.567
3380.71,997.611
3382.16,1005.69
3383.61,990.581
3385.06,982.718
3386.51,972.385
3387.96,985.453
3389.41,1008.78
3390.86,1006.39
3392.31,973.244
3393.76,983.502
3395.21,992.785
3396.66,961.016
3398.11,992.372
3399.56,988.418
3401.02,989.464
3402.47,988.461
3403.92,976.53
3405.37,992.169
3406.82,968.533
3408.27,1003.54
3409.72,985.607
3411.17,989.645
3412.62,971.235
3414.07,999.561
3415.52,970.323
3416.97,995.83
3418.42,994.424
3419.87,985.941
3421.32,981.029
3422.77,980.177
3424.22,991.806
3425.67,1011.74
3427.12,1022.73
3428.57,992.826
3430.02,997.607
3431.47,991.304
3432.92,972.993
3434.37,987.807
3435.82,1001.51
3437.27,1003.24
3438.72,1008.68
3440.17,986.773
3441.62,992.333
3443.07,996.839
3444.52,1007.67
3445.98,995.069
3447.43,966.695
3448.88,976.983
3450.33,983.741
3451.78,992.185
3453.23,1010.43
3454.68,989.652
3456.13,995.401
3457.58,1020.47
3459.03,995.209
3460.48,989.409
3461.93,991.66
3463.38,983.126
3464.83,1003.12
3466.28,1002.51
3467.73,978.956
3469.18,1010.77
3470.63,1001.19
3472.08,996.83
3473.53,991.232
3474.98,999.878
3476.43,970.79
3477.88,1017.27
3479.33,1005.08
3480.78,1002.01
3482.23,1012.83
3483.68,1007.07
3485.13,997.191
3486.58,1004.38
3488.03,990.879
3489.49,990.664
3490.94,992.405
3492.39,993.986
3493.84,1008.93
3495.29,991.565
3496.74,1004.46
3498.19,990.432
3499.64,1025.7
3501.09,991.087
3502.54,1024.24
3503.99,1011.65
3505.44,994.47
3506.89,1018.33
3508.34,1015.29
3509.79,1031.68
3511.24,1026.16
3512.69,1024.67
3514.14,1011.64
3515.59,1021.55
3517.04,1053.56
3518.49,1028.46
3519.94,1011.52
3521.39,991.659
3522.84,1037.23
3524.29,1014.92
3525.74,1003.07
3527.19,1028.52
3528.64,1017.53
3530.09,1024.25
3531.54,1001.25
3532.99,1004.14
3534.45,1015.53
3535.9,1039.61
3537.35,1013.39
3538.8,1013.78
3540.25,996.1
3541.7,999.812
3543.15,1005.44
3544.6,1013.23
3546.05,1042.02
3547.5,1030.79
3548.95,1039.22
3550.4,1033.64
3551.85,1033.64
3553.3,1000.88
3554.75,1008.59
3556.2,1009.91
3557.65,1029.02
3559.1,1019.31
3560.55,1013.95
3562,1001.28
3563.45,1036.46
3564.9,1033.67
3566.35,1014.5
3567.8,1038.49
3569.25,1020.27
3570.7,1031.93
3572.15,1034.48
3573.6,1038.69
3575.05,1032.65
3576.5,1003.47
3577.96,1000.41
3579.41,1025.8
3580.86,1017.62
3582.31,1031.5
3583.76,1039.76
3585.21,1037.33
3586.66,1028.79
3588.11,1044.67
3589.56,1023.58
3591.01,1040.99
3592.46,1052.95
3593.91,1025.07
3595.36,1028.63
3596.81,1044.04
3598.26,1038.5
3599.71,1019.85
3601.16,1034.2
3602.61,1046.03
3604.06,1033.05
3605.51,1030.83
3606.96,1029.04
3608.41,1044.91
3609.86,1035.9
3611.31,1048.31
3612.76,1024.97
3614.21,1023.7
3615.66,1065.15
3617.11,1032.99
3618.56,1044.84
3620.01,1036.26
3621.46,1048.41
3622.92,1046.96
3624.37,1047.66
3625.82,1047.94
3627.27,1051.69
3628.72,1020.61
3630.17,1036.21
3631.62,1050.7
3633.07,1028.21
3634.52,1048.41
3635.97,1050.66
3637.42,1048.2
3638.87,1056.83
3640.32,1028.12
3641.77,1069.94
3643.22,1072.01
3644.67,1055.5
3646.12,1056.15
3647.57,1059.37
3649.02,1054.2
3650.47,1066.54
3651.92,1057.85
3653.37,1068.06
3654.82,1062.39
3656.27,1057.01
3657.72,1052.55
3659.17,1068.17
3660.62,1076.58
3662.07,1066.51
3663.52,1063.67
3664.97,1068.61
3666.43,1062.06
3667.88,1081.57
3669.33,1049.58
3670.78,1054.62
3672.23,1066.72
3673.68,1077.13
3675.13,1077.28
3676.58,1081.47
3678.03,1065.04
3679.48,1081.65
3680.93,1089.31
3682.38,1065.75
3683.83,1064.48
3685.28,1062.6
3686.73,1087.51
3688.18,1078.7
3689.63,1081.18
3691.08,1071.17
3692.53,1087.96
3693.98,1076.05
3695.43,1086.75
3696.88,1075.6
3698.33,1063.37
3699.78,1063.47
3701.23,1076.67
3702.68,1081.14
3704.13,1100.64
3705.58,1080.93
3707.03,1100.43
3708.48,1079.65
3709.93,1074.7
3711.39,1086.99
3712.84,1059.45
3714.29,1094.48
3715.74,1084.03
3717.19,1086.57
3718.64,1093.66
3720.09,1085.76
3721.54,1085.27
3722.99,1085.24
3724.44,1090.95
3725.89,1078.76
3727.34,1065.78
3728.79,1069.54
3730.24,1065.09
3731.69,1097.52
3733.14,1093.53
3734.59,1096.79
3736.04,1082.92
3737.49,1086.68
3738.94,1099.96
3740.39,1119.08
3741.84,1081.93
3743.29,1114.13
3744.74,1123.97
3746.19,1093.07
3747.64,1106.18
3749.09,1116.56
3750.54,1088.3
3751.99,1093.44
3753.44,1100.37
3754.89,1102.94
3756.35,1113.93
3757.8,1108.52
3759.25,1107.83
3760.7,1108.74
3762.15,1104.89
3763.6,1092.12
3765.05,1112.18
3766.5,1111.51
3767.95,1117.93
3769.4,1114.07
3770.85,1110.32
3772.3,1100.29
3773.75,1102.19
3775.2,1110.42
3776.65,1106.82
3778.1,1123.74
3779.55,1107.85
3781,1125.47
3782.45,1138.96
3783.9,1118.75
3785.35,1101.88
3786.8,1144.03
3788.25,1101.49
3789.7,1123.14
3791.15,1105.29
3792.6,1139.37
3794.05,1116.68
3795.5,1102.15
3796.95,1111.12
3798.4,1099.18
3799.85,1124.54
3801.31,1125.15
3802.76,1102.49
3804.21,1152.01
3805.66,1147.6
3807.11,1148.48
3808.56,1137.51
3810.01,1147.32
3811.46,1155.29
3812.91,1152.8
3814.36,1135.72
3815.81,1136.6
3817.26,1141.84
3818.71,1141.01
3820.16,1152.62
3821.61,1155.44
3823.06,1134.06
3824.51,1127.05
3825.96,1149.34
3827.41,1150.34
3828.86,1148.39
3830.31,1159.7
3831.76,1148.72
3833.21,1155.79
3834.66,1173.06
3836.11,1170.39
3837.56,1163.2
3839.01,1155.32
3840.46,1155.79
3841.91,1145.65
3843.36,1143.69
3844.82,1111.38
3846.27,1151.53
3847.72,1166.41
3849.17,1163.77
3850.62,1183.67
3852.07,1169.54
3853.52,1163.2
3854.97,1164.91
3856.42,1163.43
3857.87,1163.21
3859.32,1175.01
3860.77,1169.68
3862.22,1167.64
3863.67,1181.39
3865.12,1178.98
3866.57,1167.78
3868.02,1168.13
3869.47,1193.8
3870.92,1167.31
3872.37,1161.34
3873.82,1179.82
3875.27,1203.61
3876.72,1216.35
3878.17,1210.85
3879.62,1179.55
3881.07,1186.75
3882.52,1185.86
3883.97,1189.1
3885.42,1202.4
3886.87,1201.41
3888.32,1211.53
3889.78,1193.87
3891.23,1204.36
3892.68,1198.66
3894.13,1196
3895.58,1205.72
3897.03,1220.77
3898.48,1223.3
3899.93,1232.48
3901.38,1226.17
3902.83,1201.56
3904.28,1228.69
3905.73,1231.63
3907.18,1232.94
3908.63,1211.1
3910.08,1226.16
3911.53,1221.59
3912.98,1241.54
3914.43,1231.19
3915.88,1233.17
3917.33,1219.81
3918.78,1210.6
3920.23,1234.94
3921.68,1242.72
3923.13,1259.39
3924.58,1237.77
3926.03,1248.35
3927.48,1243.29
3928.93,1286.73
3930.38,1242.15
3931.83,1248.22
3933.28,1253.64
3934.74,1259.82
3936.19,1281.8
3937.64,1267.61
3939.09,1248.07
3940.54,1282.61
3941.99,1268.62
3943.44,1259.49
3944.89,1265.34
3946.34,1278.3
3947.79,1292
3949.24,1282.58
3950.69,1286.82
3952.14,1294.43
3953.59,1301.36
3955.04,1305.58
3956.49,1267.66
3957.94,1310.96
3959.39,1281.43
3960.84,1278.17
3962.29,1288.47
3963.74,1281.99
3965.19,1271.54
3966.64,1320.22
3968.09,1289.99
3969.54,1314.38
3970.99,1283.88
3972.44,1309.22
3973.89,1304.78
3975.34,1333.74
3976.79,1326.92
3978.25,1335.55
3979.7,1332.28
3981.15,1318.56
3982.6,1326.34
3984.05,1338.63
3985.5,1344.58
3986.95,1362.27
3988.4,1339.59
3989.85,1345.5
3991.3,1340.15
3992.75,1348.8
3994.2,1365.08
3995.65,1336.41
3997.1,1403.45
3998.55,1345.78
4000,1348.67
