0.1,3.03722
1.45033,3.03722
2.90065,3.03722
4.35098,3.03722
5.80131,3.03722
7.25163,3.03722
8.70196,12.7064
10.1523,5.57385
11.6026,4.39202
13.0529,4.87621
14.5033,5.45239
15.9536,4.94147
17.4039,1.98171
18.8542,0.169485
20.3046,0.133601
21.7549,1.17958
23.2052,2.43918
24.6555,2.29108
26.1059,1.63477
27.5562,0.463858
29.0065,0.108059
30.4569,2.23747
31.9072,1.05169
33.3575,0.979136
34.8078,0.854007
36.2582,0.466431
37.7085,0.911362
39.1588,0.124741
40.6091,0.963314
42.0595,2.68861
43.5098,4.2196
44.9601,4.8133
46.4104,4.5517
47.8608,7.04056
49.3111,12.3083
50.7614,18.5725
52.2117,46.2017
53.6621,89.7962
55.1124,155.35
56.5627,243.899
58.0131,349.278
59.4634,452.519
60.9137,545.075
62.364,609.933
63.8144,639.133
65.2647,692.682
66.715,715.654
68.1653,735.539
69.6157,758.047
71.066,779.415
72.5163,788.79
73.9666,786.028
75.417,779.022
76.8673,779.854
78.3176,812.625
79.7679,818.83
81.2183,832.215
82.6686,855.596
84.1189,885.696
85.5693,905.521
87.0196,911.09
88.4699,910.363
89.9202,891.015
91.3706,836.846
92.8209,792.089
94.2712,751.14
95.7215,705.769
97.1719,664.325
98.6222,652.383
100.073,629.113
101.523,602.043
102.973,577.384
104.423,558.44
105.874,543.201
107.324,530.669
108.774,524.63
110.225,515.346
111.675,497.556
113.125,501.443
114.576,509.25
116.026,504.844
117.476,489.054
118.927,470.154
120.377,475.397
121.827,465.538
123.278,460.014
124.728,459.731
126.178,452.694
127.629,442.82
129.079,432.606
130.529,425.794
131.98,421.721
133.43,413.031
134.88,402.495
136.331,388.876
137.781,382.697
139.231,384.824
140.682,367.73
142.132,372.251
143.582,365.142
145.033,353.262
146.483,345.948
147.933,334.542
149.384,344.404
150.834,341.321
152.284,329.289
153.735,323.043
155.185,336.56
156.635,325.178
158.086,320.838
159.536,326.845
160.986,333.83
162.437,332.778
163.887,321.19
165.337,307.784
166.788,297.263
168.238,292.091
169.688,293.446
171.139,286.935
172.589,283.177
174.039,282.117
175.489,273.076
176.94,290.812
178.39,295.225
179.84,294.122
181.291,291.501
182.741,285.476
184.191,278.425
185.642,271.768
187.092,264.328
188.542,259.928
189.993,272.304
191.443,262.12
192.893,262.037
194.344,267.877
195.794,270.689
197.244,255.301
198.695,258.739
200.145,259.677
201.595,256.071
203.046,249.867
204.496,248.659
205.946,254.828
207.397,258.391
208.847,262.249
210.297,266.689
211.748,260.795
213.198,261.537
214.648,263.802
216.099,263.212
217.549,259.074
218.999,260.889
220.45,266.436
221.9,263.11
223.35,255.588
224.801,251.3
226.251,259.926
227.701,257.347
229.152,262.687
230.602,258.944
232.052,242.296
233.503,255.639
234.953,256.419
236.403,257.033
237.854,257.644
239.304,257.59
240.754,257.286
242.204,254.866
243.655,252.702
245.105,247.219
246.555,239.568
248.006,241.994
249.456,242.992
250.906,247.084
252.357,251.452
253.807,250.628
255.257,234.973
256.708,238.909
258.158,242.528
259.608,244.5
261.059,246.148
262.509,251.32
263.959,230.013
265.41,227.163
266.86,227.342
268.31,228.696
269.761,244.143
271.211,236.53
272.661,233.47
274.112,228.599
275.562,225.477
277.012,233.784
278.463,233.175
279.913,234.997
281.363,232.855
282.814,230.188
284.264,233.405
285.714,225.323
287.165,227.402
288.615,230.165
290.065,226.191
291.516,214.039
292.966,221.67
294.416,229.701
295.867,224.659
297.317,217.453
298.767,217.991
300.218,214.788
301.668,216.889
303.118,217.833
304.569,209.35
306.019,196.153
307.469,208.381
308.919,202.953
310.37,204.263
311.82,203.626
313.27,199.304
314.721,198.996
316.171,198.538
317.621,200.455
319.072,195.613
320.522,190.964
321.972,200.463
323.423,199.698
324.873,193.062
326.323,192.67
327.774,196.93
329.224,199.244
330.674,192.195
332.125,198.684
333.575,199.041
335.025,193.736
336.476,187.564
337.926,187.104
339.376,186.351
340.827,188.913
342.277,190.567
343.727,191.06
345.178,194.396
346.628,184.112
348.078,188.79
349.529,198.594
350.979,203.492
352.429,196.01
353.88,184.643
355.33,190.824
356.78,194.669
358.231,195.095
359.681,194.071
361.131,189.613
362.582,182.546
364.032,179.369
365.482,181.389
366.933,184.713
368.383,180.618
369.833,179.078
371.284,176.56
372.734,176.488
374.184,176.882
375.635,175.58
377.085,186.36
378.535,191.448
379.986,183.104
381.436,176.372
382.886,180.873
384.336,184.881
385.787,180.367
387.237,176.961
388.687,178.653
390.138,183.504
391.588,185.206
393.038,182.429
394.489,175.388
395.939,178.943
397.389,183.958
398.84,179.266
400.29,171.855
401.74,182.808
403.191,176.988
404.641,176.196
406.091,182.546
407.542,173.086
408.992,177.876
410.442,183.424
411.893,184.57
413.343,184.158
414.793,184.898
416.244,176.392
417.694,183.015
419.144,183.539
420.595,177.722
422.045,172.681
423.495,179.649
424.946,177.947
426.396,175.612
427.846,171.483
429.297,174.137
430.747,185.919
432.197,173.046
433.648,179.632
435.098,177.362
436.548,172.592
437.999,171.107
439.449,173.143
440.899,166.629
442.35,175.44
443.8,175.058
445.25,170.79
446.701,173.836
448.151,182.537
449.601,181.292
451.051,179.582
452.502,178.357
453.952,174.534
455.402,165.475
456.853,176.205
458.303,173.178
459.753,173.407
461.204,173.885
462.654,171.81
464.104,172.893
465.555,170.56
467.005,173.852
468.455,177.255
469.906,174.57
471.356,166.33
472.806,180.351
474.257,182.129
475.707,178.377
477.157,177.629
478.608,181.616
480.058,183.715
481.508,167.359
482.959,175.195
484.409,176.426
485.859,176.047
487.31,178.829
488.76,171.211
490.21,180.722
491.661,185.565
493.111,179.527
494.561,169.489
496.012,166.856
497.462,175.593
498.912,169.794
500.363,172.998
501.813,174.194
503.263,171.336
504.714,171.79
506.164,177.882
507.614,175.938
509.065,174.131
510.515,174.196
511.965,173.907
513.416,168.721
514.866,172.321
516.316,176.312
517.766,176.829
519.217,174.868
520.667,172.664
522.117,171.591
523.568,175.195
525.018,171.799
526.468,169.127
527.919,168.666
529.369,171.177
530.819,184.034
532.27,171.539
533.72,174.922
535.17,174.582
536.621,171.818
538.071,177.284
539.521,178.852
540.972,174.245
542.422,176.802
543.872,174.614
545.323,171.477
546.773,179.08
548.223,175.31
549.674,174.691
551.124,177.604
552.574,179.311
554.025,178.006
555.475,175.629
556.925,174.529
558.376,173.568
559.826,171.43
561.276,171.057
562.727,170.815
564.177,165.845
565.627,172.141
567.078,169.158
568.528,164.48
569.978,164.028
571.429,166.962
572.879,166.486
574.329,171.843
575.78,166.599
577.23,169.896
578.68,173.478
580.131,173.785
581.581,178.084
583.031,168.623
584.482,173.326
585.932,172.468
587.382,171.33
588.832,171.586
590.283,165.898
591.733,165.898
593.183,169.499
594.634,175.535
596.084,171.846
597.534,160.398
598.985,158.656
600.435,160.236
601.885,169.398
603.336,171.754
604.786,173.227
606.236,175.266
607.687,172.564
609.137,171.14
610.587,173.154
612.038,176.536
613.488,176.677
614.938,175.216
616.389,176.97
617.839,173.172
619.289,177.745
620.74,171.016
622.19,169.65
623.64,171.987
625.091,166.323
626.541,165.372
627.991,171.551
629.442,178.655
630.892,179.709
632.342,174.987
633.793,169.536
635.243,168.743
636.693,178.641
638.144,177.866
639.594,173.698
641.044,172.457
642.495,176.269
643.945,180.607
645.395,167.429
646.846,177.481
648.296,182.132
649.746,181.642
651.197,180.811
652.647,178.811
654.097,179.447
655.547,182.626
656.998,182.79
658.448,179.814
659.898,177.139
661.349,178.112
662.799,176.044
664.249,181.025
665.7,182.476
667.15,179.393
668.6,180.128
670.051,188.292
671.501,183.676
672.951,182.243
674.402,184.054
675.852,185.804
677.302,182.3
678.753,176.746
680.203,182.695
681.653,184.929
683.104,187.021
684.554,182.551
686.004,182.365
687.455,185.031
688.905,180.551
690.355,183.901
691.806,189.694
693.256,184.18
694.706,186.067
696.157,189.318
697.607,185.955
699.057,192.537
700.508,185.5
701.958,182.673
703.408,182.829
704.859,183.568
706.309,181.43
707.759,176.363
709.21,189.794
710.66,189.035
712.11,186.793
713.561,184.484
715.011,184.479
716.461,187.274
717.912,187.162
719.362,182.675
720.812,192.39
722.263,193.992
723.713,194.17
725.163,193.665
726.613,183.388
728.064,185.63
729.514,181.982
730.964,184.089
732.415,191.561
733.865,192.036
735.315,183.484
736.766,191.376
738.216,190.091
739.666,186.856
741.117,188.641
742.567,192.487
744.017,194.144
745.468,191.047
746.918,182.527
748.368,183.3
749.819,187.488
751.269,199.819
752.719,201.589
754.17,191.209
755.62,197.431
757.07,204.673
758.521,200.802
759.971,193.696
761.421,186.999
762.872,189.142
764.322,198.282
765.772,189.204
767.223,185.821
768.673,196.309
770.123,195.32
771.574,187.884
773.024,187.162
774.474,196.811
775.925,191.818
777.375,200.366
778.825,193.828
780.276,194.185
781.726,195.323
783.176,194.857
784.627,199.973
786.077,194.645
787.527,202.727
788.978,200.003
790.428,197.365
791.878,196.557
793.328,196.699
794.779,199.108
796.229,200.078
797.68,193.314
799.13,193.61
800.58,198.034
802.03,202.726
803.481,201.9
804.931,190.444
806.381,194.165
807.832,200.568
809.282,203.313
810.732,202.319
812.183,200.236
813.633,197.556
815.083,191.14
816.534,197.134
817.984,192.08
819.434,200.948
820.885,204.154
822.335,202.329
823.785,206.601
825.236,214.907
826.686,207.447
828.136,211.322
829.587,219.96
831.037,216.036
832.487,208.702
833.938,208.202
835.388,200.727
836.838,217.776
838.289,211.377
839.739,206.175
841.189,204.108
842.64,206.12
844.09,209.021
845.54,205.105
846.991,213.883
848.441,207.874
849.891,217.38
851.342,215.001
852.792,204.047
854.242,201.938
855.693,211.34
857.143,199.948
858.593,214.089
860.044,220.435
861.494,223.628
862.944,219.497
864.394,212.347
865.845,214.909
867.295,208.392
868.745,214.828
870.196,211.747
871.646,211.589
873.096,210.118
874.547,205.625
875.997,205.648
877.447,218.152
878.898,220.272
880.348,207.91
881.798,206.639
883.249,205.277
884.699,206.11
886.149,214.869
887.6,212.289
889.05,210.164
890.5,212.205
891.951,216.131
893.401,216.656
894.851,221.894
896.302,229.363
897.752,218.995
899.202,213.926
900.653,208.693
902.103,222.166
903.553,221.255
905.004,215.43
906.454,215.96
907.904,218.517
909.355,218.529
910.805,213.94
912.255,226.026
913.706,232.273
915.156,227.758
916.606,226.584
918.057,233.878
919.507,227.944
920.957,218.919
922.408,232.22
923.858,229.107
925.308,220.926
926.759,221.841
928.209,229.28
929.659,228.865
931.109,222.064
932.56,227.158
934.01,220.51
935.46,225.74
936.911,228.313
938.361,231.463
939.811,237.09
941.262,228.993
942.712,229.815
944.162,219.101
945.613,232.195
947.063,226.527
948.513,217.35
949.964,218.305
951.414,227.152
952.864,245.267
954.315,239.18
955.765,227.444
957.215,233.299
958.666,233.161
960.116,229.094
961.566,225.759
963.017,220.731
964.467,227.595
965.917,228.42
967.368,234.223
968.818,230.395
970.268,227.573
971.719,230.556
973.169,233.408
974.619,228.119
976.07,221.987
977.52,235.182
978.97,235.604
980.421,235.251
981.871,236.827
983.321,231.207
984.772,221.129
986.222,228.3
987.672,233.756
989.123,239.042
990.573,236.369
992.023,233.857
993.474,233.789
994.924,234.224
996.374,231.568
997.825,226.321
999.275,237.411
1000.73,243.611
1002.18,246.538
1003.63,247.355
1005.08,240.806
1006.53,238.529
1007.98,247.623
1009.43,250.675
1010.88,255.316
1012.33,255.21
1013.78,250.974
1015.23,247.169
1016.68,251.624
1018.13,256.661
1019.58,256.498
1021.03,260.455
1022.48,256.327
1023.93,258.817
1025.38,265.035
1026.83,265.47
1028.28,263.963
1029.73,260.437
1031.18,260.873
1032.63,274.234
1034.08,273.635
1035.53,264.161
1036.98,280.905
1038.43,280.194
1039.88,283.97
1041.33,289.295
1042.78,292.938
1044.23,298.307
1045.69,280.176
1047.14,294.656
1048.59,289.162
1050.04,288.514
1051.49,292.798
1052.94,296.1
1054.39,303.039
1055.84,311.358
1057.29,296.976
1058.74,300.141
1060.19,303.962
1061.64,305.683
1063.09,311.28
1064.54,319.865
1065.99,324.219
1067.44,325.689
1068.89,334.324
1070.34,337.625
1071.79,331.951
1073.24,331.872
1074.69,336.765
1076.14,330.742
1077.59,331.89
1079.04,347.216
1080.49,356.962
1081.94,346.899
1083.39,343.224
1084.84,352.31
1086.29,339.844
1087.74,334.722
1089.2,331.507
1090.65,332.875
1092.1,339.364
1093.55,340.245
1095,339.973
1096.45,340.643
1097.9,336.47
1099.35,334.908
1100.8,332.38
1102.25,337.503
1103.7,341.946
1105.15,337.33
1106.6,336.735
1108.05,332.147
1109.5,331.14
1110.95,339.798
1112.4,336.443
1113.85,327.281
1115.3,325.809
1116.75,330.689
1118.2,328.786
1119.65,317.244
1121.1,314.623
1122.55,319.323
1124,316.322
1125.45,318.641
1126.9,316.133
1128.35,316.689
1129.8,319.675
1131.25,315.224
1132.7,311.897
1134.16,314.563
1135.61,307.335
1137.06,307.482
1138.51,308.279
1139.96,305.565
1141.41,312.751
1142.86,316.284
1144.31,303.592
1145.76,314.461
1147.21,314.979
1148.66,316.833
1150.11,306.581
1151.56,304.573
1153.01,298.446
1154.46,300.851
1155.91,310.089
1157.36,311.185
1158.81,308.876
1160.26,301.503
1161.71,300.659
1163.16,302.427
1164.61,300.722
1166.06,302.651
1167.51,304.649
1168.96,302.795
1170.41,303.536
1171.86,311.738
1173.31,302.327
1174.76,316.848
1176.21,304.472
1177.66,308.824
1179.12,307.099
1180.57,302.15
1182.02,297.191
1183.47,298.853
1184.92,309.038
1186.37,305.133
1187.82,310.042
1189.27,302.77
1190.72,313.851
1192.17,320.15
1193.62,323.006
1195.07,321.796
1196.52,320.153
1197.97,319.165
1199.42,314.09
1200.87,322.306
1202.32,321.796
1203.77,324.507
1205.22,317.502
1206.67,318.002
1208.12,314.07
1209.57,309.038
1211.02,312.449
1212.47,321.146
1213.92,325.17
1215.37,323.852
1216.82,323.852
1218.27,322.608
1219.72,320.567
1221.17,320.23
1222.63,322.692
1224.08,320.797
1225.53,323.749
1226.98,341.011
1228.43,333.344
1229.88,318.706
1231.33,331.296
1232.78,325.515
1234.23,340.598
1235.68,338.755
1237.13,337.83
1238.58,333.896
1240.03,323.566
1241.48,330.067
1242.93,338.16
1244.38,340.593
1245.83,332.243
1247.28,335.565
1248.73,341.248
1250.18,336.52
1251.63,347.786
1253.08,363.595
1254.53,357.734
1255.98,342.762
1257.43,350.211
1258.88,365.26
1260.33,357.92
1261.78,357.176
1263.23,361.306
1264.68,363.421
1266.13,364.682
1267.59,362.625
1269.04,363.281
1270.49,373.214
1271.94,381.692
1273.39,396.592
1274.84,385.978
1276.29,392.883
1277.74,409.018
1279.19,404.981
1280.64,401.607
1282.09,405.269
1283.54,406.474
1284.99,411.456
1286.44,432.946
1287.89,438.617
1289.34,443.086
1290.79,449.253
1292.24,458.213
1293.69,463.621
1295.14,478.012
1296.59,498.743
1298.04,507.884
1299.49,510.985
1300.94,524.22
1302.39,537.625
1303.84,565.648
1305.29,559.128
1306.74,561.166
1308.19,599.363
1309.64,628.665
1311.09,639.809
1312.55,657.951
1314,677.015
1315.45,692.924
1316.9,719.354
1318.35,744.161
1319.8,789.607
1321.25,809.545
1322.7,833.01
1324.15,871.652
1325.6,890.91
1327.05,911.937
1328.5,933.245
1329.95,944.284
1331.4,944.928
1332.85,952.26
1334.3,979.651
1335.75,972.493
1337.2,960.091
1338.65,945.82
1340.1,944.882
1341.55,947.364
1343,912.338
1344.45,890.372
1345.9,881.883
1347.35,854.612
1348.8,824.111
1350.25,821.168
1351.7,802.826
1353.15,763.722
1354.6,734.216
1356.06,709.256
1357.51,696.767
1358.96,668.531
1360.41,641.862
1361.86,625.437
1363.31,598.154
1364.76,567.855
1366.21,568.328
1367.66,563.307
1369.11,539.86
1370.56,545.571
1372.01,524.42
1373.46,522.174
1374.91,513.2
1376.36,504.229
1377.81,498.304
1379.26,493.979
1380.71,484.265
1382.16,471.378
1383.61,469.47
1385.06,470.418
1386.51,477.328
1387.96,462.432
1389.41,477.48
1390.86,471.183
1392.31,459.427
1393.76,451.606
1395.21,452.144
1396.66,449.512
1398.11,448.096
1399.56,454.785
1401.02,455.148
1402.47,463.733
1403.92,468.171
1405.37,446.973
1406.82,454.286
1408.27,447.862
1409.72,450.434
1411.17,446.756
1412.62,447.185
1414.07,454.204
1415.52,455.132
1416.97,458.111
1418.42,472.29
1419.87,461.062
1421.32,472.679
1422.77,476.503
1424.22,465.009
1425.67,474.691
1427.12,472.225
1428.57,472.9
1430.02,468.722
1431.47,469.318
1432.92,474.856
1434.37,485.477
1435.82,490.545
1437.27,471.816
1438.72,485.552
1440.17,490.85
1441.62,480.904
1443.07,517.988
1444.53,510.57
1445.98,510.357
1447.43,513.658
1448.88,512.443
1450.33,512.113
1451.78,524.199
1453.23,535.241
1454.68,536.061
1456.13,548.261
1457.58,543.688
1459.03,558.224
1460.48,555.251
1461.93,562.939
1463.38,561.19
1464.83,564.992
1466.28,588.086
1467.73,604.015
1469.18,603.849
1470.63,600.673
1472.08,609.222
1473.53,623.359
1474.98,626.156
1476.43,629.334
1477.88,638.846
1479.33,667.605
1480.78,659.357
1482.23,661.501
1483.68,699.786
1485.13,703.747
1486.58,716.917
1488.03,733.525
1489.49,731.368
1490.94,748.935
1492.39,779.044
1493.84,789.055
1495.29,822.575
1496.74,811.604
1498.19,816.56
1499.64,869.716
1501.09,884.47
1502.54,906.595
1503.99,931.096
1505.44,954.098
1506.89,982.171
1508.34,1012.5
1509.79,1057.25
1511.24,1094.4
1512.69,1131.38
1514.14,1199.29
1515.59,1258.87
1517.04,1298.34
1518.49,1350.98
1519.94,1401.04
1521.39,1508.23
1522.84,1583.78
1524.29,1671.26
1525.74,1769.58
1527.19,1879.61
1528.64,2003.88
1530.09,2140.09
1531.54,2297.38
1532.99,2479.11
1534.45,2658.42
1535.9,2856.51
1537.35,3146.59
1538.8,3433.29
1540.25,3753.37
1541.7,4050.16
1543.15,4379.09
1544.6,4772.48
1546.05,5188.48
1547.5,5662.55
1548.95,6106.13
1550.4,6527.46
1551.85,6989.35
1553.3,7457.79
1554.75,7924.6
1556.2,8409.39
1557.65,8854.54
1559.1,8868.84
1560.55,8879.43
1562,8899.86
1563.45,8905.92
1564.9,8910.46
1566.35,8905.16
1567.8,8902.89
1569.25,8909.7
1570.7,8908.19
1572.15,8621.49
1573.6,8175.36
1575.05,7714.25
1576.5,7249.35
1577.96,6741.63
1579.41,6221.76
1580.86,5748.04
1582.31,5309.52
1583.76,4852.45
1585.21,4457.32
1586.66,4075.56
1588.11,3749.24
1589.56,3465.04
1591.01,3186.34
1592.46,2954.5
1593.91,2764.84
1595.36,2564.89
1596.81,2397.22
1598.26,2225.84
1599.71,2097.6
1601.16,2011.03
1602.61,1910.1
1604.06,1817.78
1605.51,1739.51
1606.96,1656.86
1608.41,1572.12
1609.86,1505.95
1611.31,1426.89
1612.76,1397.8
1614.21,1305.39
1615.66,1270.72
1617.11,1217.02
1618.56,1184.71
1620.01,1133.31
1621.46,1091.58
1622.92,1049.67
1624.37,1016.63
1625.82,992.885
1627.27,964.048
1628.72,941.818
1630.17,912.285
1631.62,894.943
1633.07,872.999
1634.52,856.837
1635.97,828.946
1637.42,827.38
1638.87,803.515
1640.32,782.533
1641.77,778.886
1643.22,768.913
1644.67,757.147
1646.12,744.877
1647.57,742.035
1649.02,731.037
1650.47,714.736
1651.92,711.464
1653.37,709.892
1654.82,693.454
1656.27,683.484
1657.72,680.712
1659.17,666.846
1660.62,654.587
1662.07,657.362
1663.52,671.256
1664.97,664.467
1666.42,655.557
1667.88,649.762
1669.33,644.401
1670.78,635.676
1672.23,622.156
1673.68,625.574
1675.13,623.883
1676.58,622.626
1678.03,613.953
1679.48,606.314
1680.93,611.409
1682.38,610.166
1683.83,605.232
1685.28,598.853
1686.73,603.11
1688.18,601.764
1689.63,599.798
1691.08,594.372
1692.53,584.174
1693.98,583.248
1695.43,593.866
1696.88,600.418
1698.33,595.807
1699.78,597.327
1701.23,588.39
1702.68,590.477
1704.13,583.128
1705.58,589.251
1707.03,589.088
1708.48,575.564
1709.93,588.947
1711.39,588.709
1712.84,588.164
1714.29,585.608
1715.74,594.283
1717.19,601.07
1718.64,588.764
1720.09,589.769
1721.54,591.939
1722.99,577.109
1724.44,579.877
1725.89,596.194
1727.34,601.643
1728.79,601.717
1730.24,587.108
1731.69,577.214
1733.14,601.771
1734.59,582.429
1736.04,577.726
1737.49,592.315
1738.94,580.141
1740.39,578.341
1741.84,589.526
1743.29,579.403
1744.74,575.548
1746.19,565.693
1747.64,560.357
1749.09,568.707
1750.54,560.416
1751.99,559.173
1753.44,567.838
1754.89,560.645
1756.35,559.434
1757.8,572.655
1759.25,569.374
1760.7,562.364
1762.15,564.862
1763.6,551.592
1765.05,552.512
1766.5,561.333
1767.95,557.651
1769.4,541.477
1770.85,539.622
1772.3,535.457
1773.75,544.527
1775.2,540.815
1776.65,539.951
1778.1,540.956
1779.55,544.093
1781,540.656
1782.45,542.65
1783.9,540.484
1785.35,547.572
1786.8,549.516
1788.25,547.194
1789.7,541.913
1791.15,540.141
1792.6,547.782
1794.05,546.111
1795.5,543.277
1796.95,541.126
1798.4,544.015
1799.85,549.85
1801.31,534.048
1802.76,534.026
1804.21,522.932
1805.66,538.617
1807.11,512.098
1808.56,523.246
1810.01,528.599
1811.46,529.273
1812.91,516.07
1814.36,532.792
1815.81,543.828
1817.26,548.433
1818.71,547.895
1820.16,541.114
1821.61,535.941
1823.06,529.532
1824.51,534.344
1825.96,535.822
1827.41,530.365
1828.86,539.348
1830.31,543.747
1831.76,539.319
1833.21,544.341
1834.66,537.424
1836.11,537.242
1837.56,530.607
1839.01,547.235
1840.46,559.601
1841.91,536.109
1843.36,542.989
1844.82,552.096
1846.27,543.884
1847.72,551.334
1849.17,556.269
1850.62,551.28
1852.07,552.864
1853.52,565.183
1854.97,565.601
1856.42,555.25
1857.87,550.746
1859.32,567.022
1860.77,574.183
1862.22,567.283
1863.67,559.707
1865.12,562.907
1866.57,565.308
1868.02,559.023
1869.47,549.414
1870.92,544.63
1872.37,552.432
1873.82,559.734
1875.27,553.982
1876.72,546.754
1878.17,552.555
1879.62,547.192
1881.07,542.658
1882.52,536.193
1883.97,537.623
1885.42,538.169
1886.87,542.992
1888.32,541.115
1889.78,534.073
1891.23,538.849
1892.68,536.428
1894.13,540.482
1895.58,536.448
1897.03,541.963
1898.48,541.182
1899.93,528.169
1901.38,529.848
1902.83,525.799
1904.28,522.226
1905.73,525.485
1907.18,533.652
1908.63,533.598
1910.08,527.822
1911.53,519.241
1912.98,511.648
1914.43,517.201
1915.88,521.422
1917.33,512.27
1918.78,512.487
1920.23,522.267
1921.68,523.17
1923.13,522.276
1924.58,520.619
1926.03,515.7
1927.48,517.329
1928.93,523.361
1930.38,520.642
1931.83,518.398
1933.29,503.905
1934.74,519.765
1936.19,523.536
1937.64,503.249
1939.09,511.923
1940.54,506.666
1941.99,518.403
1943.44,519.671
1944.89,520.232
1946.34,521.341
1947.79,509.483
1949.24,520.478
1950.69,511.931
1952.14,525.407
1953.59,528.355
1955.04,518.524
1956.49,525.32
1957.94,522.272
1959.39,515.336
1960.84,521.499
1962.29,519.567
1963.74,524.333
1965.19,527.855
1966.64,527.314
1968.09,536.803
1969.54,542.029
1970.99,543.23
1972.44,545.933
1973.89,535.376
1975.34,535.523
1976.79,541.142
1978.25,540.159
1979.7,533.412
1981.15,534.303
1982.6,538.455
1984.05,532.818
1985.5,537.533
1986.95,533.71
1988.4,526.821
1989.85,540.986
1991.3,536.607
1992.75,536.95
1994.2,539.07
1995.65,542.55
1997.1,544.282
1998.55,539.95
2000,535.041
2001.45,544.523
2002.9,538.196
2004.35,533.892
2005.8,537.068
2007.25,541.548
2008.7,544.556
2010.15,545.317
2011.6,548.276
2013.05,530.869
2014.5,527.111
2015.95,534.562
2017.4,527.822
2018.85,515.398
2020.3,534.201
2021.75,536.221
2023.21,518.57
2024.66,532.218
2026.11,525.92
2027.56,533.209
2029.01,535.863
2030.46,522.223
2031.91,523.536
2033.36,515.255
2034.81,521.237
2036.26,530.752
2037.71,524.886
2039.16,525.715
2040.61,531.904
2042.06,517.034
2043.51,507.08
2044.96,514.362
2046.41,499.508
2047.86,507.677
2049.31,514.494
2050.76,507.84
2052.21,506.787
2053.66,519.076
2055.11,522.006
2056.56,510.706
2058.01,506.204
2059.46,516.8
2060.91,518.017
2062.36,511.214
2063.81,505.758
2065.26,499.898
2066.72,501.852
2068.17,509.498
2069.62,495.253
2071.07,497.496
2072.52,512.167
2073.97,511.02
2075.42,506.601
2076.87,507.714
2078.32,505.47
2079.77,496.184
2081.22,503.293
2082.67,512.144
2084.12,509.797
2085.57,498.249
2087.02,499.017
2088.47,489.351
2089.92,488.712
2091.37,493.357
2092.82,501.893
2094.27,514.528
2095.72,507.41
2097.17,503.084
2098.62,504.857
2100.07,497.831
2101.52,491.764
2102.97,496.621
2104.42,491.716
2105.87,500.074
2107.32,503.502
2108.77,505.729
2110.22,506.75
2111.68,510.642
2113.13,504.349
2114.58,501.231
2116.03,509.777
2117.48,510.096
2118.93,501.987
2120.38,511.334
2121.83,510.724
2123.28,495.877
2124.73,504.965
2126.18,511.255
2127.63,507.62
2129.08,509.485
2130.53,513.256
2131.98,516.75
2133.43,516.4
2134.88,516.358
2136.33,513.186
2137.78,517.499
2139.23,517.321
2140.68,516.565
2142.13,511.516
2143.58,510.687
2145.03,527.643
2146.48,528.602
2147.93,522.338
2149.38,515.369
2150.83,516.467
2152.28,524.326
2153.73,524.705
2155.18,518.294
2156.64,521.352
2158.09,521.985
2159.54,520.174
2160.99,526.354
2162.44,527.225
2163.89,527.764
2165.34,523.022
2166.79,526.382
2168.24,542.855
2169.69,538.425
2171.14,531.315
2172.59,531.991
2174.04,533.076
2175.49,537.203
2176.94,538.608
2178.39,534.45
2179.84,535.249
2181.29,535.882
2182.74,539.204
2184.19,538.08
2185.64,534.079
2187.09,537.762
2188.54,542.412
2189.99,542.57
2191.44,539.248
2192.89,545.636
2194.34,545.397
2195.79,545.287
2197.24,550.19
2198.69,548.447
2200.15,540.459
2201.6,541.494
2203.05,541.814
2204.5,553.653
2205.95,550.709
2207.4,553.194
2208.85,548.317
2210.3,552.454
2211.75,558.08
2213.2,560.108
2214.65,555.187
2216.1,555.244
2217.55,559.517
2219,563.135
2220.45,548.171
2221.9,561.373
2223.35,568.518
2224.8,567.444
2226.25,558.076
2227.7,548.483
2229.15,565.37
2230.6,574.134
2232.05,573.758
2233.5,560.149
2234.95,564.295
2236.4,564.394
2237.85,566.887
2239.3,553.497
2240.75,557.276
2242.2,570.138
2243.65,578.147
2245.11,563.472
2246.56,576.876
2248.01,571.745
2249.46,570.055
2250.91,581.526
2252.36,575.645
2253.81,571.636
2255.26,578.085
2256.71,569.297
2258.16,575.256
2259.61,582.859
2261.06,578.997
2262.51,564.893
2263.96,581.198
2265.41,586.784
2266.86,578.501
2268.31,567.631
2269.76,576.63
2271.21,588.96
2272.66,582.539
2274.11,581.64
2275.56,573.107
2277.01,574.523
2278.46,591.454
2279.91,591.71
2281.36,603.068
2282.81,606.226
2284.26,586.44
2285.71,586.156
2287.16,595.22
2288.61,604.641
2290.07,595.95
2291.52,585.919
2292.97,599.6
2294.42,603.094
2295.87,605.735
2297.32,607.191
2298.77,592.211
2300.22,607.247
2301.67,628.413
2303.12,627.637
2304.57,618.637
2306.02,607.606
2307.47,611.522
2308.92,609.648
2310.37,618.09
2311.82,615.59
2313.27,624.28
2314.72,611.741
2316.17,630.618
2317.62,617.941
2319.07,624.786
2320.52,635.68
2321.97,626.911
2323.42,628.954
2324.87,647.899
2326.32,634.424
2327.77,636.784
2329.22,632.113
2330.67,649.993
2332.12,652.627
2333.57,654.813
2335.03,656.48
2336.48,640.065
2337.93,639.122
2339.38,652.418
2340.83,665.756
2342.28,660.777
2343.73,667.178
2345.18,660.766
2346.63,669.953
2348.08,680.144
2349.53,681.055
2350.98,679.353
2352.43,689.966
2353.88,686.17
2355.33,688.846
2356.78,690.773
2358.23,704.097
2359.68,696.939
2361.13,706.028
2362.58,725.632
2364.03,730.231
2365.48,715.88
2366.93,719.646
2368.38,737.061
2369.83,737.989
2371.28,733.969
2372.73,738.904
2374.18,761.77
2375.63,770.071
2377.08,774.754
2378.54,778.689
2379.99,778.878
2381.44,785.635
2382.89,808.774
2384.34,816.113
2385.79,810.06
2387.24,818.141
2388.69,835.946
2390.14,849.248
2391.59,864.721
2393.04,864.033
2394.49,868.232
2395.94,883.305
2397.39,876.404
2398.84,879.537
2400.29,920.139
2401.74,937.089
2403.19,941.159
2404.64,945.48
2406.09,947.924
2407.54,974.596
2408.99,964.972
2410.44,972.992
2411.89,969.708
2413.34,994.648
2414.79,1006.44
2416.24,988.761
2417.69,1012.75
2419.14,1007.44
2420.59,1016.7
2422.04,1022.95
2423.5,1017.98
2424.95,1028.13
2426.4,1036.15
2427.85,1034.93
2429.3,1021.06
2430.75,1018.75
2432.2,1008.52
2433.65,1014.44
2435.1,1018.37
2436.55,1026.95
2438,1001.11
2439.45,1007.44
2440.9,1010.49
2442.35,1007.05
2443.8,989.419
2445.25,984.607
2446.7,999.763
2448.15,986.892
2449.6,981.429
2451.05,987.127
2452.5,972.621
2453.95,979.227
2455.4,971.857
2456.85,963.632
2458.3,948.03
2459.75,925.459
2461.2,932.602
2462.65,933.063
2464.1,937.717
2465.55,945.17
2467.01,953.236
2468.46,928.924
2469.91,951.563
2471.36,948.9
2472.81,934.675
2474.26,927.29
2475.71,922.432
2477.16,944.92
2478.61,937.55
2480.06,931.345
2481.51,936.143
2482.96,919.95
2484.41,932.254
2485.86,926.995
2487.31,931.345
2488.76,930.733
2490.21,933.631
2491.66,926.283
2493.11,932.844
2494.56,953.069
2496.01,941.651
2497.46,945.306
2498.91,943.611
2500.36,961.4
2501.81,955.506
2503.26,951.919
2504.71,968.452
2506.16,976.321
2507.61,965.047
2509.06,974.687
2510.51,975.164
2511.97,969.738
2513.42,957.435
2514.87,987.565
2516.32,986.847
2517.77,980.529
2519.22,994.292
2520.67,997.349
2522.12,995.669
2523.57,1012.85
2525.02,1041.58
2526.47,1049.7
2527.92,1051.93
2529.37,1053.77
2530.82,1076.18
2532.27,1084.59
2533.72,1082.8
2535.17,1092.14
2536.62,1095.5
2538.07,1119.13
2539.52,1109.22
2540.97,1132.5
2542.42,1145.52
2543.87,1147.42
2545.32,1172.74
2546.77,1167.86
2548.22,1201.37
2549.67,1230.41
2551.12,1242.72
2552.57,1251.15
2554.02,1252.53
2555.48,1259.02
2556.93,1284.21
2558.38,1314.51
2559.83,1330.35
2561.28,1346.34
2562.73,1365.94
2564.18,1415.08
2565.63,1420.92
2567.08,1458.05
2568.53,1471.94
2569.98,1538.6
2571.43,1565.39
2572.88,1587.06
2574.33,1613.35
2575.78,1651.58
2577.23,1681.93
2578.68,1716.84
2580.13,1759.7
2581.58,1781.86
2583.03,1805.13
2584.48,1867.06
2585.93,1914.61
2587.38,1955.43
2588.83,2038.52
2590.28,2066.44
2591.73,2107.18
2593.18,2189.21
2594.63,2267.93
2596.08,2320.24
2597.53,2393.86
2598.98,2492.22
2600.44,2561.94
2601.89,2632.69
2603.34,2724.86
2604.79,2820.68
2606.24,2886.82
2607.69,2997.82
2609.14,3095.21
2610.59,3213.5
2612.04,3301.36
2613.49,3450.93
2614.94,3526.25
2616.39,3625.47
2617.84,3802.99
2619.29,3908.18
2620.74,4044.79
2622.19,4213.84
2623.64,4352.92
2625.09,4464.03
2626.54,4600.04
2627.99,4738.23
2629.44,4901.12
2630.89,5007.5
2632.34,5152.71
2633.79,5316.82
2635.24,5464.71
2636.69,5622.7
2638.14,5733.05
2639.59,5840.41
2641.04,5988.51
2642.49,6124.43
2643.94,6215.97
2645.4,6310.5
2646.85,6378.22
2648.3,6462.89
2649.75,6513.43
2651.2,6553.48
2652.65,6577.36
2654.1,6533.77
2655.55,6547.63
2657,6578.5
2658.45,6525.82
2659.9,6510.65
2661.35,6485.07
2662.8,6423.16
2664.25,6308.26
2665.7,6210.69
2667.15,6136.14
2668.6,6028.82
2670.05,5853.64
2671.5,5694.97
2672.95,5633.67
2674.4,5432.74
2675.85,5342.49
2677.3,5169.26
2678.75,5012.48
2680.2,4867.92
2681.65,4681.37
2683.1,4555.43
2684.55,4422.34
2686,4298.08
2687.45,4141.93
2688.91,3959.71
2690.36,3824.14
2691.81,3660.12
2693.26,3522.22
2694.71,3405.59
2696.16,3287.99
2697.61,3115.24
2699.06,3055.8
2700.51,2971.51
2701.96,2864.11
2703.41,2751.39
2704.86,2642.74
2706.31,2544.64
2707.76,2458.99
2709.21,2365.24
2710.66,2265.7
2712.11,2191.12
2713.56,2129.73
2715.01,2063.65
2716.46,2054.29
2717.91,1954.96
2719.36,1909.5
2720.81,1844.15
2722.26,1766.34
2723.71,1744.98
2725.16,1711.16
2726.61,1650.61
2728.06,1614.94
2729.51,1601.02
2730.96,1536.75
2732.41,1523.13
2733.87,1485
2735.32,1430.24
2736.77,1414.04
2738.22,1382.2
2739.67,1370.13
2741.12,1338.79
2742.57,1318.4
2744.02,1310.67
2745.47,1249.32
2746.92,1253.15
2748.37,1226.84
2749.82,1220.94
2751.27,1194.04
2752.72,1169.05
2754.17,1176.26
2755.62,1139.15
2757.07,1114.13
2758.52,1115.89
2759.97,1101.23
2761.42,1089.81
2762.87,1091.5
2764.32,1058.87
2765.77,1057.4
2767.22,1058.02
2768.67,1036.25
2770.12,1023.82
2771.57,1025.56
2773.02,1007.72
2774.47,1006.66
2775.92,995.049
2777.38,990.411
2778.83,980.748
2780.28,970.647
2781.73,958.048
2783.18,936.582
2784.63,961.498
2786.08,930.104
2787.53,934.834
2788.98,929.809
2790.43,917.166
2791.88,918.21
2793.33,912.474
2794.78,892.854
2796.23,904.946
2797.68,888.094
2799.13,903.864
2800.58,885.076
2802.03,878.031
2803.48,866.151
2804.93,888.185
2806.38,879.915
2807.83,862.807
2809.28,858.252
2810.73,859.326
2812.18,846.978
2813.63,859.024
2815.08,845.547
2816.53,846.281
2817.98,843.807
2819.43,847.818
2820.88,844.284
2822.33,832.079
2823.79,821.735
2825.24,829.325
2826.69,832.949
2828.14,829.839
2829.59,819.405
2831.04,823.589
2832.49,806.088
2833.94,808.373
2835.39,819.632
2836.84,810.93
2838.29,791.469
2839.74,786.528
2841.19,791.779
2842.64,805.467
2844.09,802.085
2845.54,795.04
2846.99,775.662
2848.44,806.791
2849.89,796.607
2851.34,794.647
2852.79,797.87
2854.24,795.631
2855.69,791.302
2857.14,789.948
2858.59,791.371
2860.04,774.172
2861.49,806.284
2862.94,773.74
2864.39,781.231
2865.84,794.397
2867.3,797.197
2868.75,783.607
2870.2,782.147
2871.65,779.499
2873.1,774.996
2874.55,768.421
2876,765.924
2877.45,783.395
2878.9,787.338
2880.35,762.39
2881.8,765.213
2883.25,778.5
2884.7,781.352
2886.15,778.833
2887.6,774.951
2889.05,779.415
2890.5,784.886
2891.95,774.126
2893.4,775.942
2894.85,770.381
2896.3,773.559
2897.75,773.127
2899.2,774.452
2900.65,775.942
2902.1,774.527
2903.55,762.375
2905,767.256
2906.45,772.764
2907.9,766.628
2909.35,762.776
2910.8,758.827
2912.26,749.724
2913.71,757.578
2915.16,749.312
2916.61,753.848
2918.06,738.107
2919.51,757.147
2920.96,748.113
2922.41,758.372
2923.86,748.279
2925.31,742.39
2926.76,749.789
2928.21,745.523
2929.66,740.179
2931.11,733.658
2932.56,733.702
2934.01,732.392
2935.46,717.898
2936.91,716.712
2938.36,717.108
2939.81,715.981
2941.26,711.703
2942.71,708.287
2944.16,718.425
2945.61,716.17
2947.06,703.175
2948.51,702.969
2949.96,695.777
2951.41,702.059
2952.86,706.148
2954.31,702.668
2955.77,687.575
2957.22,686.65
2958.67,678.433
2960.12,692.026
2961.57,673.449
2963.02,684.879
2964.47,681.336
2965.92,684.002
2967.37,679.068
2968.82,678.917
2970.27,676.097
2971.72,676.005
2973.17,668.032
2974.62,666.832
2976.07,661.299
2977.52,658.237
2978.97,659.727
2980.42,664.729
2981.87,658.743
2983.32,659.549
2984.77,656.159
2986.22,659.073
2987.67,657.832
2989.12,667.732
2990.57,659.02
2992.02,661.123
2993.47,661.511
2994.92,662.275
2996.37,654.389
2997.82,662.368
2999.27,667.854
3000.73,651.894
3002.18,658.045
3003.63,641.542
3005.08,658.829
3006.53,660.614
3007.98,657.834
3009.43,658.858
3010.88,652.52
3012.33,645.733
3013.78,637.537
3015.23,645.039
3016.68,651.407
3018.13,658.205
3019.58,636.843
3021.03,636.453
3022.48,640.406
3023.93,647.624
3025.38,652.023
3026.83,655.812
3028.28,654.483
3029.73,658.921
3031.18,651.409
3032.63,643.548
3034.08,659.454
3035.53,643.551
3036.98,649.095
3038.43,633.15
3039.88,643.269
3041.33,670.197
3042.78,667.205
3044.23,652.614
3045.69,652.558
3047.14,647.931
3048.59,644.664
3050.04,650.581
3051.49,634.138
3052.94,649.786
3054.39,652.336
3055.84,640.584
3057.29,654.116
3058.74,657.682
3060.19,675.361
3061.64,661.794
3063.09,671.382
3064.54,665.243
3065.99,660.609
3067.44,665.905
3068.89,673.277
3070.34,672.39
3071.79,661.408
3073.24,674.798
3074.69,681.088
3076.14,686.507
3077.59,686.169
3079.04,695.258
3080.49,702.451
3081.94,701.681
3083.39,677.93
3084.84,697.536
3086.29,714.667
3087.74,697.858
3089.2,710.659
3090.65,719.922
3092.1,736.024
3093.55,727.143
3095,730.082
3096.45,730.286
3097.9,735.887
3099.35,732.445
3100.8,736.662
3102.25,755.146
3103.7,745.869
3105.15,773.748
3106.6,779.143
3108.05,778.742
3109.5,776.177
3110.95,788.306
3112.4,797.023
3113.85,804.612
3115.3,779.423
3116.75,802.1
3118.2,830.944
3119.65,824.702
3121.1,837.928
3122.55,851.661
3124,847.031
3125.45,846.842
3126.9,862.164
3128.35,863.859
3129.8,853.667
3131.25,870.82
3132.7,872.114
3134.16,866.159
3135.61,872.976
3137.06,862.565
3138.51,868.596
3139.96,895.328
3141.41,898.499
3142.86,899.369
3144.31,901.117
3145.76,890.508
3147.21,899.218
3148.66,925.867
3150.11,917.801
3151.56,907.518
3153.01,908.926
3154.46,915.72
3155.91,903.553
3157.36,925.338
3158.81,919.761
3160.26,930.551
3161.71,926.359
3163.16,920.344
3164.61,930.74
3166.06,923.378
3167.51,932.049
3168.96,935.984
3170.41,957.98
3171.86,972.364
3173.31,959.281
3174.76,963.481
3176.21,967.295
3177.67,967.196
3179.12,987.384
3180.57,979.749
3182.02,981.754
3183.47,997.228
3184.92,1000.79
3186.37,1008.63
3187.82,1006.98
3189.27,996.433
3190.72,1003.25
3192.17,1003.39
3193.62,1002.38
3195.07,997.031
3196.52,993.127
3197.97,994.83
3199.42,992.128
3200.87,973.249
3202.32,989.798
3203.77,965.304
3205.22,949.589
3206.67,937.482
3208.12,976.579
3209.57,945.586
3211.02,924.679
3212.47,914.971
3213.92,919.67
3215.37,911.46
3216.82,897.47
3218.27,901.692
3219.72,884.569
3221.17,874.339
3222.63,865.478
3224.08,863.17
3225.53,848.362
3226.98,824.815
3228.43,822.447
3229.88,810.802
3231.33,798.135
3232.78,778.144
3234.23,773.566
3235.68,757.964
3237.13,729.714
3238.58,753.538
3240.03,754.01
3241.48,737.389
3242.93,724.1
3244.38,717.188
3245.83,699.781
3247.28,693.394
3248.73,691.729
3250.18,700.836
3251.63,689.44
3253.08,676.614
3254.53,674.687
3255.98,658.534
3257.43,653.434
3258.88,661.781
3260.33,649.953
3261.78,664.107
3263.23,657.748
3264.68,639.729
3266.13,654.13
3267.59,667.804
3269.04,649.228
3270.49,641.405
3271.94,653.51
3273.39,636.232
3274.84,628.204
3276.29,653.349
3277.74,626.045
3279.19,629.708
3280.64,643.258
3282.09,641.683
3283.54,637.26
3284.99,624.778
3286.44,629.532
3287.89,633.686
3289.34,617.279
3290.79,628.171
3292.24,631.575
3293.69,630.159
3295.14,629.006
3296.59,627.759
3298.04,620.553
3299.49,629.225
3300.94,627.273
3302.39,641.514
3303.84,624.439
3305.29,622.141
3306.74,629.779
3308.19,625.45
3309.64,626.745
3311.09,633.324
3312.55,630.192
3314,642.319
3315.45,632.545
3316.9,627.339
3318.35,623.048
3319.8,618.984
3321.25,629.392
3322.7,620.907
3324.15,621.008
3325.6,635.208
3327.05,635.272
3328.5,619.725
3329.95,625.447
3331.4,639.346
3332.85,625.039
3334.3,624.488
3335.75,619.734
3337.2,623.381
3338.65,615.714
3340.1,629.379
3341.55,618.92
3343,619.85
3344.45,617.888
3345.9,621.698
3347.35,592.377
3348.8,623.348
3350.25,626.965
3351.7,633.396
3353.15,633.143
3354.6,626.396
3356.06,622.225
3357.51,633.713
3358.96,607.21
3360.41,613.195
3361.86,616.862
3363.31,625.827
3364.76,609.041
3366.21,619.248
3367.66,634.977
3369.11,632.201
3370.56,628.531
3372.01,630.242
3373.46,612.902
3374.91,634.896
3376.36,637.095
3377.81,628.735
3379.26,617.035
3380.71,637.512
3382.16,642.672
3383.61,633.02
3385.06,627.995
3386.51,621.392
3387.96,629.743
3389.41,644.648
3390.86,643.123
3392.31,621.941
3393.76,628.496
3395.21,634.428
3396.66,614.127
3398.11,634.164
3399.56,631.638
3401.02,632.306
3402.47,631.665
3403.92,624.041
3405.37,634.035
3406.82,618.93
3408.27,641.303
3409.72,629.841
3411.17,632.421
3412.62,620.657
3414.07,638.758
3415.52,620.074
3416.97,636.374
3418.42,635.475
3419.87,630.055
3421.32,626.915
3422.77,626.371
3424.22,633.802
3425.67,646.54
3427.12,653.561
3428.57,634.454
3430.02,637.509
3431.47,633.482
3432.92,621.78
3434.37,631.247
3435.82,640.005
3437.27,641.109
3438.72,644.582
3440.17,630.586
3441.62,634.139
3443.07,637.019
3444.52,643.942
3445.98,635.888
3447.43,617.756
3448.88,624.33
3450.33,628.649
3451.78,634.044
3453.23,645.705
3454.68,632.426
3456.13,636.1
3457.58,652.117
3459.03,635.977
3460.48,632.271
3461.93,633.709
3463.38,628.256
3464.83,641.03
3466.28,640.645
3467.73,625.591
3469.18,645.92
3470.63,639.798
3472.08,637.013
3473.53,633.435
3474.98,638.961
3476.43,620.372
3477.88,650.077
3479.33,642.284
3480.78,640.324
3482.23,647.239
3483.68,643.558
3485.13,637.244
3486.58,641.837
3488.03,633.21
3489.49,633.073
3490.94,634.185
3492.39,635.195
3493.84,644.745
3495.29,633.649
3496.74,641.891
3498.19,632.925
3499.64,655.464
3501.09,633.343
3502.54,654.53
3503.99,646.486
3505.44,635.505
3506.89,650.755
3508.34,648.812
3509.79,659.281
3511.24,655.755
3512.69,654.804
3514.14,646.477
3515.59,652.81
3517.04,673.265
3518.49,657.225
3519.94,646.4
3521.39,633.709
3522.84,662.832
3524.29,648.572
3525.74,641.001
3527.19,657.262
3528.64,650.241
3530.09,654.533
3531.54,639.84
3532.99,641.684
3534.45,648.96
3535.9,664.353
3537.35,647.598
3538.8,647.847
3540.25,636.547
3541.7,638.919
3543.15,642.513
3544.6,647.493
3546.05,665.893
3547.5,658.715
3548.95,664.099
3550.4,660.536
3551.85,660.539
3553.3,639.602
3554.75,644.53
3556.2,645.373
3557.65,657.583
3559.1,651.378
3560.55,647.953
3562,639.859
3563.45,662.336
3564.9,660.558
3566.35,648.305
3567.8,663.636
3569.25,651.994
3570.7,659.446
3572.15,661.075
3573.6,663.765
3575.05,659.903
3576.5,641.258
3577.96,639.298
3579.41,655.528
3580.86,650.296
3582.31,659.169
3583.76,664.445
3585.21,662.895
3586.66,657.439
3588.11,667.587
3589.56,654.104
3591.01,665.232
3592.46,672.873
3593.91,655.061
3595.36,657.335
3596.81,667.182
3598.26,663.644
3599.71,651.725
3601.16,660.895
3602.61,668.451
3604.06,660.162
3605.51,658.741
3606.96,657.597
3608.41,667.741
3609.86,661.98
3611.31,669.909
3612.76,654.993
3614.21,654.183
3615.66,680.669
3617.11,660.118
3618.56,667.693
3620.01,662.21
3621.46,669.975
3622.92,669.046
3624.37,669.498
3625.82,669.674
3627.27,672.073
3628.72,652.21
3630.17,662.181
3631.62,671.437
3633.07,657.063
3634.52,669.972
3635.97,671.415
3637.42,669.838
3638.87,675.352
3640.32,657.007
3641.77,683.734
3643.22,685.058
3644.67,674.503
3646.12,674.919
3647.57,676.979
3649.02,673.675
3650.47,681.559
3651.92,676.009
3653.37,682.529
3654.82,678.908
3656.27,675.469
3657.72,672.618
3659.17,682.603
3660.62,687.974
3662.07,681.544
3663.52,679.728
3664.97,682.882
3666.43,678.7
3667.88,691.162
3669.33,670.723
3670.78,673.94
3672.23,681.673
3673.68,688.331
3675.13,688.424
3676.58,691.103
3678.03,680.6
3679.48,691.216
3680.93,696.108
3682.38,681.054
3683.83,680.245
3685.28,679.043
3686.73,694.962
3688.18,689.33
3689.63,690.917
3691.08,684.517
3692.53,695.246
3693.98,687.637
3695.43,694.474
3696.88,687.351
3698.33,679.534
3699.78,679.599
3701.23,688.036
3702.68,690.889
3704.13,703.349
3705.58,690.754
3707.03,703.22
3708.48,689.941
3709.93,686.776
3711.39,694.631
3712.84,677.03
3714.29,699.416
3715.74,692.74
3717.19,694.358
3718.64,698.893
3720.09,693.843
3721.54,693.526
3722.99,693.511
3724.44,697.16
3725.89,689.367
3727.34,681.075
3728.79,683.48
3730.24,680.631
3731.69,701.361
3733.14,698.806
3734.59,700.889
3736.04,692.028
3737.49,694.428
3738.94,702.918
3740.39,715.138
3741.84,691.395
3743.29,711.974
3744.74,718.261
3746.19,698.516
3747.64,706.894
3749.09,713.527
3750.54,695.467
3751.99,698.748
3753.44,703.177
3754.89,704.819
3756.35,711.845
3757.8,708.389
3759.25,707.948
3760.7,708.528
3762.15,706.064
3763.6,697.908
3765.05,710.726
3766.5,710.295
3767.95,714.402
3769.4,711.932
3770.85,709.535
3772.3,703.125
3773.75,704.342
3775.2,709.603
3776.65,707.303
3778.1,718.116
3779.55,707.959
3781,719.218
3782.45,727.837
3783.9,714.923
3785.35,704.144
3786.8,731.081
3788.25,703.895
3789.7,717.731
3791.15,706.322
3792.6,728.1
3794.05,713.599
3795.5,704.315
3796.95,710.046
3798.4,702.416
3799.85,718.625
3801.31,719.015
3802.76,704.537
3804.21,736.177
3805.66,733.36
3807.11,733.923
3808.56,726.914
3810.01,733.18
3811.46,738.274
3812.91,736.686
3814.36,725.768
3815.81,726.335
3817.26,729.678
3818.71,729.148
3820.16,736.571
3821.61,738.369
3823.06,724.708
3824.51,720.228
3825.96,734.471
3827.41,735.113
3828.86,733.866
3830.31,741.096
3831.76,734.074
3833.21,738.593
3834.66,749.632
3836.11,747.925
3837.56,743.331
3839.01,738.291
3840.46,738.593
3841.91,732.115
3843.36,730.861
3844.82,710.218
3846.27,735.871
3847.72,745.379
3849.17,743.692
3850.62,756.41
3852.07,747.382
3853.52,743.329
3854.97,744.424
3856.42,743.478
3857.87,743.339
3859.32,750.879
3860.77,747.469
3862.22,746.168
3863.67,754.957
3865.12,753.417
3866.57,746.258
3868.02,746.481
3869.47,762.882
3870.92,745.959
3872.37,742.14
3873.82,753.952
3875.27,769.155
3876.72,777.296
3878.17,773.778
3879.62,753.775
3881.07,758.38
3882.52,757.813
3883.97,759.878
3885.42,768.383
3886.87,767.748
3888.32,774.217
3889.78,762.928
3891.23,769.632
3892.68,765.992
3894.13,764.29
3895.58,770.502
3897.03,780.119
3898.48,781.738
3899.93,787.602
3901.38,783.569
3902.83,767.846
3904.28,785.181
3905.73,787.058
3907.18,787.897
3908.63,773.937
3910.08,783.562
3911.53,780.641
3912.98,793.391
3914.43,786.778
3915.88,788.041
3917.33,779.506
3918.78,773.619
3920.23,789.176
3921.68,794.147
3923.13,804.801
3924.58,790.984
3926.03,797.742
3927.48,794.511
3928.93,822.273
3930.38,793.784
3931.83,797.658
3933.28,801.124
3934.74,805.074
3936.19,819.117
3937.64,810.052
3939.09,797.568
3940.54,819.639
3941.99,810.696
3943.44,804.862
3944.89,808.6
3946.34,816.885
3947.79,825.64
3949.24,819.617
3950.69,822.326
3952.14,827.191
3953.59,831.617
3955.04,834.319
3956.49,810.083
3957.94,837.754
3959.39,818.883
3960.84,816.802
3962.29,823.385
3963.74,819.238
3965.19,812.565
3966.64,843.671
3968.09,824.353
3969.54,839.941
3970.99,820.449
3972.44,836.641
3973.89,833.804
3975.34,852.312
3976.79,847.954
3978.25,853.47
3979.7,851.382
3981.15,842.612
3982.6,847.583
3984.05,855.437
3985.5,859.236
3986.95,870.54
3988.4,856.05
3989.85,859.826
3991.3,856.406
3992.75,861.937
3994.2,872.341
3995.65,854.015
3997.1,896.857
3998.55,860.007
4000,861.854
