0.5,2.63525
1.45033,2.63525
2.90065,2.63525
4.35098,2.63525
5.80131,2.63525
7.25163,2.63525
8.70196,11.0247
10.1523,4.83616
11.6026,3.81074
13.0529,4.23085
14.5033,4.73077
15.9536,4.28748
17.4039,1.71943
18.8542,0.147054
20.3046,0.115919
21.7549,1.02347
23.2052,2.11636
24.6555,1.98786
26.1059,1.41841
27.5562,0.402467
29.0065,0.0937575
30.4569,1.94134
31.9072,0.912503
33.3575,0.849549
34.8078,0.740981
36.2582,0.4047
37.7085,0.790745
39.1588,0.108232
40.6091,0.835821
42.0595,2.33278
43.5098,3.66114
44.9601,4.17627
46.4104,3.94929
47.8608,6.10875
49.3111,10.6793
50.7614,16.1145
52.2117,40.087
53.6621,77.9118
55.1124,134.789
56.5627,211.619
58.0131,303.052
59.4634,392.629
60.9137,472.935
62.364,529.209
63.8144,554.545
65.2647,601.007
66.715,620.939
68.1653,638.192
69.6157,657.721
71.066,676.261
72.5163,684.395
73.9666,681.999
75.417,675.92
76.8673,676.642
78.3176,705.076
79.7679,710.459
81.2183,722.073
82.6686,742.359
84.1189,768.476
85.5693,785.676
87.0196,790.508
88.4699,789.878
89.9202,773.091
91.3706,726.091
92.8209,687.258
94.2712,651.728
95.7215,612.362
97.1719,576.402
98.6222,566.041
100.073,545.851
101.523,522.364
102.973,500.968
104.423,484.531
105.874,471.309
107.324,460.435
108.774,455.196
110.225,447.141
111.675,431.705
113.125,435.078
114.576,441.851
116.026,438.029
117.476,424.329
118.927,407.93
120.377,412.479
121.827,403.925
123.278,399.132
124.728,398.887
126.178,392.781
127.629,384.214
129.079,375.351
130.529,369.441
131.98,365.907
133.43,358.367
134.88,349.225
136.331,337.409
137.781,332.048
139.231,333.893
140.682,319.061
142.132,322.984
143.582,316.816
145.033,306.508
146.483,300.162
147.933,290.266
149.384,298.823
150.834,296.147
152.284,285.708
153.735,280.289
155.185,292.017
156.635,282.141
158.086,278.375
159.536,283.587
160.986,289.648
162.437,288.735
163.887,278.681
165.337,267.049
166.788,257.921
168.238,253.433
169.688,254.609
171.139,248.959
172.589,245.699
174.039,244.779
175.489,236.935
176.94,252.323
178.39,256.153
179.84,255.195
181.291,252.921
182.741,247.694
184.191,241.576
185.642,235.8
187.092,229.345
188.542,225.527
189.993,236.265
191.443,227.429
192.893,227.357
194.344,232.424
195.794,234.864
197.244,221.512
198.695,224.495
200.145,225.31
201.595,222.181
203.046,216.798
204.496,215.749
205.946,221.102
207.397,224.194
208.847,227.54
210.297,231.393
211.748,226.279
213.198,226.923
214.648,228.888
216.099,228.376
217.549,224.786
218.999,226.361
220.45,231.174
221.9,228.288
223.35,221.762
224.801,218.041
226.251,225.526
227.701,223.288
229.152,227.921
230.602,224.673
232.052,210.229
233.503,221.806
234.953,222.482
236.403,223.015
237.854,223.545
239.304,223.498
240.754,223.235
242.204,221.135
243.655,219.257
245.105,214.5
246.555,207.861
248.006,209.967
249.456,210.832
250.906,214.383
252.357,218.173
253.807,217.458
255.257,203.875
256.708,207.289
258.158,210.43
259.608,212.14
261.059,213.571
262.509,218.058
263.959,199.571
265.41,197.098
266.86,197.254
268.31,198.428
269.761,211.831
271.211,205.226
272.661,202.571
274.112,198.344
275.562,195.636
277.012,202.843
278.463,202.315
279.913,203.896
281.363,202.037
282.814,199.723
284.264,202.514
285.714,195.502
287.165,197.306
288.615,199.703
290.065,196.255
291.516,185.712
292.966,192.332
294.416,199.3
295.867,194.926
297.317,188.674
298.767,189.141
300.218,186.361
301.668,188.184
303.118,189.003
304.569,181.643
306.019,170.193
307.469,180.802
308.919,176.092
310.37,177.229
311.82,176.677
313.27,172.927
314.721,172.659
316.171,172.261
317.621,173.925
319.072,169.724
320.522,165.69
321.972,173.932
323.423,173.268
324.873,167.51
326.323,167.171
327.774,170.867
329.224,172.874
330.674,166.758
332.125,172.388
333.575,172.698
335.025,168.095
336.476,162.741
337.926,162.341
339.376,161.688
340.827,163.911
342.277,165.346
343.727,165.773
345.178,168.668
346.628,159.745
348.078,163.804
349.529,172.31
350.979,176.56
352.429,170.069
353.88,160.206
355.33,165.569
356.78,168.905
358.231,169.274
359.681,168.386
361.131,164.518
362.582,158.387
364.032,155.63
365.482,157.383
366.933,160.267
368.383,156.714
369.833,155.377
371.284,153.192
372.734,153.131
374.184,153.472
375.635,152.342
377.085,161.695
378.535,166.111
379.986,158.87
381.436,153.029
382.886,156.935
384.336,160.412
385.787,156.496
387.237,153.541
388.687,155.008
390.138,159.218
391.588,160.694
393.038,158.285
394.489,152.175
395.939,155.26
397.389,159.612
398.84,155.541
400.29,149.11
401.74,158.614
403.191,153.564
404.641,152.876
406.091,158.386
407.542,150.178
408.992,154.335
410.442,159.148
411.893,160.143
413.343,159.785
414.793,160.427
416.244,153.046
417.694,158.793
419.144,159.248
420.595,154.201
422.045,149.827
423.495,155.873
424.946,154.396
426.396,152.37
427.846,148.788
429.297,151.09
430.747,161.313
432.197,150.143
433.648,155.858
435.098,153.889
436.548,149.75
437.999,148.461
439.449,150.227
440.899,144.576
442.35,152.221
443.8,151.889
445.25,148.186
446.701,150.829
448.151,158.379
449.601,157.298
451.051,155.815
452.502,154.752
453.952,151.435
455.402,143.574
456.853,152.885
458.303,150.258
459.753,150.457
461.204,150.871
462.654,149.071
464.104,150.011
465.555,147.987
467.005,150.843
468.455,153.796
469.906,151.466
471.356,144.316
472.806,156.482
474.257,158.025
475.707,154.769
477.157,154.12
478.608,157.579
480.058,159.4
481.508,145.209
482.959,152.009
484.409,153.077
485.859,152.748
487.31,155.161
488.76,148.551
490.21,156.804
491.661,161.006
493.111,155.767
494.561,147.058
496.012,144.773
497.462,152.354
498.912,147.322
500.363,150.102
501.813,151.14
503.263,148.66
504.714,149.054
506.164,154.339
507.614,152.653
509.065,151.085
510.515,151.141
511.965,150.891
513.416,146.391
514.866,149.514
516.316,152.978
517.766,153.426
519.217,151.724
520.667,149.813
522.117,148.882
523.568,152.008
525.018,149.062
526.468,146.743
527.919,146.343
529.369,148.522
530.819,159.677
532.27,148.836
533.72,151.772
535.17,151.477
536.621,149.079
538.071,153.821
539.521,155.181
540.972,151.184
542.422,153.403
543.872,151.504
545.323,148.782
546.773,155.379
548.223,152.108
549.674,151.571
551.124,154.098
552.574,155.579
554.025,154.447
555.475,152.385
556.925,151.43
558.376,150.596
559.826,148.742
561.276,148.418
562.727,148.208
564.177,143.896
565.627,149.358
567.078,146.77
568.528,142.712
569.978,142.319
571.429,144.865
572.879,144.452
574.329,149.099
575.78,144.55
577.23,147.41
578.68,150.519
580.131,150.785
581.581,154.515
583.031,146.306
584.482,150.386
585.932,149.642
587.382,148.654
588.832,148.877
590.283,143.942
591.733,143.942
593.183,147.066
594.634,152.303
596.084,149.102
597.534,139.17
598.985,137.658
600.435,139.029
601.885,146.978
603.336,149.023
604.786,150.301
606.236,152.07
607.687,149.725
609.137,148.49
610.587,150.237
612.038,153.172
613.488,153.294
614.938,152.026
616.389,153.549
617.839,150.253
619.289,154.22
620.74,148.382
622.19,147.197
623.64,149.225
625.091,144.31
626.541,143.485
627.991,148.847
629.442,155.01
630.892,155.925
632.342,151.827
633.793,147.098
635.243,146.41
636.693,154.998
638.144,154.325
639.594,150.709
641.044,149.633
642.495,152.94
643.945,156.704
645.395,145.27
646.846,153.992
648.296,158.027
649.746,157.602
651.197,156.881
652.647,155.146
654.097,155.698
655.547,158.456
656.998,158.598
658.448,156.016
659.898,153.695
661.349,154.539
662.799,152.745
664.249,157.067
665.7,158.326
667.15,155.651
668.6,156.288
670.051,163.372
671.501,159.367
672.951,158.123
674.402,159.694
675.852,161.213
677.302,158.173
678.753,153.354
680.203,158.515
681.653,160.454
683.104,162.269
684.554,158.391
686.004,158.23
687.455,160.543
688.905,156.655
690.355,159.562
691.806,164.588
693.256,159.804
694.706,161.441
696.157,164.262
697.607,161.344
699.057,167.055
700.508,160.949
701.958,158.497
703.408,158.632
704.859,159.273
706.309,157.418
707.759,153.022
709.21,164.675
710.66,164.017
712.11,162.072
713.561,160.068
715.011,160.063
716.461,162.489
717.912,162.391
719.362,158.498
720.812,166.927
722.263,168.317
723.713,168.472
725.163,168.034
726.613,159.117
728.064,161.063
729.514,157.897
730.964,159.725
732.415,166.208
733.865,166.621
735.315,159.2
736.766,166.048
738.216,164.933
739.666,162.126
741.117,163.675
742.567,167.012
744.017,168.449
745.468,165.763
746.918,158.37
748.368,159.041
749.819,162.674
751.269,173.373
752.719,174.909
754.17,165.902
755.62,171.302
757.07,177.585
758.521,174.226
759.971,168.061
761.421,162.25
762.872,164.109
764.322,172.04
765.772,164.163
767.223,161.228
768.673,170.328
770.123,169.469
771.574,163.018
773.024,162.391
774.474,170.763
775.925,166.431
777.375,173.848
778.825,168.175
780.276,168.485
781.726,169.473
783.176,169.068
784.627,173.507
786.077,168.884
787.527,175.897
788.978,173.533
790.428,171.244
791.878,170.543
793.328,170.666
794.779,172.757
796.229,173.598
797.68,167.73
799.13,167.986
800.58,171.824
802.03,175.895
803.481,175.179
804.931,165.239
806.381,168.467
807.832,174.023
809.282,176.405
810.732,175.542
812.183,173.735
813.633,171.41
815.083,165.843
816.534,171.044
817.984,166.658
819.434,174.353
820.885,177.134
822.335,175.551
823.785,179.258
825.236,186.465
826.686,179.991
828.136,183.354
829.587,190.849
831.037,187.444
832.487,181.081
833.938,180.647
835.388,174.161
836.838,188.954
838.289,183.401
839.739,178.888
841.189,177.095
842.64,178.84
844.09,181.358
845.54,177.96
846.991,185.576
848.441,180.362
849.891,188.61
851.342,186.546
852.792,177.042
854.242,175.212
855.693,183.369
857.143,173.485
858.593,185.755
860.044,191.261
861.494,194.031
862.944,190.447
864.394,184.243
865.845,186.466
867.295,180.812
868.745,186.396
870.196,183.723
871.646,183.586
873.096,182.309
874.547,178.411
875.997,178.431
877.447,189.28
878.898,191.119
880.348,180.393
881.798,179.291
883.249,178.109
884.699,178.831
886.149,186.432
887.6,184.193
889.05,182.349
890.5,184.12
891.951,187.526
893.401,187.982
894.851,192.527
896.302,199.007
897.752,190.011
899.202,185.613
900.653,181.073
902.103,192.763
903.553,191.972
905.004,186.918
906.454,187.378
907.904,189.597
909.355,189.607
910.805,185.626
912.255,196.112
913.706,201.532
915.156,197.614
916.606,196.596
918.057,202.924
919.507,197.776
920.957,189.946
922.408,201.486
923.858,198.785
925.308,191.687
926.759,192.48
928.209,198.935
929.659,198.575
931.109,192.675
932.56,197.094
934.01,191.326
935.46,195.863
936.911,198.096
938.361,200.829
939.811,205.712
941.262,198.686
942.712,199.399
944.162,190.104
945.613,201.465
947.063,196.547
948.513,188.584
949.964,189.413
951.414,197.088
952.864,212.806
954.315,207.525
955.765,197.343
957.215,202.422
958.666,202.303
960.116,198.774
961.566,195.88
963.017,191.517
964.467,197.473
965.917,198.189
967.368,203.224
968.818,199.903
970.268,197.454
971.719,200.042
973.169,202.517
974.619,197.928
976.07,192.608
977.52,204.056
978.97,204.422
980.421,204.116
981.871,205.483
983.321,200.607
984.772,191.863
986.222,198.085
987.672,202.819
989.123,207.405
990.573,205.086
992.023,202.906
993.474,202.847
994.924,203.225
996.374,200.921
997.825,196.368
999.275,205.99
1000.73,211.37
1002.18,213.909
1003.63,214.618
1005.08,208.935
1006.53,206.961
1007.98,214.851
1009.43,217.499
1010.88,221.525
1012.33,221.433
1013.78,217.758
1015.23,214.457
1016.68,218.322
1018.13,222.692
1019.58,222.551
1021.03,225.984
1022.48,222.403
1023.93,224.563
1025.38,229.958
1026.83,230.335
1028.28,229.028
1029.73,225.969
1031.18,226.347
1032.63,237.94
1034.08,237.42
1035.53,229.2
1036.98,243.728
1038.43,243.11
1039.88,246.387
1041.33,251.007
1042.78,254.168
1044.23,258.826
1045.69,243.095
1047.14,255.659
1048.59,250.892
1050.04,250.33
1051.49,254.047
1052.94,256.912
1054.39,262.932
1055.84,270.151
1057.29,257.671
1058.74,260.418
1060.19,263.733
1061.64,265.227
1063.09,270.082
1064.54,277.531
1065.99,281.309
1067.44,282.584
1068.89,290.077
1070.34,292.941
1071.79,288.018
1073.24,287.949
1074.69,292.195
1076.14,286.969
1077.59,287.965
1079.04,301.262
1080.49,309.718
1081.94,300.988
1083.39,297.799
1084.84,305.682
1086.29,294.866
1087.74,290.422
1089.2,287.632
1090.65,288.819
1092.1,294.45
1093.55,295.214
1095,294.978
1096.45,295.559
1097.9,291.938
1099.35,290.583
1100.8,288.39
1102.25,292.835
1103.7,296.69
1105.15,292.685
1106.6,292.169
1108.05,288.188
1109.5,287.314
1110.95,294.826
1112.4,291.915
1113.85,283.966
1115.3,282.689
1116.75,286.923
1118.2,285.272
1119.65,275.258
1121.1,272.983
1122.55,277.061
1124,274.457
1125.45,276.47
1126.9,274.293
1128.35,274.776
1129.8,277.367
1131.25,273.505
1132.7,270.618
1134.16,272.932
1135.61,266.66
1137.06,266.787
1138.51,267.479
1139.96,265.124
1141.41,271.359
1142.86,274.424
1144.31,263.412
1145.76,272.842
1147.21,273.292
1148.66,274.9
1150.11,266.006
1151.56,264.263
1153.01,258.947
1154.46,261.034
1155.91,269.05
1157.36,270
1158.81,267.996
1160.26,261.6
1161.71,260.867
1163.16,262.402
1164.61,260.922
1166.06,262.596
1167.51,264.329
1168.96,262.721
1170.41,263.363
1171.86,270.48
1173.31,262.314
1174.76,274.914
1176.21,264.176
1177.66,267.952
1179.12,266.455
1180.57,262.161
1182.02,257.859
1183.47,259.3
1184.92,268.138
1186.37,264.749
1187.82,269.009
1189.27,262.699
1190.72,272.314
1192.17,277.779
1193.62,280.257
1195.07,279.207
1196.52,277.781
1197.97,276.924
1199.42,272.521
1200.87,279.649
1202.32,279.207
1203.77,281.559
1205.22,275.481
1206.67,275.915
1208.12,272.503
1209.57,268.137
1211.02,271.097
1212.47,278.643
1213.92,282.135
1215.37,280.99
1216.82,280.99
1218.27,279.911
1219.72,278.14
1221.17,277.848
1222.63,279.984
1224.08,278.34
1225.53,280.902
1226.98,295.879
1228.43,289.226
1229.88,276.525
1231.33,287.45
1232.78,282.434
1234.23,295.52
1235.68,293.921
1237.13,293.119
1238.58,289.706
1240.03,280.742
1241.48,286.384
1242.93,293.405
1244.38,295.516
1245.83,288.271
1247.28,291.154
1248.73,296.084
1250.18,291.982
1251.63,301.757
1253.08,315.474
1254.53,310.389
1255.98,297.398
1257.43,303.861
1258.88,316.918
1260.33,310.55
1261.78,309.905
1263.23,313.487
1264.68,315.323
1266.13,316.417
1267.59,314.632
1269.04,315.202
1270.49,323.82
1271.94,331.175
1273.39,344.103
1274.84,334.895
1276.29,340.885
1277.74,354.885
1279.19,351.382
1280.64,348.455
1282.09,351.632
1283.54,352.678
1284.99,357.001
1286.44,375.646
1287.89,380.567
1289.34,384.445
1290.79,389.795
1292.24,397.569
1293.69,402.261
1295.14,414.748
1296.59,432.736
1298.04,440.666
1299.49,443.357
1300.94,454.841
1302.39,466.471
1303.84,490.785
1305.29,485.128
1306.74,486.896
1308.19,520.038
1309.64,545.463
1311.09,555.131
1312.55,570.872
1314,587.413
1315.45,601.216
1316.9,624.149
1318.35,645.672
1319.8,685.104
1321.25,702.404
1322.7,722.762
1324.15,756.291
1325.6,772.999
1327.05,791.244
1328.5,809.731
1329.95,819.31
1331.4,819.868
1332.85,826.23
1334.3,849.996
1335.75,843.785
1337.2,833.024
1338.65,820.643
1340.1,819.829
1341.55,821.982
1343,791.592
1344.45,772.533
1345.9,765.167
1347.35,741.506
1348.8,715.042
1350.25,712.488
1351.7,696.574
1353.15,662.645
1354.6,637.044
1356.06,615.387
1357.51,604.551
1358.96,580.052
1360.41,556.912
1361.86,542.662
1363.31,518.99
1364.76,492.701
1366.21,493.11
1367.66,488.754
1369.11,468.41
1370.56,473.366
1372.01,455.014
1373.46,453.065
1374.91,445.279
1376.36,437.495
1377.81,432.354
1379.26,428.602
1380.71,420.174
1382.16,408.992
1383.61,407.336
1385.06,408.159
1386.51,414.154
1387.96,401.23
1389.41,414.287
1390.86,408.823
1392.31,398.622
1393.76,391.837
1395.21,392.304
1396.66,390.02
1398.11,388.791
1399.56,394.595
1401.02,394.91
1402.47,402.359
1403.92,406.21
1405.37,387.817
1406.82,394.162
1408.27,388.589
1409.72,390.819
1411.17,387.628
1412.62,388.001
1414.07,394.091
1415.52,394.896
1416.97,397.48
1418.42,409.784
1419.87,400.042
1421.32,410.121
1422.77,413.439
1424.22,403.466
1425.67,411.866
1427.12,409.727
1428.57,410.312
1430.02,406.687
1431.47,407.205
1432.92,412.009
1434.37,421.225
1435.82,425.622
1437.27,409.372
1438.72,421.29
1440.17,425.887
1441.62,417.258
1443.07,449.434
1444.53,442.997
1445.98,442.813
1447.43,445.676
1448.88,444.622
1450.33,444.336
1451.78,454.822
1453.23,464.403
1454.68,465.114
1456.13,475.7
1457.58,471.731
1459.03,484.344
1460.48,481.764
1461.93,488.435
1463.38,486.917
1464.83,490.216
1466.28,510.254
1467.73,524.075
1469.18,523.931
1470.63,521.175
1472.08,528.593
1473.53,540.858
1474.98,543.286
1476.43,546.042
1477.88,554.296
1479.33,579.248
1480.78,572.092
1482.23,573.952
1483.68,607.171
1485.13,610.607
1486.58,622.034
1488.03,636.444
1489.49,634.573
1490.94,649.815
1492.39,675.939
1493.84,684.625
1495.29,713.709
1496.74,704.189
1498.19,708.49
1499.64,754.61
1501.09,767.412
1502.54,786.609
1503.99,807.867
1505.44,827.825
1506.89,852.182
1508.34,878.495
1509.79,917.328
1511.24,949.557
1512.69,981.647
1514.14,1040.57
1515.59,1092.26
1517.04,1126.51
1518.49,1172.18
1519.94,1215.61
1521.39,1308.62
1522.84,1374.17
1524.29,1450.07
1525.74,1535.38
1527.19,1630.85
1528.64,1738.67
1530.09,1856.85
1531.54,1993.32
1532.99,2151
1534.45,2306.58
1535.9,2478.46
1537.35,2730.14
1538.8,2978.9
1540.25,3256.62
1541.7,3514.13
1543.15,3799.53
1544.6,4140.85
1546.05,4501.79
1547.5,4913.12
1548.95,5297.99
1550.4,5663.56
1551.85,6064.32
1553.3,6470.76
1554.75,6875.79
1556.2,7296.43
1557.65,7682.66
1559.1,7695.06
1560.55,7704.26
1562,7721.98
1563.45,7727.23
1564.9,7731.17
1566.35,7726.58
1567.8,7724.61
1569.25,7730.52
1570.7,7729.2
1572.15,7480.45
1573.6,7093.36
1575.05,6693.28
1576.5,6289.91
1577.96,5849.39
1579.41,5398.32
1580.86,4987.3
1582.31,4606.82
1583.76,4210.24
1585.21,3867.4
1586.66,3536.16
1588.11,3253.03
1589.56,3006.45
1591.01,2764.63
1592.46,2563.48
1593.91,2398.92
1595.36,2225.43
1596.81,2079.95
1598.26,1931.25
1599.71,1819.98
1601.16,1744.88
1602.61,1657.3
1604.06,1577.2
1605.51,1509.29
1606.96,1437.58
1608.41,1364.06
1609.86,1306.64
1611.31,1238.04
1612.76,1212.8
1614.21,1132.63
1615.66,1102.55
1617.11,1055.95
1618.56,1027.92
1620.01,983.315
1621.46,947.115
1622.92,910.75
1624.37,882.08
1625.82,861.478
1627.27,836.458
1628.72,817.17
1630.17,791.546
1631.62,776.498
1633.07,757.459
1634.52,743.436
1635.97,719.237
1637.42,717.878
1638.87,697.171
1640.32,678.966
1641.77,675.801
1643.22,667.148
1644.67,656.94
1646.12,646.293
1647.57,643.828
1649.02,634.285
1650.47,620.142
1651.92,617.303
1653.37,615.939
1654.82,601.676
1656.27,593.026
1657.72,590.621
1659.17,578.59
1660.62,567.954
1662.07,570.361
1663.52,582.416
1664.97,576.526
1666.42,568.795
1667.88,563.767
1669.33,559.116
1670.78,551.545
1672.23,539.815
1673.68,542.78
1675.13,541.313
1676.58,540.223
1678.03,532.697
1679.48,526.07
1680.93,530.49
1682.38,529.411
1683.83,525.131
1685.28,519.596
1686.73,523.289
1688.18,522.121
1689.63,520.416
1691.08,515.708
1692.53,506.86
1693.98,506.056
1695.43,515.269
1696.88,520.953
1698.33,516.953
1699.78,518.272
1701.23,510.517
1702.68,512.328
1704.13,505.952
1705.58,511.265
1707.03,511.123
1708.48,499.389
1709.93,511.001
1711.39,510.794
1712.84,510.322
1714.29,508.104
1715.74,515.63
1717.19,521.519
1718.64,510.842
1720.09,511.714
1721.54,513.597
1722.99,500.729
1724.44,503.131
1725.89,517.289
1727.34,522.016
1728.79,522.081
1730.24,509.405
1731.69,500.821
1733.14,522.127
1734.59,505.345
1736.04,501.265
1737.49,513.923
1738.94,503.36
1740.39,501.799
1741.84,511.503
1743.29,502.72
1744.74,499.376
1746.19,490.824
1747.64,486.195
1749.09,493.44
1750.54,486.246
1751.99,485.168
1753.44,492.686
1754.89,486.444
1756.35,485.394
1757.8,496.865
1759.25,494.018
1760.7,487.936
1762.15,490.104
1763.6,478.59
1765.05,479.388
1766.5,487.042
1767.95,483.847
1769.4,469.813
1770.85,468.204
1772.3,464.59
1773.75,472.46
1775.2,469.239
1776.65,468.49
1778.1,469.361
1779.55,472.083
1781,469.102
1782.45,470.831
1783.9,468.952
1785.35,475.101
1786.8,476.789
1788.25,474.774
1789.7,470.192
1791.15,468.654
1792.6,475.284
1794.05,473.834
1795.5,471.375
1796.95,469.509
1798.4,472.015
1799.85,477.078
1801.31,463.368
1802.76,463.348
1804.21,453.723
1805.66,467.332
1807.11,444.323
1808.56,453.995
1810.01,458.64
1811.46,459.225
1812.91,447.769
1814.36,462.278
1815.81,471.853
1817.26,475.849
1818.71,475.382
1820.16,469.499
1821.61,465.01
1823.06,459.449
1824.51,463.625
1825.96,464.907
1827.41,460.172
1828.86,467.966
1830.31,471.783
1831.76,467.941
1833.21,472.299
1834.66,466.297
1836.11,466.139
1837.56,460.382
1839.01,474.809
1840.46,485.539
1841.91,465.156
1843.36,471.126
1844.82,479.027
1846.27,471.902
1847.72,478.366
1849.17,482.648
1850.62,478.319
1852.07,479.694
1853.52,490.382
1854.97,490.745
1856.42,481.764
1857.87,477.856
1859.32,491.977
1860.77,498.191
1862.22,492.204
1863.67,485.631
1865.12,488.407
1866.57,490.49
1868.02,485.037
1869.47,476.7
1870.92,472.549
1872.37,479.318
1873.82,485.654
1875.27,480.663
1876.72,474.392
1878.17,479.425
1879.62,474.772
1881.07,470.838
1882.52,465.229
1883.97,466.47
1885.42,466.943
1886.87,471.128
1888.32,469.499
1889.78,463.39
1891.23,467.533
1892.68,465.433
1894.13,468.95
1895.58,465.45
1897.03,470.235
1898.48,469.558
1899.93,458.267
1901.38,459.723
1902.83,456.21
1904.28,453.11
1905.73,455.938
1907.18,463.024
1908.63,462.978
1910.08,457.966
1911.53,450.52
1912.98,443.933
1914.43,448.75
1915.88,452.413
1917.33,444.472
1918.78,444.66
1920.23,453.146
1921.68,453.929
1923.13,453.154
1924.58,451.716
1926.03,447.448
1927.48,448.862
1928.93,454.095
1930.38,451.736
1931.83,449.789
1933.29,437.214
1934.74,450.975
1936.19,454.246
1937.64,436.645
1939.09,444.171
1940.54,439.61
1941.99,449.793
1943.44,450.894
1944.89,451.38
1946.34,452.343
1947.79,442.054
1949.24,451.593
1950.69,444.178
1952.14,455.87
1953.59,458.428
1955.04,449.898
1956.49,455.795
1957.94,453.15
1959.39,447.132
1960.84,452.48
1962.29,450.803
1963.74,454.938
1965.19,457.994
1966.64,457.525
1968.09,465.758
1969.54,470.292
1970.99,471.334
1972.44,473.679
1973.89,464.52
1975.34,464.647
1976.79,469.523
1978.25,468.67
1979.7,462.816
1981.15,463.589
1982.6,467.192
1984.05,462.301
1985.5,466.391
1986.95,463.074
1988.4,457.097
1989.85,469.387
1991.3,465.588
1992.75,465.886
1994.2,467.725
1995.65,470.745
1997.1,472.247
1998.55,468.488
2000,464.23
2001.45,472.456
2002.9,466.966
2004.35,463.232
2005.8,465.988
2007.25,469.875
2008.7,472.485
2010.15,473.145
2011.6,475.713
2013.05,460.609
2014.5,457.349
2015.95,463.813
2017.4,457.966
2018.85,447.186
2020.3,463.5
2021.75,465.253
2023.21,449.938
2024.66,461.78
2026.11,456.315
2027.56,462.639
2029.01,464.942
2030.46,453.107
2031.91,454.246
2033.36,447.062
2034.81,452.252
2036.26,460.508
2037.71,455.418
2039.16,456.137
2040.61,461.508
2042.06,448.606
2043.51,439.969
2044.96,446.287
2046.41,433.399
2047.86,440.486
2049.31,446.402
2050.76,440.628
2052.21,439.715
2053.66,450.377
2055.11,452.919
2056.56,443.115
2058.01,439.209
2059.46,448.402
2060.91,449.458
2062.36,443.556
2063.81,438.822
2065.26,433.737
2066.72,435.433
2068.17,442.067
2069.62,429.707
2071.07,431.654
2072.52,444.382
2073.97,443.388
2075.42,439.553
2076.87,440.519
2078.32,438.572
2079.77,430.515
2081.22,436.683
2082.67,444.363
2084.12,442.327
2085.57,432.307
2087.02,432.973
2088.47,424.586
2089.92,424.032
2091.37,428.062
2092.82,435.468
2094.27,446.431
2095.72,440.255
2097.17,436.501
2098.62,438.04
2100.07,431.944
2101.52,426.68
2102.97,430.894
2104.42,426.638
2105.87,433.89
2107.32,436.864
2108.77,438.797
2110.22,439.683
2111.68,443.059
2113.13,437.599
2114.58,434.894
2116.03,442.309
2117.48,442.586
2118.93,435.549
2120.38,443.66
2121.83,443.13
2123.28,430.249
2124.73,438.134
2126.18,443.591
2127.63,440.437
2129.08,442.056
2130.53,445.327
2131.98,448.359
2133.43,448.055
2134.88,448.019
2136.33,445.267
2137.78,449.009
2139.23,448.854
2140.68,448.199
2142.13,443.818
2143.58,443.099
2145.03,457.81
2146.48,458.642
2147.93,453.207
2149.38,447.161
2150.83,448.113
2152.28,454.932
2153.73,455.261
2155.18,449.699
2156.64,452.352
2158.09,452.901
2159.54,451.329
2160.99,456.692
2162.44,457.448
2163.89,457.915
2165.34,453.801
2166.79,456.716
2168.24,471.009
2169.69,467.165
2171.14,460.996
2172.59,461.583
2174.04,462.524
2175.49,466.105
2176.94,467.324
2178.39,463.717
2179.84,464.41
2181.29,464.959
2182.74,467.841
2184.19,466.866
2185.64,463.394
2187.09,466.59
2188.54,470.625
2189.99,470.762
2191.44,467.88
2192.89,473.422
2194.34,473.215
2195.79,473.119
2197.24,477.373
2198.69,475.861
2200.15,468.93
2201.6,469.828
2203.05,470.106
2204.5,480.378
2205.95,477.823
2207.4,479.979
2208.85,475.748
2210.3,479.337
2211.75,484.219
2213.2,485.979
2214.65,481.709
2216.1,481.759
2217.55,485.466
2219,488.605
2220.45,475.621
2221.9,487.076
2223.35,493.276
2224.8,492.344
2226.25,484.215
2227.7,475.892
2229.15,490.544
2230.6,498.148
2232.05,497.822
2233.5,486.014
2234.95,489.612
2236.4,489.697
2237.85,491.86
2239.3,480.243
2240.75,483.521
2242.2,494.681
2243.65,501.63
2245.11,488.898
2246.56,500.528
2248.01,496.075
2249.46,494.609
2250.91,504.562
2252.36,499.459
2253.81,495.981
2255.26,501.576
2256.71,493.952
2258.16,499.122
2259.61,505.719
2261.06,502.368
2262.51,490.13
2263.96,504.278
2265.41,509.124
2266.86,501.937
2268.31,492.506
2269.76,500.314
2271.21,511.012
2272.66,505.441
2274.11,504.661
2275.56,497.258
2277.01,498.486
2278.46,513.176
2279.91,513.398
2281.36,523.253
2282.81,525.993
2284.26,508.825
2285.71,508.579
2287.16,516.444
2288.61,524.617
2290.07,517.077
2291.52,508.373
2292.97,520.244
2294.42,523.275
2295.87,525.567
2297.32,526.831
2298.77,513.833
2300.22,526.879
2301.67,545.243
2303.12,544.57
2304.57,536.762
2306.02,527.19
2307.47,530.588
2308.92,528.962
2310.37,536.286
2311.82,534.118
2313.27,541.658
2314.72,530.778
2316.17,547.156
2317.62,536.158
2319.07,542.097
2320.52,551.549
2321.97,543.941
2323.42,545.713
2324.87,562.151
2326.32,550.459
2327.77,552.507
2329.22,548.454
2330.67,563.967
2332.12,566.253
2333.57,568.15
2335.03,569.596
2336.48,555.354
2337.93,554.535
2339.38,566.071
2340.83,577.645
2342.28,573.325
2343.73,578.878
2345.18,573.315
2346.63,581.286
2348.08,590.128
2349.53,590.919
2350.98,589.442
2352.43,598.651
2353.88,595.357
2355.33,597.678
2356.78,599.35
2358.23,610.911
2359.68,604.7
2361.13,612.586
2362.58,629.596
2364.03,633.586
2365.48,621.134
2366.93,624.402
2368.38,639.512
2369.83,640.317
2371.28,636.83
2372.73,641.111
2374.18,660.951
2375.63,668.153
2377.08,672.217
2378.54,675.631
2379.99,675.795
2381.44,681.658
2382.89,701.734
2384.34,708.102
2385.79,702.85
2387.24,709.862
2388.69,725.31
2390.14,736.851
2391.59,750.277
2393.04,749.68
2394.49,753.323
2395.94,766.401
2397.39,760.414
2398.84,763.132
2400.29,798.36
2401.74,813.066
2403.19,816.598
2404.64,820.347
2406.09,822.468
2407.54,845.61
2408.99,837.259
2410.44,844.218
2411.89,841.369
2413.34,863.008
2414.79,873.236
2416.24,857.9
2417.69,878.712
2419.14,874.11
2420.59,882.146
2422.04,887.568
2423.5,883.255
2424.95,892.059
2426.4,899.018
2427.85,897.955
2429.3,885.927
2430.75,883.918
2432.2,875.042
2433.65,880.182
2435.1,883.59
2436.55,891.035
2438,868.615
2439.45,874.11
2440.9,876.755
2442.35,873.768
2443.8,858.471
2445.25,854.296
2446.7,867.446
2448.15,856.279
2449.6,851.538
2451.05,856.482
2452.5,843.897
2453.95,849.628
2455.4,843.234
2456.85,836.097
2458.3,822.56
2459.75,802.976
2461.2,809.173
2462.65,809.574
2464.1,813.611
2465.55,820.078
2467.01,827.077
2468.46,805.983
2469.91,825.626
2471.36,823.315
2472.81,810.972
2474.26,804.565
2475.71,800.35
2477.16,819.862
2478.61,813.467
2480.06,808.083
2481.51,812.246
2482.96,798.196
2484.41,808.871
2485.86,804.308
2487.31,808.083
2488.76,807.552
2490.21,810.066
2491.66,803.691
2493.11,809.383
2494.56,826.932
2496.01,817.025
2497.46,820.196
2498.91,818.726
2500.36,834.16
2501.81,829.046
2503.26,825.934
2504.71,840.279
2506.16,847.107
2507.61,837.325
2509.06,845.689
2510.51,846.103
2511.97,841.395
2513.42,830.72
2514.87,856.863
2516.32,856.239
2517.77,850.757
2519.22,862.699
2520.67,865.352
2522.12,863.894
2523.57,878.804
2525.02,903.732
2526.47,910.776
2527.92,912.706
2529.37,914.302
2530.82,933.748
2532.27,941.048
2533.72,939.492
2535.17,947.594
2536.62,950.516
2538.07,971.018
2539.52,962.418
2540.97,982.619
2542.42,993.912
2543.87,995.559
2545.32,1017.53
2546.77,1013.3
2548.22,1042.37
2549.67,1067.57
2551.12,1078.25
2552.57,1085.56
2554.02,1086.76
2555.48,1092.39
2556.93,1114.24
2558.38,1140.54
2559.83,1154.28
2561.28,1168.15
2562.73,1185.16
2564.18,1227.8
2565.63,1232.86
2567.08,1265.08
2568.53,1277.13
2569.98,1334.97
2571.43,1358.21
2572.88,1377.02
2574.33,1399.82
2575.78,1433
2577.23,1459.33
2578.68,1489.62
2580.13,1526.81
2581.58,1546.03
2583.03,1566.23
2584.48,1619.96
2585.93,1661.22
2587.38,1696.63
2588.83,1768.73
2590.28,1792.95
2591.73,1828.29
2593.18,1899.47
2594.63,1967.77
2596.08,2013.16
2597.53,2077.04
2598.98,2162.38
2600.44,2222.87
2601.89,2284.26
2603.34,2364.23
2604.79,2447.37
2606.24,2504.75
2607.69,2601.06
2609.14,2685.56
2610.59,2788.2
2612.04,2864.43
2613.49,2994.21
2614.94,3059.56
2616.39,3145.65
2617.84,3299.67
2619.29,3390.94
2620.74,3509.47
2622.19,3656.15
2623.64,3776.82
2625.09,3873.22
2626.54,3991.23
2627.99,4111.13
2629.44,4252.47
2630.89,4344.77
2632.34,4470.76
2633.79,4613.15
2635.24,4741.47
2636.69,4878.54
2638.14,4974.29
2639.59,5067.44
2641.04,5195.94
2642.49,5313.87
2643.94,5393.29
2645.4,5475.32
2646.85,5534.07
2648.3,5607.54
2649.75,5651.39
2651.2,5686.14
2652.65,5706.85
2654.1,5669.04
2655.55,5681.06
2657,5707.85
2658.45,5662.14
2659.9,5648.98
2661.35,5626.78
2662.8,5573.06
2664.25,5473.38
2665.7,5388.71
2667.15,5324.03
2668.6,5230.92
2670.05,5078.92
2671.5,4941.25
2672.95,4888.06
2674.4,4713.72
2675.85,4635.42
2677.3,4485.12
2678.75,4349.09
2680.2,4223.66
2681.65,4061.8
2683.1,3952.52
2684.55,3837.05
2686,3729.24
2687.45,3593.75
2688.91,3435.64
2690.36,3318.02
2691.81,3175.71
2693.26,3056.06
2694.71,2954.87
2696.16,2852.83
2697.61,2702.94
2699.06,2651.37
2700.51,2578.24
2701.96,2485.05
2703.41,2387.25
2704.86,2292.98
2706.31,2207.86
2707.76,2133.54
2709.21,2052.21
2710.66,1965.84
2712.11,1901.13
2713.56,1847.87
2715.01,1790.53
2716.46,1782.41
2717.91,1696.22
2719.36,1656.78
2720.81,1600.08
2722.26,1532.57
2723.71,1514.04
2725.16,1484.69
2726.61,1432.16
2728.06,1401.21
2729.51,1389.13
2730.96,1333.36
2732.41,1321.55
2733.87,1288.46
2735.32,1240.95
2736.77,1226.9
2738.22,1199.27
2739.67,1188.79
2741.12,1161.6
2742.57,1143.91
2744.02,1137.2
2745.47,1083.97
2746.92,1087.3
2748.37,1064.47
2749.82,1059.35
2751.27,1036.01
2752.72,1014.33
2754.17,1020.59
2755.62,988.384
2757.07,966.672
2758.52,968.202
2759.97,955.485
2761.42,945.572
2762.87,947.042
2764.32,918.727
2765.77,917.453
2767.22,917.992
2768.67,899.103
2770.12,888.323
2771.57,889.827
2773.02,874.353
2774.47,873.427
2775.92,863.356
2777.38,859.331
2778.83,850.948
2780.28,842.183
2781.73,831.252
2783.18,812.627
2784.63,834.246
2786.08,807.007
2787.53,811.11
2788.98,806.751
2790.43,795.78
2791.88,796.686
2793.33,791.71
2794.78,774.686
2796.23,785.178
2797.68,770.557
2799.13,784.239
2800.58,767.938
2802.03,761.825
2803.48,751.518
2804.93,770.636
2806.38,763.46
2807.83,748.616
2809.28,744.664
2810.73,745.596
2812.18,734.882
2813.63,745.333
2815.08,733.641
2816.53,734.277
2817.98,732.131
2819.43,735.61
2820.88,732.544
2822.33,721.955
2823.79,712.98
2825.24,719.565
2826.69,722.71
2828.14,720.011
2829.59,710.958
2831.04,714.589
2832.49,699.403
2833.94,701.386
2835.39,711.155
2836.84,703.605
2838.29,686.719
2839.74,682.432
2841.19,686.989
2842.64,698.865
2844.09,695.93
2845.54,689.818
2846.99,673.005
2848.44,700.014
2849.89,691.177
2851.34,689.477
2852.79,692.273
2854.24,690.33
2855.69,686.575
2857.14,685.4
2858.59,686.634
2860.04,671.711
2861.49,699.574
2862.94,671.337
2864.39,677.836
2865.84,689.26
2867.3,691.689
2868.75,679.898
2870.2,678.631
2871.65,676.333
2873.1,672.427
2874.55,666.722
2876,664.555
2877.45,679.714
2878.9,683.135
2880.35,661.489
2881.8,663.938
2883.25,675.467
2884.7,677.942
2886.15,675.755
2887.6,672.388
2889.05,676.261
2890.5,681.008
2891.95,671.672
2893.4,673.248
2894.85,668.422
2896.3,671.18
2897.75,670.805
2899.2,671.954
2900.65,673.248
2902.1,672.02
2903.55,661.476
2905,665.711
2906.45,670.49
2907.9,665.166
2909.35,661.824
2910.8,658.397
2912.26,650.499
2913.71,657.314
2915.16,650.142
2916.61,654.078
2918.06,640.42
2919.51,656.94
2920.96,649.101
2922.41,658.003
2923.86,649.245
2925.31,644.136
2926.76,650.556
2928.21,646.854
2929.66,642.218
2931.11,636.56
2932.56,636.598
2934.01,635.461
2935.46,622.885
2936.91,621.857
2938.36,622.2
2939.81,621.222
2941.26,617.51
2942.71,614.547
2944.16,623.342
2945.61,621.386
2947.06,610.111
2948.51,609.932
2949.96,603.692
2951.41,609.143
2952.86,612.69
2954.31,609.671
2955.77,596.576
2957.22,595.773
2958.67,588.644
2960.12,600.438
2961.57,584.319
2963.02,594.237
2964.47,591.162
2965.92,593.475
2967.37,589.195
2968.82,589.063
2970.27,586.617
2971.72,586.537
2973.17,579.619
2974.62,578.578
2976.07,573.778
2977.52,571.12
2978.97,572.413
2980.42,576.754
2981.87,571.559
2983.32,572.258
2984.77,569.318
2986.22,571.846
2987.67,570.769
2989.12,579.359
2990.57,571.8
2992.02,573.625
2993.47,573.961
2994.92,574.624
2996.37,567.782
2997.82,574.705
2999.27,579.465
3000.73,565.617
3002.18,570.954
3003.63,556.635
3005.08,571.634
3006.53,573.183
3007.98,570.771
3009.43,571.659
3010.88,566.16
3012.33,560.272
3013.78,553.16
3015.23,559.669
3016.68,565.194
3018.13,571.093
3019.58,552.558
3021.03,552.219
3022.48,555.649
3023.93,561.912
3025.38,565.729
3026.83,569.017
3028.28,567.863
3029.73,571.714
3031.18,565.196
3032.63,558.376
3034.08,572.176
3035.53,558.378
3036.98,563.189
3038.43,549.354
3039.88,558.133
3041.33,581.498
3042.78,578.902
3044.23,566.241
3045.69,566.193
3047.14,562.179
3048.59,559.343
3050.04,564.477
3051.49,550.211
3052.94,563.788
3054.39,566
3055.84,555.804
3057.29,567.545
3058.74,570.639
3060.19,585.978
3061.64,574.206
3063.09,582.526
3064.54,577.199
3065.99,573.179
3067.44,577.774
3068.89,584.17
3070.34,583.4
3071.79,573.871
3073.24,585.49
3074.69,590.948
3076.14,595.649
3077.59,595.355
3079.04,603.242
3080.49,609.482
3081.94,608.815
3083.39,588.207
3084.84,605.218
3086.29,620.082
3087.74,605.498
3089.2,616.604
3090.65,624.642
3092.1,638.613
3093.55,630.907
3095,633.457
3096.45,633.634
3097.9,638.493
3099.35,635.507
3100.8,639.166
3102.25,655.204
3103.7,647.155
3105.15,671.344
3106.6,676.025
3108.05,675.677
3109.5,673.451
3110.95,683.975
3112.4,691.538
3113.85,698.123
3115.3,676.268
3116.75,695.944
3118.2,720.97
3119.65,715.554
3121.1,727.03
3122.55,738.945
3124,734.928
3125.45,734.763
3126.9,748.058
3128.35,749.529
3129.8,740.685
3131.25,755.568
3132.7,756.691
3134.16,751.524
3135.61,757.44
3137.06,748.406
3138.51,753.638
3139.96,776.833
3141.41,779.584
3142.86,780.339
3144.31,781.856
3145.76,772.651
3147.21,780.208
3148.66,803.33
3150.11,796.332
3151.56,787.41
3153.01,788.631
3154.46,794.526
3155.91,783.97
3157.36,802.871
3158.81,798.032
3160.26,807.394
3161.71,803.757
3163.16,798.538
3164.61,807.558
3166.06,801.17
3167.51,808.694
3168.96,812.108
3170.41,831.193
3171.86,843.673
3173.31,832.322
3174.76,835.966
3176.21,839.275
3177.67,839.189
3179.12,856.705
3180.57,850.081
3182.02,851.821
3183.47,865.247
3184.92,868.339
3186.37,875.14
3187.82,873.709
3189.27,864.557
3190.72,870.472
3192.17,870.597
3193.62,869.718
3195.07,865.076
3196.52,861.688
3197.97,863.166
3199.42,860.822
3200.87,844.442
3202.32,858.8
3203.77,837.548
3205.22,823.912
3206.67,813.408
3208.12,847.33
3209.57,820.439
3211.02,802.3
3212.47,793.877
3213.92,797.953
3215.37,790.83
3216.82,778.691
3218.27,782.355
3219.72,767.498
3221.17,758.621
3222.63,750.934
3224.08,748.931
3225.53,736.083
3226.98,715.652
3228.43,713.597
3229.88,703.493
3231.33,692.503
3232.78,675.158
3234.23,671.186
3235.68,657.649
3237.13,633.137
3238.58,653.809
3240.03,654.218
3241.48,639.797
3242.93,628.266
3244.38,622.269
3245.83,607.166
3247.28,601.625
3248.73,600.18
3250.18,608.081
3251.63,598.194
3253.08,587.065
3254.53,585.393
3255.98,571.378
3257.43,566.953
3258.88,574.196
3260.33,563.933
3261.78,576.213
3263.23,570.697
3264.68,555.062
3266.13,567.557
3267.59,579.421
3269.04,563.304
3270.49,556.516
3271.94,567.019
3273.39,552.028
3274.84,545.062
3276.29,566.88
3277.74,543.189
3279.19,546.367
3280.64,558.124
3282.09,556.757
3283.54,552.919
3284.99,542.089
3286.44,546.214
3287.89,549.819
3289.34,535.583
3290.79,545.034
3292.24,547.987
3293.69,546.759
3295.14,545.758
3296.59,544.676
3298.04,538.424
3299.49,545.948
3300.94,544.255
3302.39,556.611
3303.84,541.795
3305.29,539.801
3306.74,546.428
3308.19,542.672
3309.64,543.796
3311.09,549.505
3312.55,546.787
3314,557.31
3315.45,548.828
3316.9,544.312
3318.35,540.589
3319.8,537.062
3321.25,546.093
3322.7,538.731
3324.15,538.819
3325.6,551.139
3327.05,551.195
3328.5,537.705
3329.95,542.67
3331.4,554.73
3332.85,542.316
3334.3,541.838
3335.75,537.713
3337.2,540.877
3338.65,534.226
3340.1,546.082
3341.55,537.007
3343,537.814
3344.45,536.112
3345.9,539.417
3347.35,513.977
3348.8,540.849
3350.25,543.987
3351.7,549.567
3353.15,549.348
3354.6,543.493
3356.06,539.874
3357.51,549.842
3358.96,526.847
3360.41,532.039
3361.86,535.221
3363.31,543
3364.76,528.435
3366.21,537.292
3367.66,550.939
3369.11,548.531
3370.56,545.346
3372.01,546.831
3373.46,531.785
3374.91,550.868
3376.36,552.777
3377.81,545.523
3379.26,535.371
3380.71,553.139
3382.16,557.615
3383.61,549.241
3385.06,544.881
3386.51,539.151
3387.96,546.397
3389.41,559.33
3390.86,558.007
3392.31,539.628
3393.76,545.315
3395.21,550.463
3396.66,532.848
3398.11,550.234
3399.56,548.041
3401.02,548.621
3402.47,548.065
3403.92,541.45
3405.37,550.121
3406.82,537.016
3408.27,556.428
3409.72,546.483
3411.17,548.722
3412.62,538.514
3414.07,554.22
3415.52,538.008
3416.97,552.151
3418.42,551.371
3419.87,546.668
3421.32,543.944
3422.77,543.472
3424.22,549.92
3425.67,560.972
3427.12,567.063
3428.57,550.485
3430.02,553.136
3431.47,549.641
3432.92,539.489
3434.37,547.703
3435.82,555.302
3437.27,556.259
3438.72,559.273
3440.17,547.129
3441.62,550.212
3443.07,552.711
3444.52,558.717
3445.98,551.729
3447.43,535.997
3448.88,541.701
3450.33,545.448
3451.78,550.13
3453.23,560.247
3454.68,548.725
3456.13,551.913
3457.58,565.811
3459.03,551.806
3460.48,548.591
3461.93,549.839
3463.38,545.107
3464.83,556.191
3466.28,555.857
3467.73,542.795
3469.18,560.433
3470.63,555.122
3472.08,552.705
3473.53,549.601
3474.98,554.395
3476.43,538.267
3477.88,564.04
3479.33,557.279
3480.78,555.578
3482.23,561.578
3483.68,558.384
3485.13,552.906
3486.58,556.891
3488.03,549.406
3489.49,549.287
3490.94,550.252
3492.39,551.128
3493.84,559.414
3495.29,549.786
3496.74,556.938
3498.19,549.158
3499.64,568.714
3501.09,549.521
3502.54,567.904
3503.99,560.924
3505.44,551.397
3506.89,564.629
3508.34,562.943
3509.79,572.027
3511.24,568.967
3512.69,568.142
3514.14,560.916
3515.59,566.412
3517.04,584.159
3518.49,570.242
3519.94,560.85
3521.39,549.838
3522.84,575.107
3524.29,562.734
3525.74,556.165
3527.19,570.274
3528.64,564.183
3530.09,567.907
3531.54,555.158
3532.99,556.758
3534.45,563.071
3535.9,576.427
3537.35,561.889
3538.8,562.105
3540.25,552.301
3541.7,554.359
3543.15,557.477
3544.6,561.798
3546.05,577.763
3547.5,571.535
3548.95,576.207
3550.4,573.115
3551.85,573.118
3553.3,554.952
3554.75,559.228
3556.2,559.959
3557.65,570.553
3559.1,565.169
3560.55,562.198
3562,555.174
3563.45,574.677
3564.9,573.134
3566.35,562.503
3567.8,575.805
3569.25,565.704
3570.7,572.169
3572.15,573.583
3573.6,575.916
3575.05,572.566
3576.5,556.388
3577.96,554.688
3579.41,568.77
3580.86,564.231
3582.31,571.929
3583.76,576.507
3585.21,575.162
3586.66,570.428
3588.11,579.233
3589.56,567.535
3591.01,577.19
3592.46,583.82
3593.91,568.365
3595.36,570.338
3596.81,578.882
3598.26,575.812
3599.71,565.471
3601.16,573.427
3602.61,579.982
3604.06,572.791
3605.51,571.558
3606.96,570.565
3608.41,579.367
3609.86,574.368
3611.31,581.248
3612.76,568.305
3614.21,567.603
3615.66,590.584
3617.11,572.752
3618.56,579.325
3620.01,574.567
3621.46,581.305
3622.92,580.499
3624.37,580.891
3625.82,581.044
3627.27,583.125
3628.72,565.891
3630.17,574.542
3631.62,582.574
3633.07,570.102
3634.52,581.303
3635.97,582.554
3637.42,581.186
3638.87,585.97
3640.32,570.053
3641.77,593.243
3643.22,594.392
3644.67,585.234
3646.12,585.594
3647.57,587.382
3649.02,584.515
3650.47,591.356
3651.92,586.54
3653.37,592.198
3654.82,589.055
3656.27,586.072
3657.72,583.599
3659.17,592.262
3660.62,596.922
3662.07,591.343
3663.52,589.767
3664.97,592.503
3666.43,588.875
3667.88,599.688
3669.33,581.954
3670.78,584.745
3672.23,591.455
3673.68,597.231
3675.13,597.313
3676.58,599.637
3678.03,590.523
3679.48,599.735
3680.93,603.979
3682.38,590.917
3683.83,590.216
3685.28,589.173
3686.73,602.985
3688.18,598.098
3689.63,599.475
3691.08,593.922
3692.53,603.232
3693.98,596.629
3695.43,602.562
3696.88,596.382
3698.33,589.599
3699.78,589.656
3701.23,596.976
3702.68,599.451
3704.13,610.262
3705.58,599.334
3707.03,610.15
3708.48,598.628
3709.93,595.883
3711.39,602.698
3712.84,587.426
3714.29,606.849
3715.74,601.057
3717.19,602.461
3718.64,606.396
3720.09,602.014
3721.54,601.739
3722.99,601.726
3724.44,604.892
3725.89,598.131
3727.34,590.936
3728.79,593.023
3730.24,590.55
3731.69,608.537
3733.14,606.32
3734.59,608.127
3736.04,600.439
3737.49,602.521
3738.94,609.888
3740.39,620.49
3741.84,599.89
3743.29,617.745
3744.74,623.2
3746.19,606.069
3747.64,613.337
3749.09,619.093
3750.54,603.424
3751.99,606.27
3753.44,610.113
3754.89,611.537
3756.35,617.633
3757.8,614.635
3759.25,614.253
3760.7,614.756
3762.15,612.618
3763.6,605.541
3765.05,616.663
3766.5,616.289
3767.95,619.852
3769.4,617.709
3770.85,615.629
3772.3,610.068
3773.75,611.124
3775.2,615.689
3776.65,613.693
3778.1,623.075
3779.55,614.262
3781,624.03
3782.45,631.509
3783.9,620.304
3785.35,610.952
3786.8,634.324
3788.25,610.736
3789.7,622.741
3791.15,612.842
3792.6,631.737
3794.05,619.156
3795.5,611.1
3796.95,616.073
3798.4,609.452
3799.85,623.516
3801.31,623.854
3802.76,611.292
3804.21,638.745
3805.66,636.301
3807.11,636.79
3808.56,630.708
3810.01,636.144
3811.46,640.565
3812.91,639.187
3814.36,629.714
3815.81,630.205
3817.26,633.107
3818.71,632.646
3820.16,639.087
3821.61,640.647
3823.06,628.794
3824.51,624.907
3825.96,637.265
3827.41,637.822
3828.86,636.74
3830.31,643.014
3831.76,636.92
3833.21,640.842
3834.66,650.42
3836.11,648.939
3837.56,644.952
3839.01,640.58
3840.46,640.842
3841.91,635.221
3843.36,634.133
3844.82,616.222
3846.27,638.479
3847.72,646.729
3849.17,645.266
3850.62,656.3
3852.07,648.467
3853.52,644.951
3854.97,645.901
3856.42,645.08
3857.87,644.959
3859.32,651.501
3860.77,648.543
3862.22,647.414
3863.67,655.04
3865.12,653.704
3866.57,647.492
3868.02,647.685
3869.47,661.916
3870.92,647.232
3872.37,643.919
3873.82,654.168
3875.27,667.359
3876.72,674.423
3878.17,671.37
3879.62,654.014
3881.07,658.01
3882.52,657.517
3883.97,659.31
3885.42,666.689
3886.87,666.137
3888.32,671.751
3889.78,661.955
3891.23,667.772
3892.68,664.614
3894.13,663.137
3895.58,668.527
3897.03,676.871
3898.48,678.276
3899.93,683.364
3901.38,679.865
3902.83,666.223
3904.28,681.264
3905.73,682.892
3907.18,683.621
3908.63,671.508
3910.08,679.859
3911.53,677.324
3912.98,688.387
3914.43,682.649
3915.88,683.745
3917.33,676.34
3918.78,671.232
3920.23,684.73
3921.68,689.043
3923.13,698.287
3924.58,686.299
3926.03,692.162
3927.48,689.359
3928.93,713.446
3930.38,688.728
3931.83,692.09
3933.28,695.096
3934.74,698.524
3936.19,710.709
3937.64,702.843
3939.09,692.011
3940.54,711.161
3941.99,703.402
3943.44,698.34
3944.89,701.583
3946.34,708.772
3947.79,716.368
3949.24,711.142
3950.69,713.492
3952.14,717.714
3953.59,721.554
3955.04,723.898
3956.49,702.87
3957.94,726.878
3959.39,710.505
3960.84,708.699
3962.29,714.411
3963.74,710.813
3965.19,705.023
3966.64,732.013
3968.09,715.252
3969.54,728.776
3970.99,711.864
3972.44,725.913
3973.89,723.452
3975.34,739.51
3976.79,735.729
3978.25,740.515
3979.7,738.703
3981.15,731.093
3982.6,735.407
3984.05,742.221
3985.5,745.517
3986.95,755.326
3988.4,742.753
3989.85,746.029
3991.3,743.062
3992.75,747.861
3994.2,756.888
3995.65,740.987
3997.1,778.159
3998.55,746.187
4000,747.789
