Item,Smu1_Time(1)(1),Smu1_V(1)(1),Smu1_I(1)(1),
1,0,0,0.000116348266601563,
2,0.10216018,9,1.05007934570313,
3,0.2047497,0,0.000286102294921875,
4,0.30688092,-9,-0.999622344970703,
5,0.40945462,0,0.000213623046875,
6,0.51157076,9,0.998348236083984,
7,0.61415906,0,0.000242233276367188,
8,0.71627498,-9,-0.996707916259766,
9,0.81885432,0,0.000213623046875,
10,0.92098418,9,0.996025085449219,
11,1.02357682,0,0.000232696533203125,
12,1.12572502,-9,-0.994701385498047,
13,1.22831806,0,0.000207901000976563,
14,1.33044662,9,0.994548797607422,
15,1.43304716,0,0.000225067138671875,
16,1.53513544,-9,-0.99372673034668,
17,1.63770814,0,0.000213623046875,
18,1.7398133,9,0.993684768676758,
19,1.84237678,0,0.000219345092773438,
20,1.9444962,-9,-0.992937088012695,
21,2.04707768,0,0.000211715698242188,
22,2.14917768,9,0.993106842041016,
23,2.25176126,0,0.000217437744140625,
24,2.35388172,-9,-0.992429733276367,
25,2.45645512,0,0.000209808349609375,
26,2.55858328,9,0.992605209350586,
27,2.66115976,0,0.000217437744140625,
28,2.7632579,-9,-0.992094039916992,
29,2.8658452,0,0.000207901000976563,
30,2.96796026,9,0.992380142211914,
31,3.07053418,0,0.000211715698242188,
32,3.1726686,-9,-0.991794586181641,
33,3.27523446,0,0.000207901000976563,
34,3.37734482,9,0.992170333862305,
35,3.47993862,0,0.000213623046875,
36,3.58203636,-9,-0.991706848144531,
37,3.68463936,0,0.000202178955078125,
38,3.78674456,9,0.992019653320313,
39,3.88931472,0,0.000211715698242188,
40,3.99142964,-9,-0.991567611694336,
41,4.09401228,0,0.000204086303710938,
42,4.19612402,9,0.991910934448242,
43,4.29870776,0,0.000209808349609375,
44,4.4008219,-9,-0.991481781005859,
45,4.50340394,0,0.000204086303710938,
46,4.60554522,9,0.991819381713867,
47,4.70812332,0,0.000207901000976563,
48,4.81022964,-9,-0.991413116455078,
49,4.912825,0,0.000200271606445313,
50,5.01492658,9,0.991785049438477,
51,5.11751714,0,0.000204086303710938,
52,5.219637,-9,-0.991376876831055,
53,5.32221944,0,0.000204086303710938,
54,5.42433628,9,0.991720199584961,
55,5.52691306,0,0.000207901000976563,
56,5.62901298,-9,-0.991363525390625,
57,5.73161652,0,0.000202178955078125,
58,5.83373354,9,0.991661071777344,
59,5.93634906,0,0.000204086303710938,
60,6.03845786,-9,-0.991323471069336,
61,6.14104514,0,0.000204086303710938,
62,6.24316966,9,0.991674423217773,
63,6.34574764,0,0.00020599365234375,
64,6.44786678,-9,-0.991344451904297,
65,6.55046098,0,0.000202178955078125,
66,6.65258644,9,0.991706848144531,
67,6.75516802,0,0.00020599365234375,
68,6.85729674,-9,-0.991313934326172,
69,6.95987246,0,0.000202178955078125,
70,7.0620244,9,0.991586685180664,
71,7.1646142,0,0.000204086303710938,
72,7.26671894,-9,-0.991340637207031,
73,7.36931274,0,0.000200271606445313,
74,7.47141612,9,0.991718292236328,
75,7.573996,0,0.000200271606445313,
76,7.67611594,-9,-0.991344451904297,
77,7.77870298,0,0.0001983642578125,
78,7.88081096,9,0.99168586730957,
79,7.9834099,0,0.000200271606445313,
80,8.085523,-9,-0.991373062133789,
81,8.1881392,0,0.000196456909179688,
82,8.29026788,9,0.991725921630859,
83,8.39285126,0,0.000204086303710938,
84,8.49496622,-9,-0.991355895996094,
85,8.59755044,0,0.000200271606445313,
86,8.69967676,9,0.991731643676758,
87,8.8022719,0,0.000202178955078125,
88,8.90438484,-9,-0.991371154785156,
89,9.00696528,0,0.000200271606445313,
90,9.10907512,9,0.991725921630859,
91,9.21165932,0,0.000200271606445313,
92,9.31381026,-9,-0.991291046142578,
93,9.41640796,0,0.000196456909179688,
94,9.5185227,9,0.991744995117188,
95,9.62111314,0,0.000202178955078125,
96,9.72322714,-9,-0.991365432739258,
97,9.8258076,0,0.0001983642578125,
98,9.92792724,9,0.991737365722656,
99,10.03051158,0,0.000204086303710938,
100,10.1326119,-9,-0.991388320922852,
101,10.2352104,0,0.0001983642578125,
102,10.33732358,9,0.991771697998047,
103,10.43994298,0,0.000196456909179688,
104,10.54205526,-9,-0.991390228271484,
105,10.64464432,0,0.0001983642578125,
106,10.7467573,9,0.991756439208984,
107,10.84933162,0,0.000202178955078125,
108,10.95144602,-9,-0.991401672363281,
109,11.05404406,0,0.0001983642578125,
110,11.156145,9,0.991767883300781,
111,11.25872376,0,0.000204086303710938,
112,11.36086382,-9,-0.991317749023438,
113,11.46344782,0,0.000196456909179688,
114,11.56557112,9,0.991739273071289,
115,11.66815976,0,0.000202178955078125,
116,11.77026832,-9,-0.991401672363281,
117,11.8728782,0,0.000194549560546875,
118,11.97497718,9,0.991750717163086,
119,12.07754734,0,0.000200271606445313,
120,12.1796689,-9,-0.991353988647461,
121,12.28225558,0,0.000196456909179688,
122,12.38438858,9,0.991729736328125,
123,12.4869984,0,0.000196456909179688,
124,12.58909188,-9,-0.991388320922852,
125,12.69176014,0,0.000196456909179688,
126,12.79389196,9,0.991676330566406,
127,12.89647028,0,0.000196456909179688,
128,12.9985987,-9,-0.991352081298828,
129,13.10119462,0,0.000194549560546875,
130,13.2032915,9,0.991697311401367,
131,13.30589922,0,0.000200271606445313,
132,13.40802242,-9,-0.991304397583008,
133,13.51060678,0,0.000196456909179688,
134,13.61273288,9,0.991666793823242,
135,13.7153272,0,0.000200271606445313,
136,13.81744226,-9,-0.991291046142578,
137,13.9200369,0,0.000196456909179688,
138,14.02213684,9,0.991664886474609,
139,14.12473602,0,0.0001983642578125,
140,14.22684958,-9,-0.991302490234375,
141,14.32943442,0,0.000194549560546875,
142,14.43156344,9,0.991607666015625,
143,14.5341518,0,0.0001983642578125,
144,14.63624054,-9,-0.991266250610352,
145,14.73883348,0,0.000192642211914063,
146,14.8409471,9,0.991569519042969,
147,14.94354858,0,0.000196456909179688,
148,15.0456694,-9,-0.991228103637695,
149,15.14826804,0,0.000196456909179688,
150,15.25039274,9,0.991584777832031,
151,15.35298386,0,0.000196456909179688,
152,15.4551174,-9,-0.991170883178711,
153,15.55771506,0,0.00019073486328125,
154,15.65982338,9,0.991592407226563,
155,15.76246162,0,0.000196456909179688,
156,15.86459452,-9,-0.991203308105469,
157,15.96717466,0,0.000194549560546875,
158,16.06930514,9,0.991456985473633,
159,16.17189174,0,0.000196456909179688,
160,16.27400336,-9,-0.991125106811523,
161,16.37659124,0,0.00019073486328125,
162,16.47869812,9,0.991535186767578,
163,16.58127414,0,0.000194549560546875,
164,16.68339646,-9,-0.991125106811523,
165,16.7859594,0,0.000188827514648438,
166,16.88808738,9,0.991495132446289,
167,16.99068824,0,0.000196456909179688,
168,17.09279084,-9,-0.991130828857422,
169,17.19538958,0,0.000192642211914063,
170,17.29750306,9,0.991495132446289,
171,17.4000942,0,0.0001983642578125,
172,17.50221404,-9,-0.991098403930664,
173,17.60480378,0,0.000194549560546875,
174,17.70691354,9,0.991476058959961,
175,17.80951668,0,0.000200271606445313,
176,17.91162972,-9,-0.991107940673828,
177,18.01424412,0,0.000194549560546875,
178,18.11635494,9,0.991458892822266,
179,18.21894488,0,0.000192642211914063,
180,18.32107706,-9,-0.991003036499023,
181,18.42366764,0,0.00019073486328125,
182,18.52578366,9,0.991436004638672,
183,18.62839138,0,0.000200271606445313,
184,18.73051348,-9,-0.991052627563477,
185,18.83311014,0,0.000196456909179688,
186,18.93524548,9,0.99134635925293,
187,19.0378281,0,0.000202178955078125,
188,19.1399629,-9,-0.990987777709961,
189,19.24256118,0,0.000192642211914063,
190,19.3446765,9,0.991382598876953,
191,19.44727852,0,0.000194549560546875,
192,19.54937932,-9,-0.99101448059082,
193,19.65197162,0,0.000194549560546875,
194,19.75410626,9,0.991323471069336,
195,19.85668434,0,0.0001983642578125,
196,19.95879002,-9,-0.990972518920898,
197,20.06138372,0,0.000196456909179688,
198,20.16348856,9,0.991327285766602,
199,20.26608348,0,0.000196456909179688,
200,20.36820364,-9,-0.990947723388672,
201,20.4707904,0,0.000192642211914063,
202,20.5729116,9,0.991273880004883,
203,20.675492,0,0.0001983642578125,
204,20.77759626,-9,-0.99091911315918,
205,20.88020928,0,0.00019073486328125,
206,20.98232144,9,0.991243362426758,
207,21.08490148,0,0.000194549560546875,
208,21.18702888,-9,-0.990890502929688,
209,21.28961978,0,0.00019073486328125,
210,21.39172634,9,0.991247177124023,
211,21.49434018,0,0.000196456909179688,
212,21.59643498,-9,-0.990882873535156,
213,21.69903022,0,0.000196456909179688,
214,21.8011569,9,0.991237640380859,
215,21.90373948,0,0.000196456909179688,
216,22.00585446,-9,-0.990823745727539,
217,22.10844666,0,0.00019073486328125,
218,22.21054948,9,0.991209030151367,
219,22.31315964,0,0.00019073486328125,
220,22.41526774,-9,-0.990791320800781,
221,22.51786846,0,0.000192642211914063,
222,22.6199939,9,0.991168975830078,
223,22.72258466,0,0.000196456909179688,
224,22.82470572,-9,-0.990766525268555,
225,22.92730266,0,0.00019073486328125,
226,23.02941454,9,0.991146087646484,
227,23.13199492,0,0.00019073486328125,
228,23.23412616,-9,-0.990728378295898,
229,23.33670704,0,0.000185012817382813,
230,23.43883222,9,0.991081237792969,
231,23.54142828,0,0.000194549560546875,
232,23.64356494,-9,-0.990522384643555,
233,23.7461385,0,0.000186920166015625,
234,23.84826094,9,0.991085052490234,
235,23.95084324,0,0.00019073486328125,
236,24.05294124,-9,-0.990671157836914,
237,24.15551436,0,0.000188827514648438,
238,24.25762234,9,0.99104118347168,
239,24.36021156,0,0.000192642211914063,
240,24.46232366,-9,-0.99061393737793,
241,24.56490706,0,0.000188827514648438,
242,24.66701294,9,0.991020202636719,
243,24.76961266,0,0.000188827514648438,
244,24.87172368,-9,-0.990636825561523,
245,24.97429164,0,0.00019073486328125,
246,25.07642004,9,0.990915298461914,
247,25.17900506,0,0.000192642211914063,
248,25.28109994,-9,-0.990617752075195,
249,25.38370666,0,0.00019073486328125,
250,25.4858179,9,0.990961074829102,
251,25.58840216,0,0.000188827514648438,
252,25.69052198,-9,-0.990537643432617,
253,25.79308738,0,0.00019073486328125,
254,25.89522396,9,0.990898132324219,
255,25.99782336,0,0.000192642211914063,
256,26.0999303,-9,-0.990547180175781,
257,26.20251548,0,0.000188827514648438,
258,26.30464092,9,0.990842819213867,
259,26.40723358,0,0.00019073486328125,
260,26.5093511,-9,-0.99049186706543,
261,26.61192332,0,0.000188827514648438,
262,26.71404232,9,0.990806579589844,
263,26.81662318,0,0.000188827514648438,
264,26.91873184,-9,-0.990451812744141,
265,27.02130982,0,0.000186920166015625,
266,27.12343714,9,0.99070930480957,
267,27.22600936,0,0.00019073486328125,
268,27.3281349,-9,-0.990398406982422,
269,27.43071158,0,0.000188827514648438,
270,27.53282806,9,0.990755081176758,
271,27.6354376,0,0.000192642211914063,
272,27.73755334,-9,-0.990331649780273,
273,27.84011698,0,0.000186920166015625,
274,27.94222872,9,0.990715026855469,
275,28.04481258,0,0.000188827514648438,
276,28.14694276,-9,-0.990310668945313,
277,28.24952144,0,0.000186920166015625,
278,28.35162048,9,0.990688323974609,
279,28.4542095,0,0.000188827514648438,
280,28.55631824,-9,-0.990312576293945,
281,28.65890542,0,0.00018310546875,
282,28.76101548,9,0.990629196166992,
283,28.8635924,0,0.000188827514648438,
284,28.96569696,-9,-0.990287780761719,
285,29.0682779,0,0.000186920166015625,
286,29.17039502,9,0.990631103515625,
287,29.27298202,0,0.000186920166015625,
288,29.37511114,-9,-0.990209579467773,
289,29.47767486,0,0.000188827514648438,
290,29.57980318,9,0.990549087524414,
291,29.68237154,0,0.000188827514648438,
292,29.78449096,-9,-0.990188598632813,
293,29.8870768,0,0.000185012817382813,
294,29.98919262,9,0.990497589111328,
295,30.0917503,0,0.000188827514648438,
296,30.19388176,-9,-0.990133285522461,
297,30.29644732,0,0.000186920166015625,
298,30.39855998,9,0.990476608276367,
299,30.50113996,0,0.00019073486328125,
300,30.60323714,-9,-0.990116119384766,
301,30.70587298,0,0.00019073486328125,
302,30.80799266,9,0.990489959716797,
303,30.91056364,0,0.000186920166015625,
304,31.01268096,-9,-0.990047454833984,
305,31.11526052,0,0.000186920166015625,
306,31.21735802,9,0.990446090698242,
307,31.31995022,0,0.000188827514648438,
308,31.42206458,-9,-0.990060806274414,
309,31.5246544,0,0.000185012817382813,
310,31.62677652,9,0.990402221679688,
311,31.72935162,0,0.000185012817382813,
312,31.83147512,-9,-0.990005493164063,
313,31.93405676,0,0.000181198120117188,
314,32.03616804,9,0.990375518798828,
315,32.13875104,0,0.000185012817382813,
316,32.240854,-9,-0.989999771118164,
317,32.34342506,0,0.000185012817382813,
318,32.4455525,9,0.990329742431641,
319,32.54812546,0,0.000185012817382813,
320,32.65024288,-9,-0.989974975585938,
321,32.75282096,0,0.000186920166015625,
322,32.85492772,9,0.990299224853516,
323,32.95751756,0,0.000181198120117188,
324,33.0596274,-9,-0.989955902099609,
325,33.1622065,0,0.00018310546875,
326,33.26432004,9,0.990240097045898,
327,33.36689298,0,0.000188827514648438,
328,33.46901124,-9,-0.989923477172852,
329,33.57159498,0,0.000181198120117188,
330,33.6737037,9,0.990232467651367,
331,33.77628322,0,0.000186920166015625,
332,33.87839834,-9,-0.989877700805664,
333,33.98097762,0,0.00018310546875,
334,34.08309822,9,0.990182876586914,
335,34.18568664,0,0.000186920166015625,
336,34.28779132,-9,-0.989818572998047,
337,34.3903795,0,0.00018310546875,
338,34.49249496,9,0.990190505981445,
339,34.5950751,0,0.00018310546875,
340,34.69718666,-9,-0.989814758300781,
341,34.7997552,0,0.000181198120117188,
342,34.90188094,9,0.990056991577148,
343,35.0044661,0,0.00019073486328125,
344,35.10656416,-9,-0.989791870117188,
345,35.20917166,0,0.00018310546875,
346,35.31129998,9,0.990129470825195,
347,35.41387492,0,0.000186920166015625,
348,35.51599484,-9,-0.989736557006836,
349,35.61857214,0,0.000179290771484375,
350,35.72067784,9,0.990095138549805,
351,35.82326594,0,0.00018310546875,
352,35.92537664,-9,-0.989728927612305,
353,36.02794194,0,0.000181198120117188,
354,36.1300634,9,0.990036010742188,
355,36.2326427,0,0.000177383422851563,
356,36.33477786,-9,-0.98961067199707,
357,36.43736508,0,0.00017547607421875,
358,36.53947708,9,0.990020751953125,
359,36.64207084,0,0.00018310546875,
360,36.74418578,-9,-0.989616394042969,
361,36.84675324,0,0.000181198120117188,
362,36.94887982,9,0.989906311035156,
363,37.05145704,0,0.000179290771484375,
364,37.15355762,-9,-0.989616394042969,
365,37.25614182,0,0.000181198120117188,
366,37.3582491,9,0.989946365356445,
367,37.4608432,0,0.00018310546875,
368,37.56294438,-9,-0.989551544189453,
369,37.66552582,0,0.000179290771484375,
370,37.7676518,9,0.989908218383789,
371,37.8702268,0,0.000181198120117188,
372,37.97234094,-9,-0.98954963684082,
373,38.07494584,0,0.000173568725585938,
374,38.17705688,9,0.989864349365234,
375,38.27964454,0,0.00018310546875,
376,38.38177696,-9,-0.989501953125,
377,38.48435254,0,0.000181198120117188,
378,38.58648024,9,0.98980712890625,
379,38.68906026,0,0.000179290771484375,
380,38.79116344,-9,-0.989465713500977,
381,38.89375516,0,0.000179290771484375,
382,38.99586476,9,0.989734649658203,
383,39.09843856,0,0.000181198120117188,
384,39.2005475,-9,-0.989398956298828,
385,39.30311838,0,0.000179290771484375,
386,39.40523982,9,0.989706039428711,
387,39.50782698,0,0.00018310546875,
388,39.60993686,-9,-0.989358901977539,
389,39.71252808,0,0.000179290771484375,
390,39.81463822,9,0.989673614501953,
391,39.91721156,0,0.000181198120117188,
392,40.01934062,-9,-0.98933219909668,
393,40.12192984,0,0.000177383422851563,
394,40.2240359,9,0.989593505859375,
395,40.32662792,0,0.000179290771484375,
396,40.42875272,-9,-0.989299774169922,
397,40.5313548,0,0.000173568725585938,
398,40.63347338,9,0.989582061767578,
399,40.7360598,0,0.000179290771484375,
400,40.83817726,-9,-0.989231109619141,
401,40.94075796,0,0.000177383422851563,
402,41.04289064,9,0.989572525024414,
403,41.14547808,0,0.000181198120117188,
404,41.24758192,-9,-0.989198684692383,
405,41.35015456,0,0.000177383422851563,
406,41.45227748,9,0.989513397216797,
407,41.5548588,0,0.00017547607421875,
408,41.65700472,-9,-0.989002227783203,
409,41.75958936,0,0.000173568725585938,
410,41.8616998,9,0.989486694335938,
411,41.96430068,0,0.000179290771484375,
412,42.06640292,-9,-0.989151000976563,
413,42.16899514,0,0.000173568725585938,
414,42.2711242,9,0.989395141601563,
415,42.37371182,0,0.00017547607421875,
416,42.47584074,-9,-0.989097595214844,
417,42.57844016,0,0.00017547607421875,
418,42.68053392,9,0.989414215087891,
419,42.78314166,0,0.000177383422851563,
420,42.88525086,-9,-0.989032745361328,
421,42.98782672,0,0.00017547607421875,
422,43.08994522,9,0.989328384399414,
423,43.19251806,0,0.000177383422851563,
424,43.2946227,-9,-0.988922119140625,
425,43.39721532,0,0.000173568725585938,
426,43.4993239,9,0.989309310913086,
427,43.60189926,0,0.00017547607421875,
428,43.70402616,-9,-0.988924026489258,
429,43.80660498,0,0.0001678466796875,
430,43.90871256,9,0.989261627197266,
431,44.01130634,0,0.000179290771484375,
432,44.11341228,-9,-0.988914489746094,
433,44.2160051,0,0.000171661376953125,
434,44.31812196,9,0.989219665527344,
435,44.42070328,0,0.000173568725585938,
436,44.52281318,-9,-0.988862991333008,
437,44.62540844,0,0.000171661376953125,
438,44.72751048,9,0.989175796508789,
439,44.83011646,0,0.000171661376953125,
440,44.93222686,-9,-0.988780975341797,
441,45.03480848,0,0.000169754028320313,
442,45.13692666,9,0.989120483398438,
443,45.23951288,0,0.000173568725585938,
444,45.34166718,-9,-0.988655090332031,
445,45.44427324,0,0.0001678466796875,
446,45.54639058,9,0.989093780517578,
447,45.64897972,0,0.00017547607421875,
448,45.75109976,-9,-0.988759994506836,
449,45.85368298,0,0.000171661376953125,
450,45.95579244,9,0.989030838012695,
451,46.05837328,0,0.00017547607421875,
452,46.16046678,-9,-0.98872184753418,
453,46.26306246,0,0.0001678466796875,
454,46.36519914,9,0.988946914672852,
455,46.46779672,0,0.000171661376953125,
456,46.5699091,-9,-0.988658905029297,
457,46.6724956,0,0.000165939331054688,
458,46.7746136,9,0.988935470581055,
459,46.87722028,0,0.000169754028320313,
460,46.97933882,-9,-0.988620758056641,
461,47.08193586,0,0.000165939331054688,
462,47.1840463,9,0.9888916015625,
463,47.28664226,0,0.0001678466796875,
464,47.38877652,-9,-0.988567352294922,
465,47.49135786,0,0.000165939331054688,
466,47.59348694,9,0.988800048828125,
467,47.69608842,0,0.000169754028320313,
468,47.79819986,-9,-0.988513946533203,
469,47.90079604,0,0.000165939331054688,
470,48.00291108,9,0.988824844360352,
471,48.10550654,0,0.000169754028320313,
472,48.20761676,-9,-0.988479614257813,
473,48.31020174,0,0.000165939331054688,
474,48.4123295,9,0.988737106323242,
475,48.51493112,0,0.000169754028320313,
476,48.61703082,-9,-0.988452911376953,
477,48.71966146,0,0.000164031982421875,
478,48.82177398,9,0.988731384277344,
479,48.92436728,0,0.0001678466796875,
480,49.02647766,-9,-0.988395690917969,
481,49.12906538,0,0.000164031982421875,
482,49.2311673,9,0.988706588745117,
483,49.33376662,0,0.0001678466796875,
484,49.43587544,-9,-0.988372802734375,
485,49.5384515,0,0.0001678466796875,
486,49.64057616,9,0.988630294799805,
487,49.74316742,0,0.000165939331054688,
488,49.84530944,-9,-0.988252639770508,
489,49.94790326,0,0.000165939331054688,
490,50.05000132,9,0.988613128662109,
491,50.15260644,0,0.000165939331054688,
492,50.25471082,-9,-0.988273620605469,
493,50.3572904,0,0.000165939331054688,
494,50.45941048,9,0.988491058349609,
495,50.56199856,0,0.0001678466796875,
496,50.66410756,-9,-0.988235473632813,
497,50.7667109,0,0.000162124633789063,
498,50.86882012,9,0.988523483276367,
499,50.97141458,0,0.000165939331054688,
500,51.07354012,-9,-0.988176345825195,
501,51.1761435,0,0.000165939331054688,
502,51.2782664,9,0.98846435546875,
503,51.38084806,0,0.000169754028320313,
504,51.48295508,-9,-0.988157272338867,
505,51.58555456,0,0.000165939331054688,
506,51.68767062,9,0.988420486450195,
507,51.79026154,0,0.000162124633789063,
508,51.89239816,-9,-0.98802375793457,
509,51.99498366,0,0.000164031982421875,
510,52.09712472,9,0.988239288330078,
511,52.19971568,0,0.000165939331054688,
512,52.30183338,-9,-0.988059997558594,
513,52.4044398,0,0.00016021728515625,
514,52.50654124,9,0.988315582275391,
515,52.60912932,0,0.000162124633789063,
516,52.71124172,-9,-0.98797607421875,
517,52.81381236,0,0.00016021728515625,
518,52.91592616,9,0.988279342651367,
519,53.01853612,0,0.000162124633789063,
520,53.12062452,-9,-0.987977981567383,
521,53.2232135,0,0.00016021728515625,
522,53.3253479,9,0.988183975219727,
523,53.42793818,0,0.00016021728515625,
524,53.5300515,-9,-0.987888336181641,
525,53.63262224,0,0.000156402587890625,
526,53.7347313,9,0.988134384155273,
527,53.83733166,0,0.000164031982421875,
528,53.93944702,-9,-0.987808227539063,
529,54.04202694,0,0.000158309936523438,
530,54.14413824,9,0.988082885742188,
531,54.24672732,0,0.00016021728515625,
532,54.3488573,-9,-0.987796783447266,
533,54.4514311,0,0.000156402587890625,
534,54.55354644,9,0.988061904907227,
535,54.65613236,0,0.000154495239257813,
536,54.7582389,-9,-0.987771987915039,
537,54.86080098,0,0.000158309936523438,
538,54.96291906,9,0.988006591796875,
539,55.06550176,0,0.000156402587890625,
540,55.1676542,-9,-0.987617492675781,
541,55.2702344,0,0.000150680541992188,
542,55.37236076,9,0.987966537475586,
543,55.47495436,0,0.000158309936523438,
544,55.57706132,-9,-0.987672805786133,
545,55.67964118,0,0.000154495239257813,
546,55.7817634,9,0.987909317016602,
547,55.88433042,0,0.000158309936523438,
548,55.98644588,-9,-0.987625122070313,
549,56.08902642,0,0.000154495239257813,
550,56.1911252,9,0.987873077392578,
551,56.2937098,0,0.000156402587890625,
552,56.39585196,-9,-0.987556457519531,
553,56.4984247,0,0.000158309936523438,
554,56.60055536,9,0.987766265869141,
555,56.70312188,0,0.00016021728515625,
556,56.80523258,-9,-0.987510681152344,
557,56.90781702,0,0.000154495239257813,
558,57.0099178,9,0.987781524658203,
559,57.11248506,0,0.000158309936523438,
560,57.21462204,-9,-0.987411499023438,
561,57.31718994,0,0.000154495239257813,
562,57.41931412,9,0.987703323364258,
563,57.52189646,0,0.000152587890625,
564,57.62399814,-9,-0.987428665161133,
565,57.72659084,0,0.000154495239257813,
566,57.82871324,9,0.987674713134766,
567,57.93129328,0,0.000152587890625,
568,58.03341308,-9,-0.987382888793945,
569,58.13600716,0,0.000154495239257813,
570,58.23812192,9,0.987651824951172,
571,58.34071926,0,0.000156402587890625,
572,58.44282602,-9,-0.987331390380859,
573,58.54541414,0,0.000154495239257813,
574,58.64755018,9,0.987581253051758,
575,58.75013974,0,0.000162124633789063,
576,58.85224818,-9,-0.987266540527344,
577,58.95482644,0,0.000158309936523438,
578,59.05693898,9,0.987533569335938,
579,59.15952488,0,0.000154495239257813,
580,59.2616427,-9,-0.9871826171875,
581,59.3642203,0,0.000152587890625,
582,59.46633876,9,0.987478256225586,
583,59.5689141,0,0.000152587890625,
584,59.67100496,-9,-0.987207412719727,
585,59.7735857,0,0.000154495239257813,
586,59.87571352,9,0.987377166748047,
587,59.97831046,0,0.000156402587890625,
588,60.08043864,-9,-0.987129211425781,
589,60.18301228,0,0.000148773193359375,
590,60.28513244,9,0.987360000610352,
591,60.38771906,0,0.000150680541992188,
592,60.48983524,-9,-0.987071990966797,
593,60.59242752,0,0.000146865844726563,
594,60.69454622,9,0.987327575683594,
595,60.79713322,0,0.000148773193359375,
596,60.89925708,-9,-0.987045288085938,
597,61.00184338,0,0.000148773193359375,
598,61.10398698,9,0.987201690673828,
599,61.20656692,0,0.000152587890625,
600,61.30869152,-9,-0.987018585205078,
601,61.41127588,0,0.000150680541992188,
602,61.51339124,9,0.98725700378418,
603,61.61596984,0,0.000150680541992188,
604,61.71808584,-9,-0.986948013305664,
605,61.82065284,0,0.000148773193359375,
606,61.92277414,9,0.987174987792969,
607,62.02536908,0,0.000152587890625,
608,62.12747514,-9,-0.986930847167969,
609,62.23006904,0,0.000150680541992188,
610,62.33217992,9,0.987157821655273,
611,62.43476524,0,0.000154495239257813,
612,62.53689658,-9,-0.986848831176758,
613,62.6394748,0,0.000146865844726563,
614,62.74158358,9,0.987127304077148,
615,62.84418314,0,0.000150680541992188,
616,62.94630976,-9,-0.986845016479492,
617,63.0489005,0,0.000148773193359375,
618,63.15101528,9,0.987068176269531,
619,63.2535866,0,0.000150680541992188,
620,63.3557326,-9,-0.986766815185547,
621,63.45831106,0,0.000148773193359375,
622,63.5604117,9,0.987043380737305,
623,63.66299772,0,0.000152587890625,
624,63.76512064,-9,-0.986724853515625,
625,63.86770012,0,0.00014495849609375,
626,63.96981736,9,0.986921310424805,
627,64.0723913,0,0.000152587890625,
628,64.17451712,-9,-0.986661911010742,
629,64.27709634,0,0.000148773193359375,
630,64.37920616,9,0.986942291259766,
631,64.48181088,0,0.000146865844726563,
632,64.58391582,-9,-0.986648559570313,
633,64.68649016,0,0.000150680541992188,
634,64.78860342,9,0.98689079284668,
635,64.89117516,0,0.000150680541992188,
636,64.99328814,-9,-0.986627578735352,
637,65.0958925,0,0.00014495849609375,
638,65.19800966,9,0.98681640625,
639,65.30061384,0,0.000146865844726563,
640,65.4027329,-9,-0.98655891418457,
641,65.50532246,0,0.000150680541992188,
642,65.60744624,9,0.986791610717773,
643,65.7100274,0,0.000150680541992188,
644,65.81214704,-9,-0.986549377441406,
645,65.91474014,0,0.000146865844726563,
646,66.0168488,9,0.986770629882813,
647,66.11941746,0,0.000152587890625,
648,66.22153856,-9,-0.986478805541992,
649,66.32411372,0,0.000146865844726563,
650,66.42621822,9,0.986734390258789,
651,66.5288108,0,0.000148773193359375,
652,66.63093032,-9,-0.986431121826172,
653,66.73351504,0,0.000148773193359375,
654,66.835643,9,0.986667633056641,
655,66.93822748,0,0.000146865844726563,
656,67.04034304,-9,-0.986412048339844,
657,67.142923,0,0.00014495849609375,
658,67.24504612,9,0.986602783203125,
659,67.34763364,0,0.000152587890625,
660,67.44974678,-9,-0.986358642578125,
661,67.55232092,0,0.000148773193359375,
662,67.6544456,9,0.986560821533203,
663,67.7570268,0,0.00014495849609375,
664,67.8591305,-9,-0.98631477355957,
665,67.96172032,0,0.000143051147460938,
666,68.06382406,9,0.986566543579102,
667,68.16642224,0,0.000148773193359375,
668,68.26854018,-9,-0.986309051513672,
669,68.37113068,0,0.000143051147460938,
670,68.47325922,9,0.986515045166016,
671,68.57584154,0,0.000148773193359375,
672,68.67795162,-9,-0.986265182495117,
673,68.78054278,0,0.000141143798828125,
674,68.88265274,9,0.98649787902832,
675,68.98522822,0,0.000146865844726563,
676,69.0873554,-9,-0.98619270324707,
677,69.18993962,0,0.000141143798828125,
678,69.2920809,9,0.986337661743164,
679,69.39468232,0,0.000143051147460938,
680,69.49679176,-9,-0.986179351806641,
681,69.59938212,0,0.00014495849609375,
682,69.70150056,9,0.986398696899414,
683,69.80408922,0,0.000143051147460938,
684,69.90620338,-9,-0.986106872558594,
685,70.0087888,0,0.000143051147460938,
686,70.11090592,9,0.986373901367188,
687,70.21350474,0,0.000143051147460938,
688,70.3156163,-9,-0.986091613769531,
689,70.41821048,0,0.000141143798828125,
690,70.52033866,9,0.986312866210938,
691,70.62291714,0,0.00014495849609375,
692,70.72504774,-9,-0.986003875732422,
693,70.8276379,0,0.000143051147460938,
694,70.92974188,9,0.986268997192383,
695,71.03233514,0,0.00014495849609375,
696,71.13444564,-9,-0.986013412475586,
697,71.23702446,0,0.000141143798828125,
698,71.33915496,9,0.98621940612793,
699,71.44173304,0,0.00014495849609375,
700,71.54382928,-9,-0.985994338989258,
701,71.64643662,0,0.000141143798828125,
702,71.74853654,9,0.986207962036133,
703,71.85113328,0,0.000146865844726563,
704,71.95325162,-9,-0.985925674438477,
705,72.05583474,0,0.000146865844726563,
706,72.15795772,9,0.986150741577148,
707,72.26054236,0,0.00014495849609375,
708,72.36266378,-9,-0.985916137695313,
709,72.46526766,0,0.000143051147460938,
710,72.56737964,9,0.986137390136719,
711,72.66997044,0,0.00014495849609375,
712,72.7721026,-9,-0.985857009887695,
713,72.8746817,0,0.000143051147460938,
714,72.97681482,9,0.986066818237305,
715,73.0794,0,0.000143051147460938,
716,73.18150802,-9,-0.985832214355469,
717,73.28410098,0,0.000141143798828125,
718,73.3862225,9,0.985998153686523,
719,73.48880076,0,0.000143051147460938,
720,73.59091722,-9,-0.985761642456055,
721,73.69350726,0,0.00014495849609375,
722,73.79560674,9,0.986000061035156,
723,73.89820906,0,0.00014495849609375,
724,74.00033854,-9,-0.985719680786133,
725,74.1029319,0,0.0001373291015625,
726,74.20504704,9,0.985971450805664,
727,74.30764922,0,0.000139236450195313,
728,74.4097645,-9,-0.985694885253906,
729,74.5123544,0,0.000143051147460938,
730,74.61445898,9,0.985937118530273,
731,74.71705706,0,0.000141143798828125,
732,74.81918388,-9,-0.985685348510742,
733,74.92177614,0,0.0001373291015625,
734,75.0239024,9,0.985891342163086,
735,75.12649056,0,0.000141143798828125,
736,75.22860794,-9,-0.985614776611328,
737,75.33118498,0,0.000141143798828125,
738,75.43330556,9,0.985813140869141,
739,75.53590792,0,0.0001373291015625,
740,75.63801176,-9,-0.985631942749023,
741,75.74059694,0,0.0001373291015625,
742,75.84271402,9,0.985815048217773,
743,75.94530564,0,0.000141143798828125,
744,76.04743784,-9,-0.985511779785156,
745,76.15002872,0,0.000139236450195313,
746,76.25213634,9,0.985816955566406,
747,76.35474862,0,0.000141143798828125,
748,76.45686366,-9,-0.985538482666016,
749,76.55944922,0,0.0001373291015625,
750,76.66156072,9,0.985738754272461,
751,76.76414366,0,0.000139236450195313,
752,76.86626058,-9,-0.985500335693359,
753,76.96885444,0,0.000139236450195313,
754,77.07095856,9,0.985734939575195,
755,77.17354854,0,0.000141143798828125,
756,77.27568176,-9,-0.985452651977539,
757,77.37826944,0,0.0001373291015625,
758,77.48039452,9,0.985685348510742,
759,77.5829806,0,0.000139236450195313,
760,77.68508232,-9,-0.98542594909668,
761,77.78768088,0,0.0001373291015625,
762,77.8897878,9,0.98567008972168,
763,77.99237884,0,0.0001373291015625,
764,78.0945118,-9,-0.985326766967773,
765,78.19709628,0,0.0001373291015625,
766,78.29920532,9,0.985639572143555,
767,78.40181546,0,0.0001373291015625,
768,78.50392366,-9,-0.985374450683594,
769,78.60653392,0,0.000133514404296875,
770,78.70864704,9,0.985601425170898,
771,78.81123708,0,0.0001373291015625,
772,78.91336746,-9,-0.985324859619141,
773,79.01595594,0,0.0001373291015625,
774,79.11805908,9,0.985561370849609,
775,79.22065808,0,0.000135421752929688,
776,79.32276978,-9,-0.985324859619141,
777,79.42537358,0,0.000133514404296875,
778,79.52748498,9,0.985502243041992,
779,79.63007198,0,0.000135421752929688,
780,79.73219018,-9,-0.985261917114258,
781,79.83478636,0,0.000135421752929688,
782,79.93690322,9,0.985481262207031,
783,80.03949968,0,0.0001373291015625,
784,80.14158736,-9,-0.985246658325195,
785,80.24417098,0,0.0001373291015625,
786,80.34629712,9,0.985410690307617,
787,80.44889106,0,0.0001373291015625,
788,80.55099838,-9,-0.985235214233398,
789,80.65360682,0,0.0001373291015625,
790,80.7557062,9,0.98541259765625,
791,80.8583218,0,0.000135421752929688,
792,80.96045476,-9,-0.985176086425781,
793,81.0630316,0,0.000135421752929688,
794,81.16516838,9,0.985355377197266,
795,81.26775776,0,0.000133514404296875,
796,81.36987434,-9,-0.98515510559082,
797,81.47247636,0,0.000133514404296875,
798,81.57459764,9,0.98530387878418,
799,81.67717722,0,0.000141143798828125,
800,81.77929068,-9,-0.985107421875,
801,81.88187782,0,0.0001373291015625,
802,81.98398932,9,0.985319137573242,
803,82.08659136,0,0.0001373291015625,
804,82.18869632,-9,-0.985086441040039,
805,82.29129394,0,0.000135421752929688,
806,82.39341806,9,0.985298156738281,
807,82.49600316,0,0.000139236450195313,
808,82.5981297,-9,-0.985038757324219,
809,82.7007165,0,0.0001373291015625,
810,82.80282462,9,0.985275268554688,
811,82.90543214,0,0.000135421752929688,
812,83.0075554,-9,-0.984964370727539,
813,83.11013366,0,0.000133514404296875,
814,83.212254,9,0.985218048095703,
815,83.31485504,0,0.000135421752929688,
816,83.41697186,-9,-0.984987258911133,
817,83.51956272,0,0.000135421752929688,
818,83.62167396,9,0.985145568847656,
819,83.7242718,0,0.0001373291015625,
820,83.82639192,-9,-0.984947204589844,
821,83.92899042,0,0.000133514404296875,
822,84.03113806,9,0.985147476196289,
823,84.13373414,0,0.000133514404296875,
824,84.23585166,-9,-0.984920501708984,
825,84.33845612,0,0.000133514404296875,
826,84.44057104,9,0.985139846801758,
827,84.54315016,0,0.000131607055664063,
828,84.64528192,-9,-0.984861373901367,
829,84.74784846,0,0.00012969970703125,
830,84.84999508,9,0.984973907470703,
831,84.95258804,0,0.000131607055664063,
832,85.05468878,-9,-0.984865188598633,
833,85.15727018,0,0.00012969970703125,
834,85.2593751,9,0.985050201416016,
835,85.36195068,0,0.000131607055664063,
836,85.46407062,-9,-0.98481559753418,
837,85.56664292,0,0.000127792358398438,
838,85.66878036,9,0.984970092773438,
839,85.77135936,0,0.000131607055664063,
840,85.87345196,-9,-0.984809875488281,
841,85.97605328,0,0.000127792358398438,
842,86.0781598,9,0.985012054443359,
843,86.18073848,0,0.000133514404296875,
844,86.28286644,-9,-0.984764099121094,
845,86.38544362,0,0.000131607055664063,
846,86.4875685,9,0.98497200012207,
847,86.59015184,0,0.000131607055664063,
848,86.69226264,-9,-0.984720230102539,
849,86.79483288,0,0.000125885009765625,
850,86.89695482,9,0.984918594360352,
851,86.99953966,0,0.000133514404296875,
852,87.10164528,-9,-0.984725952148438,
853,87.20422722,0,0.000131607055664063,
854,87.30633454,9,0.984870910644531,
855,87.4089198,0,0.00012969970703125,
856,87.5110443,-9,-0.984668731689453,
857,87.61361146,0,0.000123977661132813,
858,87.7157554,9,0.984794616699219,
859,87.81832938,0,0.000131607055664063,
860,87.920427,-9,-0.984664916992188,
861,88.02301534,0,0.000131607055664063,
862,88.12514526,9,0.984796524047852,
863,88.22771278,0,0.00012969970703125,
864,88.32984432,-9,-0.984554290771484,
865,88.4324232,0,0.000125885009765625,
866,88.53452978,9,0.984827041625977,
867,88.63711838,0,0.000125885009765625,
868,88.73922804,-9,-0.984580993652344,
869,88.8418105,0,0.000127792358398438,
870,88.94392202,9,0.984783172607422,
871,89.0464995,0,0.000127792358398438,
872,89.14865234,-9,-0.984437942504883,
873,89.25123862,0,0.0001220703125,
874,89.35334174,9,0.984760284423828,
875,89.45593766,0,0.00012969970703125,
876,89.55804456,-9,-0.984550476074219,
877,89.66061498,0,0.00012969970703125,
878,89.76274068,9,0.984716415405273,
879,89.86531834,0,0.000127792358398438,
880,89.96744554,-9,-0.984430313110352,
881,90.07002818,0,0.000125885009765625,
882,90.172143,9,0.984712600708008,
883,90.27472612,0,0.000125885009765625,
884,90.37684796,-9,-0.984405517578125,
885,90.47942438,0,0.000123977661132813,
886,90.58153678,9,0.984642028808594,
887,90.68409848,0,0.000131607055664063,
888,90.78621762,-9,-0.984432220458984,
889,90.88880628,0,0.0001220703125,
890,90.99092068,9,0.984647750854492,
891,91.09351546,0,0.000123977661132813,
892,91.19562574,-9,-0.984392166137695,
893,91.2981932,0,0.000123977661132813,
894,91.40030626,9,0.98460578918457,
895,91.50288394,0,0.000123977661132813,
896,91.60500122,-9,-0.984350204467773,
897,91.70758524,0,0.000123977661132813,
898,91.80969528,9,0.984588623046875,
899,91.912296,0,0.000125885009765625,
900,92.01441478,-9,-0.984365463256836,
901,92.11698942,0,0.000123977661132813,
902,92.21911468,9,0.984560012817383,
903,92.32168854,0,0.00012969970703125,
904,92.4238037,-9,-0.984350204467773,
905,92.52639492,0,0.0001220703125,
906,92.62850298,9,0.984542846679688,
907,92.73107824,0,0.0001220703125,
908,92.83319678,-9,-0.984312057495117,
909,92.93576998,0,0.000125885009765625,
910,93.03789916,9,0.984506607055664,
911,93.14048074,0,0.000127792358398438,
912,93.24259406,-9,-0.984291076660156,
913,93.3451809,0,0.000125885009765625,
914,93.44728702,9,0.984485626220703,
915,93.54985896,0,0.000127792358398438,
916,93.65199454,-9,-0.98420524597168,
917,93.75456602,0,0.0001220703125,
918,93.85668464,9,0.984445571899414,
919,93.9592811,0,0.0001220703125,
920,94.06138392,-9,-0.9842529296875,
921,94.16399018,0,0.000120162963867188,
922,94.26612006,9,0.984357833862305,
923,94.36869564,0,0.000127792358398438,
924,94.47083574,-9,-0.984176635742188,
925,94.57341064,0,0.000123977661132813,
926,94.67553706,9,0.984382629394531,
927,94.77813104,0,0.000125885009765625,
928,94.88023252,-9,-0.984189987182617,
929,94.98281028,0,0.0001220703125,
930,95.08494084,9,0.984355926513672,
931,95.18751336,0,0.000123977661132813,
932,95.28964058,-9,-0.984039306640625,
933,95.39223138,0,0.000123977661132813,
934,95.49433308,9,0.984340667724609,
935,95.59692664,0,0.0001220703125,
936,95.69905144,-9,-0.984073638916016,
937,95.80161958,0,0.000120162963867188,
938,95.90375166,9,0.984220504760742,
939,96.00633664,0,0.000123977661132813,
940,96.10843916,-9,-0.984104156494141,
941,96.21102132,0,0.000125885009765625,
942,96.31313296,9,0.984294891357422,
943,96.41571212,0,0.000123977661132813,
944,96.51783988,-9,-0.984054565429688,
945,96.62040398,0,0.0001220703125,
946,96.72250932,9,0.984256744384766,
947,96.82510978,0,0.000123977661132813,
948,96.92722864,-9,-0.984016418457031,
949,97.02981972,0,0.000118255615234375,
950,97.1319256,9,0.9842529296875,
951,97.2345052,0,0.000123977661132813,
952,97.33662758,-9,-0.984003067016602,
953,97.43921528,0,0.0001220703125,
954,97.54131968,9,0.984233856201172,
955,97.64390718,0,0.0001220703125,
956,97.7460349,-9,-0.983999252319336,
957,97.84862032,0,0.000120162963867188,
958,97.95074014,9,0.984182357788086,
959,98.05331464,0,0.0001220703125,
960,98.15543444,-9,-0.983957290649414,
961,98.25800954,0,0.0001220703125,
962,98.36014634,9,0.984115600585938,
963,98.46273362,0,0.000120162963867188,
964,98.56484252,-9,-0.983959197998047,
965,98.66744062,0,0.000118255615234375,
966,98.76955942,9,0.984123229980469,
967,98.87213574,0,0.000120162963867188,
968,98.97427336,-9,-0.983852386474609,
969,99.07686128,0,0.000118255615234375,
970,99.17897214,9,0.984119415283203,
971,99.2815735,0,0.000118255615234375,
972,99.38370118,-9,-0.983913421630859,
973,99.48629636,0,0.000120162963867188,
974,99.58840686,9,0.984079360961914,
975,99.69098232,0,0.0001220703125,
976,99.79311558,-9,-0.983806610107422,
977,99.89570906,0,0.000120162963867188,
978,99.99781388,9,0.984066009521484,
979,100.10039924,0,0.0001220703125,
980,100.20251712,-9,-0.983844757080078,
981,100.30508868,0,0.000120162963867188,
982,100.40722484,9,0.983949661254883,
983,100.50980064,0,0.000120162963867188,
984,100.61190402,-9,-0.983833312988281,
985,100.71449172,0,0.0001220703125,
986,100.81660392,9,0.98399543762207,
987,100.91917818,0,0.0001220703125,
988,101.0213027,-9,-0.983781814575195,
989,101.12387318,0,0.000118255615234375,
990,101.22600538,9,0.983945846557617,
991,101.32859638,0,0.000120162963867188,
992,101.43071282,-9,-0.983785629272461,
993,101.5333068,0,0.000116348266601563,
994,101.63540858,9,0.983959197998047,
995,101.7379822,0,0.000118255615234375,
996,101.8401029,-9,-0.983739852905273,
997,101.9426876,0,0.000118255615234375,
998,102.04478578,9,0.983963012695313,
999,102.1473844,0,0.000125885009765625,
1000,102.24949564,-9,-0.983724594116211,
1001,102.35209354,0,0.000116348266601563,
1002,102.45421886,9,0.983894348144531,
1003,102.55680222,0,0.000118255615234375,
1004,102.65892164,-9,-0.98369026184082,
1005,102.76149562,0,0.000123977661132813,
1006,102.86360956,9,0.98388671875,
1007,102.96620272,0,0.000118255615234375,
1008,103.06831618,-9,-0.983657836914063,
1009,103.17089786,0,0.000118255615234375,
1010,103.2730212,9,0.983848571777344,
1011,103.37560666,0,0.000116348266601563,
1012,103.47773526,-9,-0.983673095703125,
1013,103.58032674,0,0.000116348266601563,
1014,103.68243774,9,0.983804702758789,
1015,103.7850299,0,0.000118255615234375,
1016,103.88714182,-9,-0.983633041381836,
1017,103.9897294,0,0.000116348266601563,
1018,104.09185138,9,0.983798980712891,
1019,104.19442352,0,0.000118255615234375,
1020,104.29653498,-9,-0.983600616455078,
1021,104.39913266,0,0.000116348266601563,
1022,104.5012392,9,0.983798980712891,
1023,104.60384956,0,0.000116348266601563,
1024,104.70596938,-9,-0.983570098876953,
1025,104.80854526,0,0.000116348266601563,
1026,104.910657,9,0.983757019042969,
1027,105.01323442,0,0.00011444091796875,
1028,105.1153637,-9,-0.98350715637207,
1029,105.2179549,0,0.000118255615234375,
1030,105.3200475,9,0.983757019042969,
1031,105.42263154,0,0.000120162963867188,
1032,105.52476126,-9,-0.983549118041992,
1033,105.6273322,0,0.000118255615234375,
1034,105.72945084,9,0.98369026184082,
1035,105.83203804,0,0.000118255615234375,
1036,105.93414282,-9,-0.983543395996094,
1037,106.03674996,0,0.000112533569335938,
1038,106.13886204,9,0.983711242675781,
1039,106.2414457,0,0.000112533569335938,
1040,106.34356764,-9,-0.983444213867188,
1041,106.446162,0,0.00011444091796875,
1042,106.54826938,9,0.983711242675781,
1043,106.65087042,0,0.000116348266601563,
1044,106.75299414,-9,-0.983493804931641,
1045,106.85559916,0,0.00011444091796875,
1046,106.95770422,9,0.983665466308594,
1047,107.06028638,0,0.000118255615234375,
1048,107.16240448,-9,-0.983470916748047,
1049,107.2649832,0,0.000110626220703125,
1050,107.36709074,9,0.983634948730469,
1051,107.46968578,0,0.000110626220703125,
1052,107.5718024,-9,-0.983467102050781,
1053,107.67438474,0,0.000110626220703125,
1054,107.7765261,9,0.983549118041992,
1055,107.87911328,0,0.000108718872070313,
1056,107.98124308,-9,-0.983407974243164,
1057,108.08383874,0,0.000108718872070313,
1058,108.18595454,9,0.983585357666016,
1059,108.28855434,0,0.00011444091796875,
1060,108.39066608,-9,-0.983388900756836,
1061,108.49325518,0,0.000108718872070313,
1062,108.59538312,9,0.983560562133789,
1063,108.69797694,0,0.000112533569335938,
1064,108.80008944,-9,-0.983396530151367,
1065,108.90269622,0,0.000112533569335938,
1066,109.00480158,9,0.983564376831055,
1067,109.10741038,0,0.000112533569335938,
1068,109.20954,-9,-0.983369827270508,
1069,109.3121245,0,0.000110626220703125,
1070,109.41425428,9,0.983524322509766,
1071,109.51683574,0,0.00011444091796875,
1072,109.6189518,-9,-0.983377456665039,
1073,109.72154494,0,0.000110626220703125,
1074,109.82364864,9,0.983531951904297,
1075,109.9262379,0,0.000110626220703125,
1076,110.02835602,-9,-0.983333587646484,
1077,110.13091888,0,0.0001068115234375,
1078,110.23303998,9,0.983474731445313,
1079,110.33564582,0,0.000110626220703125,
1080,110.43775916,-9,-0.983308792114258,
1081,110.54035584,0,0.000108718872070313,
1082,110.64246524,9,0.983478546142578,
1083,110.74505262,0,0.000112533569335938,
1084,110.84718352,-9,-0.983259201049805,
1085,110.94977398,0,0.000108718872070313,
1086,111.05186182,9,0.983486175537109,
1087,111.15445582,0,0.000112533569335938,
1088,111.25657808,-9,-0.983274459838867,
1089,111.35916908,0,0.000110626220703125,
1090,111.46129262,9,0.983438491821289,
1091,111.56387718,0,0.000110626220703125,
1092,111.66599752,-9,-0.983213424682617,
1093,111.76858274,0,0.0001068115234375,
1094,111.87070366,9,0.983379364013672,
1095,111.97329682,0,0.000112533569335938,
1096,112.07539742,-9,-0.983236312866211,
1097,112.17799442,0,0.000108718872070313,
1098,112.28011018,9,0.983386993408203,
1099,112.3827041,0,0.00011444091796875,
1100,112.48482184,-9,-0.983144760131836,
1101,112.58741622,0,0.000110626220703125,
1102,112.68954056,9,0.983373641967773,
1103,112.79214578,0,0.000110626220703125,
1104,112.8942447,-9,-0.983217239379883,
1105,112.9968428,0,0.0001068115234375,
1106,113.09897938,9,0.983341217041016,
1107,113.20156142,0,0.0001068115234375,
1108,113.3037198,-9,-0.983064651489258,
1109,113.40632986,0,0.000101089477539063,
1110,113.50843852,9,0.983356475830078,
1111,113.61104264,0,0.0001068115234375,
1112,113.71314466,-9,-0.983144760131836,
1113,113.81574016,0,0.000104904174804688,
1114,113.91786954,9,0.983243942260742,
1115,114.02045522,0,0.000104904174804688,
1116,114.12256958,-9,-0.983156204223633,
1117,114.22517518,0,0.0001068115234375,
1118,114.32729476,9,0.983282089233398,
1119,114.42988938,0,0.000108718872070313,
1120,114.5320044,-9,-0.983118057250977,
1121,114.63457994,0,0.0001068115234375,
1122,114.73671818,9,0.983261108398438,
1123,114.83930962,0,0.000104904174804688,
1124,114.94142272,-9,-0.98310661315918,
1125,115.04402232,0,0.000102996826171875,
1126,115.146142,9,0.983257293701172,
1127,115.24871932,0,0.000108718872070313,
1128,115.35084042,-9,-0.983070373535156,
1129,115.4534269,0,0.000102996826171875,
1130,115.55560574,9,0.982904434204102,
1131,115.6582124,0,0.000110626220703125,
1132,115.76032552,-9,-0.983064651489258,
1133,115.86293472,0,0.000108718872070313,
1134,115.96504678,9,0.983234405517578,
1135,116.06763614,0,0.000110626220703125,
1136,116.1697673,-9,-0.983041763305664,
1137,116.27235096,0,0.000108718872070313,
1138,116.374459,9,0.983217239379883,
1139,116.47705866,0,0.000108718872070313,
1140,116.57916532,-9,-0.983037948608398,
1141,116.68175296,0,0.0001068115234375,
1142,116.78387822,9,0.983144760131836,
1143,116.88646262,0,0.000108718872070313,
1144,116.98857238,-9,-0.982995986938477,
1145,117.09117444,0,0.0001068115234375,
1146,117.19328106,9,0.983179092407227,
1147,117.29588876,0,0.0001068115234375,
1148,117.39799854,-9,-0.98297119140625,
1149,117.50058806,0,0.000102996826171875,
1150,117.6027253,9,0.98314094543457,
1151,117.70531864,0,0.000108718872070313,
1152,117.80746652,-9,-0.982944488525391,
1153,117.91006548,0,0.0001068115234375,
1154,118.01217192,9,0.983154296875,
1155,118.11476492,0,0.000110626220703125,
1156,118.21687768,-9,-0.982946395874023,
1157,118.31946828,0,0.000104904174804688,
1158,118.42159714,9,0.983110427856445,
1159,118.52418296,0,0.000104904174804688,
1160,118.62630272,-9,-0.982931137084961,
1161,118.72890446,0,0.0001068115234375,
1162,118.83101146,9,0.983068466186523,
1163,118.93360352,0,0.000108718872070313,
1164,119.03573168,-9,-0.982931137084961,
1165,119.13832206,0,0.000104904174804688,
1166,119.24044648,9,0.983095169067383,
1167,119.34304874,0,0.000102996826171875,
1168,119.4451563,-9,-0.982925415039063,
1169,119.54775754,0,0.000104904174804688,
1170,119.64987542,9,0.983089447021484,
1171,119.7524569,0,0.000110626220703125,
1172,119.85457742,-9,-0.982891082763672,
1173,119.95716946,0,0.000104904174804688,
1174,120.05928478,9,0.983041763305664,
1175,120.16188204,0,0.000102996826171875,
1176,120.26399746,-9,-0.982831954956055,
1177,120.36658534,0,0.000101089477539063,
1178,120.46869106,9,0.9830322265625,
1179,120.57128902,0,0.000102996826171875,
1180,120.67340284,-9,-0.982851028442383,
1181,120.77600394,0,0.000101089477539063,
1182,120.87811772,9,0.982978820800781,
1183,120.98070172,0,9.918212890625E-05,
1184,121.08282438,-9,-0.982870101928711,
1185,121.18540824,0,9.918212890625E-05,
1186,121.28752632,9,0.98298454284668,
1187,121.3901299,0,0.000101089477539063,
1188,121.49225234,-9,-0.982830047607422,
1189,121.59483354,0,0.000101089477539063,
1190,121.69694388,9,0.98298454284668,
1191,121.79954618,0,0.000101089477539063,
1192,121.90164474,-9,-0.982856750488281,
1193,122.00423364,0,0.000102996826171875,
1194,122.10635014,9,0.982952117919922,
1195,122.20893368,0,0.000104904174804688,
1196,122.31106594,-9,-0.982748031616211,
1197,122.41365484,0,0.000104904174804688,
1198,122.51575308,9,0.982986450195313,
1199,122.61836856,0,0.000102996826171875,
1200,122.72048572,-9,-0.982780456542969,
1201,122.82306326,0,0.000101089477539063,
1202,122.92519084,9,0.982887268066406,
1203,123.0277811,0,0.000102996826171875,
1204,123.12988696,-9,-0.982789993286133,
1205,123.23247792,0,9.918212890625E-05,
1206,123.33458798,9,0.982933044433594,
1207,123.43720606,0,0.000102996826171875,
1208,123.53931714,-9,-0.982761383056641,
1209,123.6418972,0,0.000102996826171875,
1210,123.74402608,9,0.982906341552734,
1211,123.8466185,0,0.000104904174804688,
1212,123.948731,-9,-0.982755661010742,
1213,124.05133376,0,0.000102996826171875,
1214,124.15343628,9,0.982921600341797,
1215,124.2560329,0,0.000101089477539063,
1216,124.35817732,-9,-0.982690811157227,
1217,124.46076872,0,0.000102996826171875,
1218,124.56289726,9,0.982870101928711,
1219,124.66549454,0,0.000104904174804688,
1220,124.7676149,-9,-0.982696533203125,
1221,124.87021534,0,0.000102996826171875,
1222,124.97232828,9,0.982881546020508,
1223,125.07491464,0,0.0001068115234375,
1224,125.17703604,-9,-0.98265266418457,
1225,125.27961298,0,9.72747802734375E-05,
1226,125.38172554,9,0.982852935791016,
1227,125.4843135,0,9.918212890625E-05,
1228,125.58642906,-9,-0.982654571533203,
1229,125.68900548,0,9.918212890625E-05,
1230,125.7911333,9,0.982841491699219,
1231,125.8937041,0,0.000101089477539063,
1232,125.99582222,-9,-0.982648849487305,
1233,126.09840438,0,0.000101089477539063,
1234,126.20050198,9,0.982833862304688,
1235,126.30310014,0,0.000102996826171875,
1236,126.40521404,-9,-0.982614517211914,
1237,126.50779286,0,9.72747802734375E-05,
1238,126.60991878,9,0.982786178588867,
1239,126.71249798,0,9.5367431640625E-05,
1240,126.81461638,-9,-0.982660293579102,
1241,126.9172018,0,9.918212890625E-05,
1242,127.01932498,9,0.982759475708008,
1243,127.1219243,0,0.000102996826171875,
1244,127.22404842,-9,-0.982635498046875,
1245,127.32663128,0,9.918212890625E-05,
1246,127.42875476,9,0.982770919799805,
1247,127.53135112,0,0.000101089477539063,
1248,127.63346592,-9,-0.982639312744141,
1249,127.7360438,0,9.72747802734375E-05,
1250,127.83815298,9,0.982767105102539,
1251,127.94072146,0,0.000101089477539063,
1252,128.042843,-9,-0.982589721679688,
1253,128.14541938,0,9.5367431640625E-05,
1254,128.24755234,9,0.982719421386719,
1255,128.3501389,0,9.5367431640625E-05,
1256,128.45226532,-9,-0.982606887817383,
1257,128.5548492,0,9.72747802734375E-05,
1258,128.65696078,9,0.982736587524414,
1259,128.75954734,0,0.000104904174804688,
1260,128.86167504,-9,-0.982572555541992,
1261,128.96424428,0,9.72747802734375E-05,
1262,129.06635034,9,0.98267936706543,
1263,129.16893406,0,9.72747802734375E-05,
1264,129.27103202,-9,-0.982583999633789,
1265,129.3736272,0,9.72747802734375E-05,
1266,129.47573258,9,0.982717514038086,
1267,129.57831084,0,9.5367431640625E-05,
1268,129.68044036,-9,-0.982484817504883,
1269,129.78300784,0,9.918212890625E-05,
1270,129.88511546,9,0.98267936706543,
1271,129.9877001,0,9.72747802734375E-05,
1272,130.08980898,-9,-0.982538223266602,
1273,130.19239222,0,9.5367431640625E-05,
1274,130.29451676,9,0.982664108276367,
1275,130.3970957,0,9.72747802734375E-05,
1276,130.499217,-9,-0.982503890991211,
1277,130.6018062,0,9.5367431640625E-05,
1278,130.70391986,9,0.982671737670898,
1279,130.80651246,0,9.72747802734375E-05,
1280,130.90863498,-9,-0.982507705688477,
1281,131.01121248,0,9.5367431640625E-05,
1282,131.1133466,9,0.982637405395508,
1283,131.215919,0,9.72747802734375E-05,
1284,131.31804154,-9,-0.98248291015625,
1285,131.4206258,0,9.72747802734375E-05,
1286,131.52273528,9,0.982645034790039,
1287,131.62530496,0,9.918212890625E-05,
1288,131.72742776,-9,-0.982402801513672,
1289,131.83000344,0,8.96453857421875E-05,
1290,131.93211386,9,0.982643127441406,
1291,132.03471254,0,9.5367431640625E-05,
1292,132.13682504,-9,-0.982481002807617,
1293,132.23940174,0,9.72747802734375E-05,
1294,132.34152554,9,0.982564926147461,
1295,132.44409876,0,9.34600830078125E-05,
1296,132.54621622,-9,-0.982444763183594,
1297,132.64877052,0,9.5367431640625E-05,
1298,132.75088014,9,0.982610702514648,
1299,132.853472,0,9.72747802734375E-05,
1300,132.95558036,-9,-0.98240852355957,
1301,133.05815224,0,9.5367431640625E-05,
1302,133.1602635,9,0.982566833496094,
1303,133.26284124,0,9.5367431640625E-05,
1304,133.36498098,-9,-0.982309341430664,
1305,133.46757526,0,9.5367431640625E-05,
1306,133.56966404,9,0.982601165771484,
1307,133.67224862,0,9.72747802734375E-05,
1308,133.77435412,-9,-0.982437133789063,
1309,133.87693134,0,9.5367431640625E-05,
1310,133.97904974,9,0.982563018798828,
1311,134.0816314,0,9.5367431640625E-05,
1312,134.1837331,-9,-0.982444763183594,
1313,134.28631218,0,0.000101089477539063,
1314,134.38844084,9,0.982553482055664,
1315,134.49100752,0,9.918212890625E-05,
1316,134.59313256,-9,-0.982389450073242,
1317,134.69570126,0,9.5367431640625E-05,
1318,134.7978561,9,0.98249626159668,
1319,134.90044172,0,9.72747802734375E-05,
1320,135.00255502,-9,-0.982349395751953,
1321,135.10513298,0,9.34600830078125E-05,
1322,135.2072513,9,0.982500076293945,
1323,135.30983842,0,9.5367431640625E-05,
1324,135.41196656,-9,-0.982366561889648,
1325,135.5145494,0,9.5367431640625E-05,
1326,135.61666704,9,0.982486724853516,
1327,135.71925118,0,9.5367431640625E-05,
1328,135.82136204,-9,-0.982385635375977,
1329,135.9239363,0,9.5367431640625E-05,
1330,136.02606624,9,0.982511520385742,
1331,136.12865294,0,9.72747802734375E-05,
1332,136.2308008,-9,-0.982305526733398,
1333,136.3333842,0,9.1552734375E-05,
1334,136.43550346,9,0.982524871826172,
1335,136.53809004,0,9.72747802734375E-05,
1336,136.64020674,-9,-0.982370376586914,
1337,136.7427804,0,9.1552734375E-05,
1338,136.84490162,9,0.982494354248047,
1339,136.9474783,0,9.5367431640625E-05,
1340,137.04959318,-9,-0.982351303100586,
1341,137.15217998,0,9.1552734375E-05,
1342,137.25427628,9,0.98248291015625,
1343,137.35686996,0,9.1552734375E-05,
1344,137.45899022,-9,-0.982328414916992,
1345,137.56156372,0,9.34600830078125E-05,
1346,137.66367524,9,0.982450485229492,
1347,137.76624682,0,9.5367431640625E-05,
1348,137.86834768,-9,-0.98231315612793,
1349,137.97094006,0,9.34600830078125E-05,
1350,138.0730448,9,0.982492446899414,
1351,138.17561296,0,9.72747802734375E-05,
1352,138.27772464,-9,-0.982292175292969,
1353,138.38030066,0,9.1552734375E-05,
1354,138.48241836,9,0.982383728027344,
1355,138.58500824,0,9.5367431640625E-05,
1356,138.68711988,-9,-0.982303619384766,
1357,138.78971588,0,9.1552734375E-05,
1358,138.89183502,9,0.982433319091797,
1359,138.99440678,0,9.34600830078125E-05,
1360,139.09654406,-9,-0.982200622558594,
1361,139.19913,0,9.34600830078125E-05,
1362,139.30122412,9,0.982450485229492,
1363,139.40381872,0,9.72747802734375E-05,
1364,139.50593852,-9,-0.982265472412109,
1365,139.60851142,0,8.96453857421875E-05,
1366,139.71064592,9,0.98240852355957,
1367,139.81322534,0,9.34600830078125E-05,
1368,139.9153231,-9,-0.982290267944336,
1369,140.0179053,0,9.1552734375E-05,
1370,140.1200269,9,0.982402801513672,
1371,140.22260452,0,9.34600830078125E-05,
1372,140.32472736,-9,-0.982265472412109,
1373,140.42732366,0,8.96453857421875E-05,
1374,140.52942738,9,0.982418060302734,
1375,140.63202814,0,9.5367431640625E-05,
1376,140.73414396,-9,-0.982275009155273,
1377,140.83672148,0,8.7738037109375E-05,
1378,140.9388458,9,0.98237419128418,
1379,141.04141822,0,9.5367431640625E-05,
1380,141.1435332,-9,-0.982246398925781,
1381,141.24611728,0,8.96453857421875E-05,
1382,141.34822614,9,0.98237419128418,
1383,141.45083086,0,8.7738037109375E-05,
1384,141.55295796,-9,-0.982248306274414,
1385,141.65552834,0,8.7738037109375E-05,
1386,141.75765306,9,0.98234748840332,
1387,141.8602378,0,8.96453857421875E-05,
1388,141.96234754,-9,-0.982244491577148,
1389,142.06494342,0,8.96453857421875E-05,
1390,142.16706586,9,0.982364654541016,
1391,142.26963678,0,9.1552734375E-05,
1392,142.37177526,-9,-0.982217788696289,
1393,142.47434686,0,9.34600830078125E-05,
1394,142.5764548,9,0.982358932495117,
1395,142.67904118,0,9.34600830078125E-05,
1396,142.7811583,-9,-0.982221603393555,
1397,142.88374428,0,9.1552734375E-05,
1398,142.98586398,9,0.982311248779297,
1399,143.08844248,0,8.96453857421875E-05,
1400,143.19055596,-9,-0.982200622558594,
1401,143.29314044,0,8.7738037109375E-05,
1402,143.39524938,9,0.982353210449219,
1403,143.49784222,0,9.1552734375E-05,
1404,143.5999662,-9,-0.982160568237305,
1405,143.70255316,0,9.1552734375E-05,
1406,143.80467456,9,0.982320785522461,
1407,143.90726296,0,9.34600830078125E-05,
1408,144.00938794,-9,-0.982170104980469,
1409,144.1119577,0,9.34600830078125E-05,
1410,144.21407324,9,0.982311248779297,
1411,144.3166632,0,9.1552734375E-05,
1412,144.41878622,-9,-0.982181549072266,
1413,144.52136396,0,8.96453857421875E-05,
1414,144.62349238,9,0.982305526733398,
1415,144.7260655,0,9.5367431640625E-05,
1416,144.82818654,-9,-0.982160568237305,
1417,144.93077924,0,8.7738037109375E-05,
1418,145.0328871,9,0.982332229614258,
1419,145.1354773,0,9.1552734375E-05,
1420,145.23758894,-9,-0.982147216796875,
1421,145.3401579,0,9.1552734375E-05,
1422,145.44228264,9,0.98228645324707,
1423,145.5448566,0,9.34600830078125E-05,
1424,145.64697556,-9,-0.982120513916016,
1425,145.7495552,0,9.1552734375E-05,
1426,145.85165798,9,0.982316970825195,
1427,145.95424116,0,9.1552734375E-05,
1428,146.05635898,-9,-0.982143402099609,
1429,146.158932,0,8.96453857421875E-05,
1430,146.26107594,9,0.98219108581543,
1431,146.36365838,0,9.5367431640625E-05,
1432,146.4657597,-9,-0.982143402099609,
1433,146.56835186,0,8.7738037109375E-05,
1434,146.67046052,9,0.982288360595703,
1435,146.77303826,0,8.96453857421875E-05,
1436,146.87516076,-9,-0.982120513916016,
1437,146.97774306,0,8.7738037109375E-05,
1438,147.07984548,9,0.982294082641602,
1439,147.18243728,0,9.1552734375E-05,
1440,147.28454188,-9,-0.982147216796875,
1441,147.3871372,0,8.7738037109375E-05,
1442,147.48925118,9,0.982263565063477,
1443,147.59182994,0,8.7738037109375E-05,
1444,147.69395008,-9,-0.982109069824219,
1445,147.79652386,0,8.7738037109375E-05,
1446,147.89865312,9,0.982248306274414,
1447,148.00124338,0,8.7738037109375E-05,
1448,148.10333836,-9,-0.982135772705078,
1449,148.20591542,0,8.7738037109375E-05,
1450,148.30805686,9,0.982170104980469,
1451,148.41063552,0,8.96453857421875E-05,
1452,148.51276198,-9,-0.982097625732422,
1453,148.6153592,0,8.96453857421875E-05,
1454,148.71746736,9,0.982210159301758,
1455,148.82004978,0,9.34600830078125E-05,
1456,148.92216036,-9,-0.9820556640625,
1457,149.02473736,0,8.7738037109375E-05,
1458,149.1268671,9,0.982143402099609,
1459,149.22945944,0,8.96453857421875E-05,
1460,149.33157594,-9,-0.982101440429688,
1461,149.43417224,0,8.7738037109375E-05,
1462,149.53627882,9,0.982234954833984,
1463,149.6388652,0,9.1552734375E-05,
1464,149.74097446,-9,-0.982082366943359,
1465,149.8435574,0,8.96453857421875E-05,
1466,149.94567516,9,0.982179641723633,
1467,150.04825694,0,9.1552734375E-05,
1468,150.15036008,-9,-0.982088088989258,
1469,150.25294658,0,8.7738037109375E-05,
1470,150.35505026,9,0.982234954833984,
1471,150.45763236,0,8.96453857421875E-05,
1472,150.5597529,-9,-0.982059478759766,
1473,150.66231938,0,8.7738037109375E-05,
1474,150.76444778,9,0.982185363769531,
1475,150.8670408,0,8.96453857421875E-05,
1476,150.96916298,-9,-0.982009887695313,
1477,151.0717536,0,8.392333984375E-05,
1478,151.17386932,9,0.982189178466797,
1479,151.27645134,0,8.96453857421875E-05,
1480,151.37858756,-9,-0.982013702392578,
1481,151.48117342,0,8.96453857421875E-05,
1482,151.58327806,9,0.982151031494141,
1483,151.68586606,0,9.34600830078125E-05,
1484,151.78797492,-9,-0.982027053833008,
1485,151.89056706,0,8.7738037109375E-05,
1486,151.99268296,9,0.982168197631836,
1487,152.0952565,0,9.34600830078125E-05,
1488,152.197376,-9,-0.981996536254883,
1489,152.2999471,0,8.96453857421875E-05,
1490,152.40205624,9,0.982177734375,
1491,152.5046553,0,8.58306884765625E-05,
1492,152.60676742,-9,-0.982034683227539,
1493,152.7093612,0,8.392333984375E-05,
1494,152.81147842,9,0.982149124145508,
1495,152.91405482,0,8.96453857421875E-05,
1496,153.01617416,-9,-0.982021331787109,
1497,153.11876172,0,8.96453857421875E-05,
1498,153.22086538,9,0.982147216796875,
1499,153.32345104,0,9.5367431640625E-05,
1500,153.4255645,-9,-0.982004165649414,
1501,153.52814542,0,8.96453857421875E-05,
1502,153.63027886,9,0.982072830200195,
1503,153.73285878,0,9.1552734375E-05,
1504,153.83498664,-9,-0.981874465942383,
1505,153.93758738,0,8.96453857421875E-05,
1506,154.0397022,9,0.982139587402344,
1507,154.14230436,0,9.1552734375E-05,
1508,154.24442712,-9,-0.98194694519043,
1509,154.34699772,0,9.5367431640625E-05,
1510,154.44913686,9,0.982099533081055,
1511,154.5517134,0,8.96453857421875E-05,
1512,154.65382662,-9,-0.982006072998047,
1513,154.7564284,0,8.7738037109375E-05,
1514,154.85854202,9,0.982128143310547,
1515,154.96112326,0,8.7738037109375E-05,
1516,155.06324996,-9,-0.981996536254883,
1517,155.16581778,0,8.96453857421875E-05,
1518,155.267933,9,0.982097625732422,
1519,155.37052606,0,8.58306884765625E-05,
1520,155.47263348,-9,-0.982006072998047,
1521,155.5752218,0,8.7738037109375E-05,
1522,155.6773516,9,0.982067108154297,
1523,155.77992502,0,8.96453857421875E-05,
1524,155.8820425,-9,-0.981966018676758,
1525,155.9846263,0,8.96453857421875E-05,
1526,156.08673382,9,0.982128143310547,
1527,156.189325,0,9.1552734375E-05,
1528,156.29144838,-9,-0.981924057006836,
1529,156.3940417,0,8.7738037109375E-05,
1530,156.49614652,9,0.982095718383789,
1531,156.59872644,0,9.1552734375E-05,
1532,156.70084736,-9,-0.98194694519043,
1533,156.8034201,0,8.7738037109375E-05,
1534,156.90552922,9,0.982107162475586,
1535,157.00813498,0,8.7738037109375E-05,
1536,157.11024472,-9,-0.981971740722656,
1537,157.21283314,0,8.392333984375E-05,
1538,157.31496168,9,0.982070922851563,
1539,157.41755168,0,8.58306884765625E-05,
1540,157.5196556,-9,-0.981960296630859,
1541,157.6222464,0,8.20159912109375E-05,
1542,157.72436018,9,0.982091903686523,
1543,157.82695364,0,8.58306884765625E-05,
1544,157.92905876,-9,-0.981962203979492,
1545,158.03163964,0,8.20159912109375E-05,
1546,158.1337551,9,0.982057571411133,
1547,158.23632974,0,8.392333984375E-05,
1548,158.33844286,-9,-0.981901168823242,
1549,158.44103784,0,8.392333984375E-05,
1550,158.5431413,9,0.982091903686523,
1551,158.64573888,0,8.392333984375E-05,
1552,158.7478679,-9,-0.981925964355469,
1553,158.850457,0,8.58306884765625E-05,
1554,158.95257376,9,0.982032775878906,
1555,159.05514406,0,8.392333984375E-05,
1556,159.15725726,-9,-0.981948852539063,
1557,159.25985974,0,8.392333984375E-05,
1558,159.36196304,9,0.982078552246094,
1559,159.46454194,0,8.392333984375E-05,
1560,159.56666454,-9,-0.981912612915039,
1561,159.66923772,0,8.392333984375E-05,
1562,159.7713385,9,0.982065200805664,
1563,159.87393636,0,8.7738037109375E-05,
1564,159.97603884,-9,-0.981941223144531,
1565,160.07863504,0,8.7738037109375E-05,
1566,160.1807573,9,0.982051849365234,
1567,160.28332868,0,8.96453857421875E-05,
1568,160.38546668,-9,-0.981922149658203,
1569,160.48804956,0,8.392333984375E-05,
1570,160.5901587,9,0.98206901550293,
1571,160.69275344,0,8.7738037109375E-05,
1572,160.79486648,-9,-0.98192024230957,
1573,160.89743788,0,8.7738037109375E-05,
1574,160.99956718,9,0.981990814208984,
1575,161.10214682,0,8.392333984375E-05,
1576,161.2042528,-9,-0.981901168823242,
1577,161.306855,0,8.0108642578125E-05,
1578,161.40897414,9,0.982023239135742,
1579,161.5115783,0,8.58306884765625E-05,
1580,161.61369714,-9,-0.98188591003418,
1581,161.7162808,0,8.392333984375E-05,
1582,161.81841796,9,0.982011795043945,
1583,161.92100202,0,8.392333984375E-05,
1584,162.0231211,-9,-0.981895446777344,
1585,162.12572058,0,7.82012939453125E-05,
1586,162.22783988,9,0.981986999511719,
1587,162.33043244,0,8.58306884765625E-05,
1588,162.43256206,-9,-0.981878280639648,
1589,162.53514456,0,8.392333984375E-05,
1590,162.63726522,9,0.982013702392578,
1591,162.73985146,0,8.392333984375E-05,
1592,162.84197132,-9,-0.981895446777344,
1593,162.94456142,0,8.392333984375E-05,
1594,163.04667146,9,0.982021331787109,
1595,163.14925516,0,8.7738037109375E-05,
1596,163.2513697,-9,-0.981878280639648,
1597,163.35394882,0,8.0108642578125E-05,
1598,163.4560673,9,0.982011795043945,
1599,163.55866906,0,8.58306884765625E-05,
1600,163.66077928,-9,-0.981843948364258,
1601,163.76336908,0,8.20159912109375E-05,
1602,163.86549354,9,0.981996536254883,
1603,163.96808552,0,8.58306884765625E-05,
1604,164.07021212,-9,-0.981861114501953,
1605,164.17279226,0,8.392333984375E-05,
1606,164.2749034,9,0.982015609741211,
1607,164.37750214,0,8.58306884765625E-05,
1608,164.479616,-9,-0.981882095336914,
1609,164.58219306,0,8.392333984375E-05,
1610,164.68431378,9,0.98199462890625,
1611,164.78689112,0,8.0108642578125E-05,
1612,164.88900946,-9,-0.981845855712891,
1613,164.99159866,0,8.20159912109375E-05,
1614,165.09370834,9,0.981958389282227,
1615,165.19629936,0,8.392333984375E-05,
1616,165.2984113,-9,-0.981857299804688,
1617,165.40100628,0,8.0108642578125E-05,
1618,165.50311768,9,0.981977462768555,
1619,165.6056969,0,8.58306884765625E-05,
1620,165.70782402,-9,-0.981771469116211,
1621,165.8104171,0,8.0108642578125E-05,
1622,165.91254098,9,0.98198127746582,
1623,166.01514048,0,8.392333984375E-05,
1624,166.11726584,-9,-0.981855392456055,
1625,166.21986072,0,8.0108642578125E-05,
1626,166.3220181,9,0.981889724731445,
1627,166.42461232,0,8.58306884765625E-05,
1628,166.52673552,-9,-0.98185920715332,
1629,166.6293273,0,8.58306884765625E-05,
1630,166.73144064,9,0.981988906860352,
1631,166.83401494,0,8.58306884765625E-05,
1632,166.93613044,-9,-0.981845855712891,
1633,167.03871598,0,8.20159912109375E-05,
1634,167.14081854,9,0.981964111328125,
1635,167.24340644,0,8.20159912109375E-05,
1636,167.34552258,-9,-0.981863021850586,
1637,167.4481257,0,8.20159912109375E-05,
1638,167.55023952,9,0.981971740722656,
1639,167.65283022,0,8.58306884765625E-05,
1640,167.75496354,-9,-0.981836318969727,
1641,167.85754794,0,8.20159912109375E-05,
1642,167.9596587,9,0.981958389282227,
1643,168.06226086,0,8.392333984375E-05,
1644,168.16435874,-9,-0.981840133666992,
1645,168.26694956,0,8.20159912109375E-05,
1646,168.3690846,9,0.981893539428711,
1647,168.4716708,0,7.82012939453125E-05,
1648,168.57379904,-9,-0.981834411621094,
1649,168.67639186,0,8.392333984375E-05,
1650,168.77850512,9,0.981929779052734,
1651,168.88110224,0,8.58306884765625E-05,
1652,168.9832231,-9,-0.981826782226563,
1653,169.08579976,0,8.392333984375E-05,
1654,169.18793608,9,0.981891632080078,
1655,169.29050774,0,8.58306884765625E-05,
1656,169.39262582,-9,-0.981836318969727,
1657,169.49522206,0,8.20159912109375E-05,
1658,169.59731456,9,0.981975555419922,
1659,169.69990676,0,8.7738037109375E-05,
1660,169.80202706,-9,-0.981821060180664,
1661,169.90459454,0,8.96453857421875E-05,
1662,170.00672598,9,0.981929779052734,
1663,170.10933568,0,8.20159912109375E-05,
1664,170.21145022,-9,-0.981834411621094,
1665,170.31405146,0,8.0108642578125E-05,
1666,170.41617474,9,0.981950759887695,
1667,170.51875932,0,8.20159912109375E-05,
1668,170.62089146,-9,-0.981826782226563,
1669,170.72347706,0,8.0108642578125E-05,
1670,170.82558186,9,0.981966018676758,
1671,170.92818166,0,8.392333984375E-05,
1672,171.03028138,-9,-0.981840133666992,
1673,171.13287318,0,8.20159912109375E-05,
1674,171.23497522,9,0.981945037841797,
1675,171.33755578,0,8.0108642578125E-05,
1676,171.43967668,-9,-0.981792449951172,
1677,171.5422648,0,8.392333984375E-05,
1678,171.64437248,9,0.981952667236328,
1679,171.7469733,0,8.20159912109375E-05,
1680,171.84908574,-9,-0.981752395629883,
1681,171.9516709,0,8.0108642578125E-05,
1682,172.05379496,9,0.981910705566406,
1683,172.15639014,0,7.62939453125E-05,
1684,172.25849952,-9,-0.981817245483398,
1685,172.36110124,0,8.0108642578125E-05,
1686,172.4632105,9,0.981935501098633,
1687,172.56579724,0,8.0108642578125E-05,
1688,172.66793062,-9,-0.981801986694336,
1689,172.77051434,0,7.62939453125E-05,
1690,172.87264736,9,0.98192024230957,
1691,172.9752293,0,8.0108642578125E-05,
1692,173.07733992,-9,-0.981830596923828,
1693,173.17993962,0,7.62939453125E-05,
1694,173.28204562,9,0.98188591003418,
1695,173.38463548,0,7.62939453125E-05,
1696,173.48676608,-9,-0.981807708740234,
1697,173.589351,0,7.62939453125E-05,
1698,173.69146742,9,0.981929779052734,
1699,173.79406222,0,8.0108642578125E-05,
1700,173.89617504,-9,-0.981788635253906,
1701,173.99877274,0,7.62939453125E-05,
1702,174.10087768,9,0.981939315795898,
1703,174.20346798,0,8.0108642578125E-05,
1704,174.3055891,-9,-0.981794357299805,
1705,174.40818272,0,7.82012939453125E-05,
1706,174.51030846,9,0.981924057006836,
1707,174.61290648,0,7.82012939453125E-05,
1708,174.71502492,-9,-0.98182487487793,
1709,174.81763048,0,7.82012939453125E-05,
1710,174.9197561,9,0.981897354125977,
1711,175.02233322,0,8.0108642578125E-05,
1712,175.1244528,-9,-0.981792449951172,
1713,175.22703592,0,8.20159912109375E-05,
1714,175.32914928,9,0.981906890869141,
1715,175.4317454,0,8.0108642578125E-05,
1716,175.53385768,-9,-0.981800079345703,
1717,175.63643508,0,8.0108642578125E-05,
1718,175.73854474,9,0.98188591003418,
1719,175.84112588,0,7.82012939453125E-05,
1720,175.94326576,-9,-0.981645584106445,
1721,176.04586396,0,7.82012939453125E-05,
1722,176.14796282,9,0.981912612915039,
1723,176.2505645,0,7.82012939453125E-05,
1724,176.3526651,-9,-0.981817245483398,
1725,176.45525454,0,8.0108642578125E-05,
1726,176.55737372,9,0.981906890869141,
1727,176.65996364,0,7.62939453125E-05,
1728,176.7620855,-9,-0.981803894042969,
1729,176.86468214,0,7.82012939453125E-05,
1730,176.96679892,9,0.98192024230957,
1731,177.06939398,0,8.20159912109375E-05,
1732,177.1715182,-9,-0.981803894042969,
1733,177.27410464,0,8.0108642578125E-05,
1734,177.37623094,9,0.981903076171875,
1735,177.47881752,0,8.0108642578125E-05,
1736,177.58091894,-9,-0.981815338134766,
1737,177.68351546,0,7.62939453125E-05,
1738,177.78561758,9,0.981912612915039,
1739,177.88821316,0,7.82012939453125E-05,
1740,177.99032988,-9,-0.98175048828125,
1741,178.09291148,0,7.62939453125E-05,
1742,178.19502978,9,0.981884002685547,
1743,178.2976311,0,7.82012939453125E-05,
1744,178.39974274,-9,-0.981790542602539,
1745,178.50235138,0,7.62939453125E-05,
1746,178.60446012,9,0.981924057006836,
1747,178.7070472,0,7.62939453125E-05,
1748,178.80917752,-9,-0.981760025024414,
1749,178.91175832,0,7.43865966796875E-05,
1750,179.0138648,9,0.981906890869141,
1751,179.11646196,0,7.62939453125E-05,
1752,179.21857308,-9,-0.981769561767578,
1753,179.32118524,0,7.62939453125E-05,
1754,179.42331086,9,0.981868743896484,
1755,179.52589766,0,7.62939453125E-05,
1756,179.62801046,-9,-0.981754302978516,
1757,179.73060566,0,7.62939453125E-05,
1758,179.83272402,9,0.981893539428711,
1759,179.93532784,0,8.20159912109375E-05,
1760,180.03743324,-9,-0.981786727905273,
1761,180.1400122,0,8.20159912109375E-05,
1762,180.24213744,9,0.981891632080078,
1763,180.34472542,0,7.82012939453125E-05,
1764,180.44683386,-9,-0.981786727905273,
1765,180.54944454,0,7.62939453125E-05,
1766,180.6515483,9,0.981901168823242,
1767,180.7541841,0,7.62939453125E-05,
1768,180.8563145,-9,-0.981742858886719,
1769,180.9588999,0,7.62939453125E-05,
1770,181.0610205,9,0.981874465942383,
1771,181.16361518,0,8.0108642578125E-05,
1772,181.26572094,-9,-0.981796264648438,
1773,181.36832432,0,8.20159912109375E-05,
1774,181.47043672,9,0.981851577758789,
1775,181.57302518,0,8.20159912109375E-05,
1776,181.67515836,-9,-0.981775283813477,
1777,181.77776108,0,7.62939453125E-05,
1778,181.87988278,9,0.981891632080078,
1779,181.982487,0,7.62939453125E-05,
1780,182.08460138,-9,-0.98179817199707,
1781,182.18719216,0,7.62939453125E-05,
1782,182.2893146,9,0.981874465942383,
1783,182.39190562,0,7.82012939453125E-05,
1784,182.4940357,-9,-0.981748580932617,
1785,182.5966245,0,7.62939453125E-05,
1786,182.69873418,9,0.981853485107422,
1787,182.8013338,0,7.62939453125E-05,
1788,182.90345536,-9,-0.981779098510742,
1789,183.0060392,0,7.62939453125E-05,
1790,183.10815566,9,0.981855392456055,
1791,183.21073816,0,8.0108642578125E-05,
1792,183.31284832,-9,-0.981752395629883,
1793,183.41545,0,7.82012939453125E-05,
1794,183.51755432,9,0.981884002685547,
1795,183.62015938,0,7.62939453125E-05,
1796,183.72226342,-9,-0.981790542602539,
1797,183.82485424,0,7.62939453125E-05,
1798,183.92696926,9,0.98185920715332,
1799,184.02957128,0,7.62939453125E-05,
1800,184.13167692,-9,-0.981803894042969,
1801,184.23427394,0,7.62939453125E-05,
1802,184.33639944,9,0.981891632080078,
1803,184.43900226,0,7.82012939453125E-05,
1804,184.54111446,-9,-0.981788635253906,
1805,184.64369938,0,7.62939453125E-05,
1806,184.74581908,9,0.98187255859375,
1807,184.84841596,0,7.62939453125E-05,
1808,184.95052472,-9,-0.981794357299805,
1809,185.0531307,0,7.62939453125E-05,
1810,185.15524278,9,0.981882095336914,
1811,185.2578218,0,7.82012939453125E-05,
1812,185.35994174,-9,-0.981758117675781,
1813,185.4625468,0,7.62939453125E-05,
1814,185.56465238,9,0.981908798217773,
1815,185.66725082,0,7.82012939453125E-05,
1816,185.7693627,-9,-0.981767654418945,
1817,185.8719505,0,8.0108642578125E-05,
1818,185.97407572,9,0.981868743896484,
1819,186.07664946,0,8.0108642578125E-05,
1820,186.17876196,-9,-0.981771469116211,
1821,186.2813544,0,7.82012939453125E-05,
1822,186.38346538,9,0.981882095336914,
1823,186.48605822,0,7.82012939453125E-05,
1824,186.58818576,-9,-0.981693267822266,
1825,186.69076152,0,8.0108642578125E-05,
1826,186.79287762,9,0.981874465942383,
1827,186.8954627,0,8.20159912109375E-05,
1828,186.99757478,-9,-0.981731414794922,
1829,187.10017536,0,7.62939453125E-05,
1830,187.20228596,9,0.981876373291016,
1831,187.30487306,0,7.62939453125E-05,
1832,187.40699412,-9,-0.981760025024414,
1833,187.50959344,0,7.82012939453125E-05,
1834,187.61170958,9,0.981836318969727,
1835,187.71430622,0,7.82012939453125E-05,
1836,187.8164133,-9,-0.981790542602539,
1837,187.91906288,0,7.2479248046875E-05,
1838,188.02116716,9,0.981887817382813,
1839,188.12375688,0,7.62939453125E-05,
1840,188.2258696,-9,-0.981786727905273,
1841,188.3284542,0,7.62939453125E-05,
1842,188.43059008,9,0.981887817382813,
1843,188.53319102,0,7.62939453125E-05,
1844,188.6353022,-9,-0.981805801391602,
1845,188.73789252,0,7.82012939453125E-05,
1846,188.84002324,9,0.981861114501953,
1847,188.94260718,0,7.62939453125E-05,
1848,189.04474512,-9,-0.98175048828125,
1849,189.14734164,0,7.62939453125E-05,
1850,189.24946224,9,0.981876373291016,
1851,189.35206802,0,7.82012939453125E-05,
1852,189.4541839,-9,-0.981779098510742,
1853,189.55678164,0,7.62939453125E-05,
1854,189.6589068,9,0.981842041015625,
1855,189.7614939,0,7.62939453125E-05,
1856,189.86360184,-9,-0.981782913208008,
1857,189.9662007,0,7.62939453125E-05,
1858,190.06831228,9,0.981870651245117,
1859,190.17091516,0,7.62939453125E-05,
1860,190.27303752,-9,-0.981775283813477,
1861,190.3756257,0,7.62939453125E-05,
1862,190.47773868,9,0.981853485107422,
1863,190.58034046,0,7.62939453125E-05,
1864,190.68243898,-9,-0.981781005859375,
1865,190.78503706,0,7.43865966796875E-05,
1866,190.8871535,9,0.98187255859375,
1867,190.98974638,0,7.62939453125E-05,
1868,191.09187124,-9,-0.981769561767578,
1869,191.1944495,0,7.43865966796875E-05,
1870,191.29655182,9,0.981884002685547,
1871,191.39916874,0,7.62939453125E-05,
1872,191.50126438,-9,-0.981782913208008,
1873,191.6038548,0,7.62939453125E-05,
1874,191.70597746,9,0.981863021850586,
1875,191.80855614,0,7.82012939453125E-05,
1876,191.91068612,-9,-0.981760025024414,
1877,192.01328174,0,7.62939453125E-05,
1878,192.11538834,9,0.981891632080078,
1879,192.21798696,0,7.62939453125E-05,
1880,192.32011154,-9,-0.981739044189453,
1881,192.42269368,0,7.82012939453125E-05,
1882,192.52479936,9,0.981880187988281,
1883,192.62739754,0,7.82012939453125E-05,
1884,192.72950952,-9,-0.981733322143555,
1885,192.83211886,0,7.62939453125E-05,
1886,192.93424806,9,0.981838226318359,
1887,193.03683702,0,7.82012939453125E-05,
1888,193.1389501,-9,-0.981721878051758,
1889,193.241532,0,7.82012939453125E-05,
1890,193.3436411,9,0.981870651245117,
1891,193.44625084,0,7.82012939453125E-05,
1892,193.54835928,-9,-0.981765747070313,
1893,193.65094578,0,7.62939453125E-05,
1894,193.75307474,9,0.981863021850586,
1895,193.85565242,0,7.62939453125E-05,
1896,193.95779288,-9,-0.98175048828125,
1897,194.0603933,0,7.62939453125E-05,
1898,194.1624918,9,0.981876373291016,
1899,194.26508888,0,7.62939453125E-05,
1900,194.36720582,-9,-0.98176383972168,
1901,194.46979494,0,7.82012939453125E-05,
1902,194.57193022,9,0.981801986694336,
1903,194.67451736,0,7.62939453125E-05,
1904,194.7766339,-9,-0.981781005859375,
1905,194.87923928,0,7.82012939453125E-05,
1906,194.98135186,9,0.981882095336914,
1907,195.08393232,0,8.0108642578125E-05,
1908,195.18604704,-9,-0.981760025024414,
1909,195.28863706,0,7.82012939453125E-05,
1910,195.39075826,9,0.981857299804688,
1911,195.4933509,0,7.62939453125E-05,
1912,195.59547098,-9,-0.981775283813477,
1913,195.69806228,0,8.0108642578125E-05,
1914,195.80018278,9,0.981863021850586,
1915,195.9027679,0,8.0108642578125E-05,
1916,196.00489876,-9,-0.981706619262695,
1917,196.10748576,0,7.62939453125E-05,
1918,196.20959084,9,0.981853485107422,
1919,196.31219878,0,7.43865966796875E-05,
1920,196.41430424,-9,-0.981786727905273,
1921,196.51688896,0,7.62939453125E-05,
1922,196.61902756,9,0.981788635253906,
1923,196.72162116,0,7.82012939453125E-05,
1924,196.82375044,-9,-0.981777191162109,
1925,196.92635042,0,7.82012939453125E-05,
1926,197.02845932,9,0.98187255859375,
1927,197.13105774,0,8.0108642578125E-05,
1928,197.23317382,-9,-0.981761932373047,
1929,197.3357545,0,7.43865966796875E-05,
1930,197.43788326,9,0.981866836547852,
1931,197.540483,0,7.82012939453125E-05,
1932,197.64259372,-9,-0.981765747070313,
1933,197.74518546,0,7.62939453125E-05,
1934,197.8473142,9,0.981864929199219,
1935,197.9498986,0,7.62939453125E-05,
1936,198.0520173,-9,-0.981760025024414,
1937,198.15460232,0,7.43865966796875E-05,
1938,198.2567088,9,0.981880187988281,
1939,198.35930862,0,7.62939453125E-05,
1940,198.46142228,-9,-0.981773376464844,
1941,198.56401432,0,7.82012939453125E-05,
1942,198.6661453,9,0.981863021850586,
1943,198.76873502,0,7.62939453125E-05,
1944,198.87085862,-9,-0.98176383972168,
1945,198.9734587,0,7.82012939453125E-05,
1946,199.0755733,9,0.981893539428711,
1947,199.17816348,0,8.0108642578125E-05,
1948,199.28027602,-9,-0.981756210327148,
1949,199.38286646,0,7.62939453125E-05,
1950,199.48500328,9,0.981864929199219,
1951,199.58757944,0,7.82012939453125E-05,
1952,199.68967892,-9,-0.981781005859375,
1953,199.7922791,0,7.43865966796875E-05,
1954,199.89438858,9,0.981895446777344,
1955,199.99697642,0,7.62939453125E-05,
1956,200.09909442,-9,-0.981758117675781,
1957,200.20167258,0,7.62939453125E-05,
1958,200.30381818,9,0.981744766235352,
1959,200.40642402,0,7.2479248046875E-05,
1960,200.50854692,-9,-0.981773376464844,
1961,200.61115986,0,7.62939453125E-05,
1962,200.71326602,9,0.981878280639648,
1963,200.81584878,0,7.62939453125E-05,
1964,200.91797684,-9,-0.981760025024414,
1965,201.02054974,0,7.05718994140625E-05,
1966,201.1226485,9,0.981874465942383,
1967,201.2252467,0,7.62939453125E-05,
1968,201.3273505,-9,-0.981782913208008,
1969,201.42997364,0,7.43865966796875E-05,
1970,201.53209908,9,0.981819152832031,
1971,201.63468472,0,7.62939453125E-05,
1972,201.73680522,-9,-0.981779098510742,
1973,201.83941574,0,7.62939453125E-05,
1974,201.9415224,9,0.981874465942383,
1975,202.0441313,0,7.62939453125E-05,
1976,202.1462546,-9,-0.98175048828125,
1977,202.24884256,0,7.43865966796875E-05,
1978,202.35097004,9,0.981876373291016,
1979,202.45356722,0,7.62939453125E-05,
1980,202.55567218,-9,-0.981794357299805,
1981,202.65828286,0,7.2479248046875E-05,
1982,202.7603921,9,0.981882095336914,
1983,202.8629664,0,7.2479248046875E-05,
1984,202.96508414,-9,-0.981782913208008,
1985,203.06766982,0,7.43865966796875E-05,
1986,203.16978666,9,0.981851577758789,
1987,203.27237576,0,7.43865966796875E-05,
1988,203.37449216,-9,-0.981800079345703,
1989,203.47707058,0,7.05718994140625E-05,
1990,203.57919156,9,0.981817245483398,
1991,203.68177742,0,7.62939453125E-05,
1992,203.78389092,-9,-0.981788635253906,
1993,203.88647192,0,6.866455078125E-05,
1994,203.98857604,9,0.981882095336914,
1995,204.09116012,0,7.2479248046875E-05,
1996,204.19327034,-9,-0.981754302978516,
1997,204.29585228,0,7.05718994140625E-05,
1998,204.39797538,9,0.981874465942383,
1999,204.50056794,0,7.43865966796875E-05,
2000,204.60268208,-9,-0.981784820556641,
