-50,-1.92511
-48.5458,-1.45277
-47.0916,-2.86978
-45.6373,-0.0357567
-44.1831,1.38125
-42.7289,1.85359
-41.2747,3.74294
-39.8205,2.79827
-38.3662,0.43658
-36.912,-0.980431
-35.4578,-2.86978
-34.0036,-4.28679
-32.5494,-3.81445
-31.0952,-2.86978
-29.6409,2.79827
-28.1867,8.46631
-26.7325,7.0493
-25.2783,4.68762
-23.8241,7.99398
-22.3698,15.079
-20.9156,19.3301
-19.4614,21.6918
-18.0072,28.3045
-16.553,27.8321
-15.0987,27.8321
-13.6445,30.1938
-12.1903,42.4746
-10.7361,77.4276
-9.28187,28.3045
-7.82765,28.3045
-6.37343,28.3045
-4.91921,28.3045
-3.46499,28.3045
-2.01077,28.3045
-0.556553,28.3045
0.897666,28.3045
2.35189,28.3045
3.8061,408.536
5.26032,83.5679
6.71454,74.1212
8.16876,74.1212
9.62298,67.5085
11.0772,58.5341
12.5314,52.866
13.9856,51.9213
15.4399,44.8363
16.8941,39.1682
18.3483,31.1385
19.8025,26.4151
21.2567,27.8321
22.711,19.8024
24.1652,17.9131
25.6194,15.079
27.0736,14.6067
28.5278,13.662
29.982,16.496
31.4363,14.6067
32.8905,9.88332
34.3447,9.88332
35.7989,9.41099
37.2531,7.99398
38.7074,6.57696
40.1616,8.46631
41.6158,17.9131
43.07,25.9428
44.5242,43.4193
45.9785,75.5382
47.4327,131.746
48.8869,242.273
50.3411,420.817
51.7953,607.862
53.2495,811.44
54.7038,1051.86
56.158,1239.38
57.6122,1405.64
59.0664,1536.95
60.5206,1604.97
61.9749,1659.28
63.4291,1712.19
64.8833,1748.08
66.3375,1800.04
67.7917,1826.02
69.246,1842.08
70.7002,1845.39
72.1544,1868.53
73.6086,1891.2
75.0628,1903.01
76.5171,1928.04
77.9713,1997.48
79.4255,2036.68
80.8797,2050.85
82.3339,2055.58
83.7882,2028.65
85.2424,1998.9
86.6966,1946.94
88.1508,1875.14
89.605,1790.12
91.0592,1725.88
92.5135,1659.28
93.9677,1555.37
95.4219,1479.8
96.8761,1501.52
98.3303,1457.12
99.7846,1410.36
101.239,1391
102.693,1379.66
104.147,1369.27
105.601,1308.34
107.056,1296.06
108.51,1293.7
109.964,1277.64
111.418,1286.14
112.873,1267.24
114.327,1252.6
115.781,1239.85
117.235,1195.45
118.689,1170.89
120.144,1147.74
121.598,1127.43
123.052,1121.29
124.506,1074.06
125.961,1045.25
127.415,996.123
128.869,966.366
130.323,955.502
131.777,936.609
133.232,939.443
134.686,912.047
136.14,884.652
137.594,865.286
139.048,850.171
140.503,853.005
141.957,860.563
143.411,858.201
144.865,832.222
146.32,776.487
147.774,779.793
149.228,787.823
150.682,789.24
152.136,787.823
153.591,772.708
155.045,758.065
156.499,748.146
157.953,738.7
159.408,731.615
160.862,707.053
162.316,711.776
163.77,716.5
165.224,715.555
166.679,707.053
168.133,698.551
169.587,710.832
171.041,700.44
172.496,689.104
173.95,696.189
175.404,668.321
176.858,680.602
178.312,682.019
179.767,684.381
181.221,701.857
182.675,689.577
184.129,645.649
185.583,641.398
187.038,656.041
188.492,664.07
189.946,642.815
191.4,636.202
192.855,637.147
194.309,638.564
195.763,638.564
197.217,648.011
198.671,646.594
200.126,651.317
201.58,651.317
203.034,636.675
204.488,609.752
205.943,619.198
207.397,638.092
208.851,646.594
210.305,650.845
211.759,647.066
213.214,647.539
214.668,648.483
216.122,639.981
217.576,634.785
219.031,623.922
220.485,648.956
221.939,639.509
223.393,631.479
224.847,642.815
226.302,661.709
227.756,641.871
229.21,643.288
230.664,655.568
232.118,649.428
233.573,625.339
235.027,639.509
236.481,630.062
237.935,619.671
239.39,614.003
240.844,607.39
242.298,614.475
243.752,610.696
245.206,613.058
246.661,620.615
248.115,618.254
249.569,621.56
251.023,605.501
252.478,607.862
253.932,609.279
255.386,595.581
256.84,614.003
258.294,601.722
259.749,593.22
261.203,588.024
262.657,587.552
264.111,592.275
265.566,600.777
267.02,578.577
268.474,557.794
269.928,562.046
271.382,591.33
272.837,575.743
274.291,564.88
275.745,561.101
277.199,567.241
278.654,567.241
280.108,559.211
281.562,537.484
283.016,537.484
284.47,544.097
285.925,526.148
287.379,534.65
288.833,531.344
290.287,528.51
291.741,528.51
293.196,524.731
294.65,507.254
296.104,511.033
297.558,514.812
299.013,518.591
300.467,519.535
301.921,492.14
303.375,485.527
304.829,496.863
306.284,496.391
307.738,485.527
309.192,487.416
310.646,479.387
312.101,483.165
313.555,478.442
315.009,470.412
316.463,466.633
317.917,469.467
319.372,476.552
320.826,463.799
322.28,454.825
323.734,461.91
325.189,459.548
326.643,443.489
328.097,445.378
329.551,454.825
331.005,459.548
332.46,460.493
333.914,455.297
335.368,456.714
336.822,456.242
338.276,452.463
339.731,452.936
341.185,443.961
342.639,460.021
344.093,474.663
345.548,462.855
347.002,433.57
348.456,467.578
349.91,444.906
351.364,435.931
352.819,433.097
354.273,436.404
355.727,448.685
357.181,445.378
358.636,440.655
360.09,451.519
361.544,451.046
362.998,422.706
364.452,424.123
365.907,434.987
367.361,423.178
368.815,429.319
370.269,447.268
371.724,445.378
373.178,427.429
374.632,431.208
376.086,428.846
377.54,425.54
378.995,428.374
380.449,435.931
381.903,414.676
383.357,394.366
384.811,406.647
386.266,435.931
387.72,434.042
389.174,434.042
390.628,428.846
392.083,427.429
393.537,436.404
394.991,451.519
396.445,427.429
397.899,417.038
399.354,422.706
400.808,429.319
402.262,425.54
403.716,404.757
405.171,415.621
406.625,433.57
408.079,432.153
409.533,422.234
410.987,425.068
412.442,432.153
413.896,432.153
415.35,425.54
416.804,419.4
418.259,417.983
419.713,425.54
421.167,422.234
422.621,424.123
424.075,419.4
425.53,414.676
426.984,415.149
428.438,423.178
429.892,430.263
431.346,426.485
432.801,430.736
434.255,435.459
435.709,429.791
437.163,423.651
438.618,415.621
440.072,409.481
441.526,408.064
442.98,413.732
444.434,426.957
445.889,407.591
447.343,401.923
448.797,413.732
450.251,418.455
451.706,409.481
453.16,406.647
454.614,426.012
456.068,426.485
457.522,421.289
458.977,413.732
460.431,408.536
461.885,427.902
463.339,439.238
464.794,434.987
466.248,417.51
467.702,403.34
469.156,424.123
470.61,420.344
472.065,419.872
473.519,418.927
474.973,418.927
476.427,417.983
477.882,416.566
479.336,425.54
480.79,420.344
482.244,418.455
483.698,417.038
485.153,415.621
486.607,422.706
488.061,417.038
489.515,413.259
490.969,407.119
492.424,399.089
493.878,395.311
495.332,400.034
496.786,403.813
498.241,406.647
499.695,402.396
501.149,400.034
502.603,401.451
504.057,414.204
505.512,400.034
506.966,399.089
508.42,409.481
509.874,416.566
511.329,401.923
512.783,406.174
514.237,410.898
515.691,410.898
517.145,403.813
518.6,400.979
520.054,402.868
521.508,401.451
522.962,415.621
524.417,404.285
525.871,398.617
527.325,410.898
528.779,413.732
530.233,424.595
531.688,407.591
533.142,398.617
534.596,398.617
536.05,397.2
537.505,417.51
538.959,397.2
540.413,391.532
541.867,401.923
543.321,407.591
544.776,408.064
546.23,382.085
547.684,384.447
549.138,401.451
550.592,399.562
552.047,394.838
553.501,401.923
554.955,400.506
556.409,405.23
557.864,400.979
559.318,392.949
560.772,397.672
562.226,405.23
563.68,387.281
565.135,389.17
566.589,394.838
568.043,391.532
569.497,396.255
570.952,409.008
572.406,397.2
573.86,410.898
575.314,413.732
576.768,414.204
578.223,412.787
579.677,410.425
581.131,401.923
582.585,392.476
584.039,391.059
585.494,396.255
586.948,408.536
588.402,411.842
589.856,392.949
591.311,405.702
592.765,409.008
594.219,401.923
595.673,403.34
597.127,402.396
598.582,397.672
600.036,405.702
601.49,403.34
602.944,413.259
604.399,417.983
605.853,407.119
607.307,387.281
608.761,393.893
610.215,397.672
611.67,400.506
613.124,404.285
614.578,406.174
616.032,407.591
617.487,413.259
618.941,408.064
620.395,410.898
621.849,405.23
623.303,405.23
624.758,419.872
626.212,432.625
627.666,433.097
629.12,402.868
630.575,404.757
632.029,413.732
633.483,418.455
634.937,416.566
636.391,422.706
637.846,411.842
639.3,401.923
640.754,404.285
642.208,415.621
643.662,414.676
645.117,420.817
646.571,410.898
648.025,410.898
649.479,425.54
650.934,426.957
652.388,412.787
653.842,414.204
655.296,422.234
656.75,409.953
658.205,412.787
659.659,421.761
661.113,430.736
662.567,428.846
664.022,425.068
665.476,432.153
666.93,434.514
668.384,440.183
669.838,435.459
671.293,428.846
672.747,448.685
674.201,434.514
675.655,434.514
677.109,427.902
678.564,420.817
680.018,435.459
681.472,443.961
682.926,444.906
684.381,445.378
685.835,433.097
687.289,435.459
688.743,437.349
690.198,447.268
691.652,434.987
693.106,428.846
694.56,434.042
696.014,438.766
697.469,430.263
698.923,432.625
700.377,456.242
701.831,435.931
703.285,445.851
704.74,442.072
706.194,438.766
707.648,435.931
709.102,432.153
710.557,439.71
712.011,428.374
713.465,438.293
714.919,451.519
716.373,448.212
717.828,436.404
719.282,448.212
720.736,458.131
722.19,447.74
723.645,449.157
725.099,446.795
726.553,444.434
728.007,446.795
729.461,448.685
730.916,451.046
732.37,451.046
733.824,447.268
735.278,439.238
736.732,440.655
738.187,443.017
739.641,453.88
741.095,454.825
742.549,441.127
744.004,438.766
745.458,443.489
746.912,449.629
748.366,434.514
749.82,457.187
751.275,436.876
752.729,432.625
754.183,435.931
755.637,437.821
757.092,442.072
758.546,428.374
760,444.434
761.454,433.097
762.908,445.378
764.363,441.127
765.817,437.821
767.271,447.74
768.725,436.404
770.18,453.408
771.634,451.046
773.088,441.6
774.542,437.349
775.996,440.183
777.451,446.795
778.905,449.157
780.359,472.301
781.813,460.021
783.268,461.438
784.722,467.578
786.176,474.191
787.63,449.157
789.084,456.242
790.539,469.94
791.993,456.242
793.447,451.991
794.901,457.659
796.355,462.382
797.81,457.659
799.264,463.799
800.718,476.08
802.172,468.05
803.627,467.106
805.081,481.276
806.535,488.833
807.989,469.94
809.443,472.774
810.898,470.412
812.352,473.718
813.806,467.106
815.26,462.382
816.715,465.689
818.169,460.021
819.623,459.548
821.077,472.301
822.531,459.548
823.986,470.412
825.44,484.582
826.894,488.833
828.348,481.276
829.802,497.335
831.257,486.944
832.711,499.225
834.165,497.335
835.619,493.084
837.074,489.306
838.528,510.088
839.982,510.088
841.436,482.221
842.891,475.608
844.345,486.472
845.799,503.003
847.253,511.978
848.707,503.476
850.162,476.552
851.616,524.731
853.07,514.812
854.524,504.893
855.978,517.646
857.433,537.012
858.887,524.731
860.341,506.782
861.795,506.31
863.25,503.003
864.704,484.11
866.158,488.833
867.612,489.778
869.066,489.778
870.521,506.782
871.975,498.28
873.429,499.697
874.883,490.25
876.338,489.778
877.792,494.501
879.246,493.084
880.7,494.974
882.154,495.446
883.609,508.199
885.063,503.948
886.517,507.254
887.971,512.45
889.425,514.339
890.88,503.476
892.334,505.837
893.788,500.642
895.242,520.952
896.697,523.314
898.151,520.48
899.605,508.199
901.059,508.671
902.513,507.727
903.968,507.727
905.422,525.676
906.876,521.897
908.33,528.51
909.785,528.037
911.239,522.842
912.693,517.174
914.147,528.982
915.601,520.48
917.056,518.591
918.51,528.982
919.964,512.45
921.418,522.842
922.873,535.122
924.327,528.982
925.781,520.008
927.235,545.041
928.689,522.369
930.144,528.982
931.598,537.956
933.052,540.79
934.506,534.65
935.961,515.756
937.415,527.093
938.869,538.429
940.323,542.207
941.777,534.178
943.232,532.761
944.686,544.097
946.14,540.318
947.594,533.705
949.048,535.122
950.503,528.51
951.957,520.008
953.411,521.897
954.865,514.812
956.32,511.033
957.774,526.62
959.228,537.956
960.682,549.765
962.136,565.824
963.591,545.514
965.045,547.875
966.499,546.458
967.953,533.705
969.408,528.037
970.862,537.484
972.316,547.403
973.77,549.765
975.224,527.565
976.679,535.122
978.133,544.097
979.587,538.429
981.041,536.067
982.495,558.267
983.95,553.071
985.404,542.68
986.858,546.458
988.312,557.322
989.767,564.88
991.221,565.352
992.675,558.267
994.129,565.352
995.583,551.182
997.038,562.046
998.492,579.05
999.946,582.828
1001.4,571.02
1002.85,562.518
1004.31,569.131
1005.76,578.105
1007.22,583.301
1008.67,588.969
1010.13,587.552
1011.58,582.828
1013.03,574.799
1014.49,586.607
1015.94,598.416
1017.4,602.667
1018.85,589.441
1020.31,605.501
1021.76,624.866
1023.21,618.726
1024.67,608.807
1026.12,624.394
1027.58,620.615
1029.03,619.198
1030.48,635.258
1031.94,622.977
1033.39,629.117
1034.85,656.513
1036.3,636.675
1037.76,642.343
1039.21,660.292
1040.66,667.377
1042.12,679.658
1043.57,672.1
1045.03,696.189
1046.48,698.551
1047.94,685.798
1049.39,696.662
1050.84,696.189
1052.3,707.525
1053.75,730.67
1055.21,730.198
1056.66,724.53
1058.11,723.585
1059.57,739.644
1061.02,743.423
1062.48,744.84
1063.93,754.759
1065.39,766.095
1066.84,765.623
1068.29,787.35
1069.75,790.657
1071.2,809.078
1072.66,795.852
1074.11,804.355
1075.57,826.554
1077.02,818.997
1078.47,807.661
1079.93,822.303
1081.38,831.75
1082.84,836.946
1084.29,846.393
1085.75,838.835
1087.2,830.333
1088.65,828.444
1090.11,830.805
1091.56,830.333
1093.02,842.141
1094.47,838.835
1095.92,835.529
1097.38,831.75
1098.83,823.72
1100.29,821.359
1101.74,821.359
1103.2,810.023
1104.65,808.133
1106.1,787.823
1107.56,782.627
1109.01,783.099
1110.47,791.129
1111.92,784.989
1113.38,779.793
1114.83,790.657
1116.28,785.933
1117.74,782.627
1119.19,778.848
1120.65,768.457
1122.1,760.9
1123.55,774.597
1125.01,780.738
1126.46,766.095
1127.92,753.814
1129.37,754.759
1130.83,750.508
1132.28,755.704
1133.73,754.287
1135.19,781.682
1136.64,759.482
1138.1,772.708
1139.55,756.648
1141.01,743.895
1142.46,736.338
1143.91,732.087
1145.37,733.032
1146.82,742.478
1148.28,739.172
1149.73,736.81
1151.18,742.478
1152.64,756.648
1154.09,750.036
1155.55,739.172
1157,752.397
1158.46,759.01
1159.91,746.729
1161.36,778.376
1162.82,760.427
1164.27,755.231
1165.73,750.036
1167.18,742.951
1168.64,742.478
1170.09,749.091
1171.54,743.895
1173,743.895
1174.45,750.036
1175.91,738.7
1177.36,752.397
1178.82,751.453
1180.27,752.87
1181.72,760.9
1183.18,759.955
1184.63,760.9
1186.09,785.933
1187.54,772.708
1188.99,776.959
1190.45,770.346
1191.9,782.155
1193.36,767.512
1194.81,768.457
1196.27,766.568
1197.72,759.955
1199.17,774.125
1200.63,779.793
1202.08,791.129
1203.54,783.099
1204.99,795.852
1206.45,782.627
1207.9,776.487
1209.35,792.546
1210.81,797.269
1212.26,787.823
1213.72,785.461
1215.17,809.55
1216.62,806.716
1218.08,792.074
1219.53,807.189
1220.99,801.048
1222.44,804.355
1223.9,811.44
1225.35,815.691
1226.8,814.746
1228.26,818.997
1229.71,834.112
1231.17,839.307
1232.62,848.282
1234.08,804.355
1235.53,834.112
1236.98,839.307
1238.44,823.248
1239.89,821.359
1241.35,840.252
1242.8,863.397
1244.25,872.371
1245.71,864.341
1247.16,840.724
1248.62,886.069
1250.07,898.35
1251.53,880.873
1252.98,896.933
1254.43,916.771
1255.89,903.073
1257.34,915.826
1258.8,949.834
1260.25,933.303
1261.71,928.107
1263.16,950.779
1264.61,931.413
1266.07,971.09
1267.52,989.038
1268.98,1002.74
1270.43,1020.68
1271.89,1045.72
1273.34,1062.25
1274.79,1061.78
1276.25,1108.07
1277.7,1083.03
1279.16,1117.99
1280.61,1143.96
1282.06,1162.86
1283.52,1192.62
1284.97,1225.68
1286.43,1269.61
1287.88,1303.61
1289.34,1291.33
1290.79,1322.98
1292.24,1376.35
1293.7,1472.71
1295.15,1477.44
1296.61,1516.64
1298.06,1565.76
1299.52,1626.69
1300.97,1682.43
1302.42,1733.91
1303.88,1806.18
1305.33,1901.12
1306.79,1922.85
1308.24,2047.55
1309.69,2110.84
1311.15,2228.92
1312.6,2332.84
1314.06,2442.42
1315.51,2544.44
1316.97,2635.13
1318.42,2721.57
1319.87,2811.79
1321.33,2937.9
1322.78,3058.35
1324.24,3099.44
1325.69,3225.08
1327.15,3235.95
1328.6,3235.95
1330.05,3253.42
1331.51,3277.51
1332.96,3272.32
1334.42,3237.36
1335.87,3194.85
1337.32,3154.23
1338.78,3068.74
1340.23,2973.33
1341.69,2908.62
1343.14,2810.37
1344.6,2663.47
1346.05,2588.84
1347.5,2472.65
1348.96,2387.63
1350.41,2294.58
1351.87,2204.83
1353.32,2145.79
1354.78,2029.12
1356.23,1940.33
1357.68,1854.83
1359.14,1817.99
1360.59,1724.94
1362.05,1620.55
1363.5,1551.12
1364.96,1527.03
1366.41,1505.3
1367.86,1457.6
1369.32,1416.5
1370.77,1394.3
1372.23,1368.8
1373.68,1319.2
1375.13,1291.81
1376.59,1280.94
1378.04,1255.91
1379.5,1231.35
1380.95,1208.68
1382.41,1203.48
1383.86,1180.81
1385.31,1178.92
1386.77,1181.28
1388.22,1161.44
1389.68,1157.19
1391.13,1131.68
1392.59,1100.04
1394.04,1118.93
1395.49,1141.6
1396.95,1118.46
1398.4,1123.65
1399.86,1109.01
1401.31,1101.93
1402.76,1088.7
1404.22,1085.4
1405.67,1110.9
1407.13,1083.51
1408.58,1102.87
1410.04,1089.17
1411.49,1100.04
1412.94,1079.73
1414.4,1093.42
1415.85,1081.62
1417.31,1093.42
1418.76,1100.04
1420.22,1102.87
1421.67,1096.73
1423.12,1094.84
1424.58,1123.18
1426.03,1089.17
1427.49,1105.23
1428.94,1123.65
1430.4,1119.88
1431.85,1097.68
1433.3,1122.24
1434.76,1149.63
1436.21,1140.19
1437.67,1127.43
1439.12,1143.96
1440.57,1147.27
1442.03,1142.55
1443.48,1170.89
1444.94,1176.08
1446.39,1165.69
1447.85,1200.17
1449.3,1176.56
1450.75,1249.77
1452.21,1237.02
1453.66,1226.62
1455.12,1235.6
1456.57,1261.58
1458.03,1257.8
1459.48,1259.69
1460.93,1269.13
1462.39,1283.78
1463.84,1299.36
1465.3,1314.01
1466.75,1312.59
1468.2,1357.93
1469.66,1369.27
1471.11,1384.86
1472.57,1410.84
1474.02,1416.5
1475.48,1425.95
1476.93,1470.82
1478.38,1481.21
1479.84,1490.19
1481.29,1521.83
1482.75,1538.84
1484.2,1562.93
1485.66,1595.05
1487.11,1629.06
1488.56,1668.26
1490.02,1695.18
1491.47,1689.51
1492.93,1723.05
1494.38,1766.03
1495.83,1837.83
1497.29,1875.62
1498.74,1911.99
1500.2,1963.94
1501.65,2012.59
1503.11,2101.86
1504.56,2145.79
1506.01,2219
1507.47,2270.96
1508.92,2356.45
1510.38,2442.89
1511.83,2531.69
1513.29,2631.35
1514.74,2758.89
1516.19,2872.25
1517.65,3024.81
1519.1,3197.69
1520.56,3395.6
1522.01,3596.81
1523.46,3822.12
1524.92,4071.51
1526.37,4324.21
1527.83,4572.19
1529.28,4971.31
1530.74,5335.01
1532.19,5799.32
1533.64,6321.73
1535.1,6865.86
1536.55,7455.33
1538.01,8057.09
1539.46,8772.68
1540.92,9534.56
1542.37,10331.9
1543.82,11200
1545.28,12124.4
1546.73,13066.7
1548.19,13987.8
1549.64,15032.1
1551.1,15935.7
1552.55,16892.2
1554,17861.4
1555.46,18805.1
1556.91,19606.7
1558.37,20463.5
1559.82,20915.5
1561.27,21143.7
1562.73,21309.5
1564.18,21362.4
1565.64,21100.7
1567.09,20477.7
1568.55,19824.9
1570,18985.6
1571.45,17974.8
1572.91,16845.4
1574.36,15668.8
1575.82,14544.6
1577.27,13256.1
1578.73,12291.6
1580.18,11331.3
1581.63,10372
1583.09,9566.68
1584.54,8844.95
1586,8122.27
1587.45,7512.02
1588.9,7000.95
1590.36,6487.99
1591.81,6095.48
1593.27,5674.62
1594.72,5370.44
1596.18,5121.04
1597.63,4834.81
1599.08,4653.43
1600.54,4402.15
1601.99,4128.19
1603.45,3989.32
1604.9,3811.25
1606.36,3583.11
1607.81,3422.52
1609.26,3259.09
1610.72,3106.53
1612.17,2968.6
1613.63,2799.98
1615.08,2674.81
1616.54,2571.84
1617.99,2453.76
1619.44,2343.7
1620.9,2221.84
1622.35,2170.83
1623.81,2108.01
1625.26,2029.6
1626.71,1914.82
1628.17,1873.73
1629.62,1825.55
1631.08,1774.54
1632.53,1724.47
1633.99,1693.77
1635.44,1672.51
1636.89,1638.5
1638.35,1588.91
1639.8,1529.39
1641.26,1507.66
1642.71,1506.25
1644.17,1477.91
1645.62,1422.64
1647.07,1422.64
1648.53,1383.91
1649.98,1362.18
1651.44,1337.15
1652.89,1347.07
1654.34,1309.76
1655.8,1308.34
1657.25,1283.78
1658.71,1283.3
1660.16,1256.85
1661.62,1227.57
1663.07,1191.67
1664.52,1183.17
1665.98,1183.17
1667.43,1164.75
1668.89,1165.22
1670.34,1150.58
1671.8,1139.71
1673.25,1111.85
1674.7,1111.85
1676.16,1088.23
1677.61,1093.42
1679.07,1065.08
1680.52,1085.4
1681.97,1092.48
1683.43,1060.83
1684.88,1026.35
1686.34,1015.96
1687.79,1032.49
1689.25,1022.57
1690.7,1006.51
1692.15,992.345
1693.61,972.979
1695.06,987.149
1696.52,1000.85
1697.97,989.511
1699.43,964.949
1700.88,960.698
1702.33,953.613
1703.79,978.647
1705.24,952.668
1706.7,941.332
1708.15,968.256
1709.6,953.141
1711.06,918.188
1712.51,933.303
1713.97,945.111
1715.42,933.303
1716.88,935.664
1718.33,937.081
1719.78,921.022
1721.24,912.992
1722.69,921.966
1724.15,930.941
1725.6,923.383
1727.06,922.911
1728.51,937.554
1729.96,936.609
1731.42,928.107
1732.87,929.524
1734.33,941.332
1735.78,921.022
1737.24,917.243
1738.69,929.052
1740.14,915.354
1741.6,888.431
1743.05,886.541
1744.51,904.018
1745.96,913.464
1747.41,889.375
1748.87,880.873
1750.32,878.039
1751.78,880.873
1753.23,868.592
1754.69,867.175
1756.14,874.733
1757.59,865.286
1759.05,860.09
1760.5,854.895
1761.96,844.976
1763.41,867.648
1764.87,862.452
1766.32,821.831
1767.77,838.363
1769.23,842.614
1770.68,844.031
1772.14,829.388
1773.59,847.81
1775.04,826.082
1776.5,821.359
1777.95,807.661
1779.41,801.993
1780.86,823.248
1782.32,807.189
1783.77,812.384
1785.22,802.938
1786.68,808.606
1788.13,822.776
1789.59,826.082
1791.04,827.499
1792.5,810.967
1793.95,805.772
1795.4,818.052
1796.86,812.384
1798.31,775.07
1799.77,781.682
1801.22,789.712
1802.68,776.014
1804.13,797.269
1805.58,800.576
1807.04,809.078
1808.49,800.576
1809.95,783.099
1811.4,804.827
1812.85,808.133
1814.31,793.018
1815.76,822.776
1817.22,780.738
1818.67,784.516
1820.13,814.746
1821.58,800.104
1823.03,803.41
1824.49,805.299
1825.94,817.58
1827.4,792.546
1828.85,796.325
1830.31,790.657
1831.76,792.074
1833.21,801.048
1834.67,823.72
1836.12,802.465
1837.58,809.078
1839.03,831.278
1840.48,808.133
1841.94,812.384
1843.39,820.886
1844.85,837.891
1846.3,835.529
1847.76,838.363
1849.21,849.227
1850.66,837.418
1852.12,832.695
1853.57,851.116
1855.03,837.418
1856.48,811.912
1857.94,850.171
1859.39,849.227
1860.84,864.814
1862.3,873.316
1863.75,855.839
1865.21,866.703
1866.66,884.18
1868.11,847.337
1869.57,850.644
1871.02,871.899
1872.48,842.141
1873.93,831.278
1875.39,829.388
1876.84,827.027
1878.29,820.886
1879.75,819.942
1881.2,820.886
1882.66,804.827
1884.11,812.384
1885.57,821.359
1887.02,801.521
1888.47,794.435
1889.93,793.963
1891.38,781.21
1892.84,779.321
1894.29,790.184
1895.75,785.461
1897.2,763.734
1898.65,761.372
1900.11,767.04
1901.56,754.287
1903.02,761.844
1904.47,767.512
1905.92,744.368
1907.38,732.087
1908.83,745.785
1910.29,754.759
1911.74,775.07
1913.2,758.538
1914.65,744.84
1916.1,727.364
1917.56,725.002
1919.01,738.7
1920.47,734.449
1921.92,750.036
1923.38,739.172
1924.83,731.615
1926.28,734.921
1927.74,747.674
1929.19,757.121
1930.65,758.065
1932.1,741.534
1933.55,746.257
1935.01,756.176
1936.46,747.202
1937.92,738.7
1939.37,751.925
1940.83,746.729
1942.28,753.814
1943.73,757.593
1945.19,751.925
1946.64,749.091
1948.1,753.342
1949.55,745.785
1951.01,745.312
1952.46,746.257
1953.91,741.061
1955.37,734.921
1956.82,745.312
1958.28,749.091
1959.73,758.538
1961.18,777.904
1962.64,776.487
1964.09,759.955
1965.55,757.593
1967,754.287
1968.46,745.312
1969.91,760.427
1971.36,790.657
1972.82,790.657
1974.27,791.601
1975.73,782.627
1977.18,782.627
1978.64,776.014
1980.09,773.18
1981.54,769.874
1983,778.376
1984.45,780.738
1985.91,785.461
1987.36,801.993
1988.82,782.155
1990.27,791.601
1991.72,776.959
1993.18,774.125
1994.63,777.904
1996.09,770.346
1997.54,794.435
1998.99,796.325
2000.45,798.686
2001.9,804.355
2003.36,775.542
2004.81,780.265
2006.27,767.512
2007.72,785.461
2009.17,781.21
2010.63,784.989
2012.08,798.686
2013.54,776.959
2014.99,752.87
2016.45,746.729
2017.9,763.734
2019.35,766.568
2020.81,737.283
2022.26,756.648
2023.72,757.121
2025.17,723.585
2026.62,727.364
2028.08,747.202
2029.53,772.236
2030.99,761.372
2032.44,736.81
2033.9,729.253
2035.35,740.117
2036.8,733.504
2038.26,707.053
2039.71,725.474
2041.17,710.359
2042.62,717.917
2044.08,725.002
2045.53,731.142
2046.98,728.308
2048.44,708.47
2049.89,717.444
2051.35,711.776
2052.8,700.44
2054.25,693.828
2055.71,696.189
2057.16,695.717
2058.62,690.049
2060.07,685.326
2061.53,699.023
2062.98,700.913
2064.43,691.466
2065.89,692.883
2067.34,683.909
2068.8,681.547
2070.25,672.572
2071.71,679.185
2073.16,675.406
2074.61,680.13
2076.07,668.321
2077.52,665.487
2078.98,691.466
2080.43,694.3
2081.89,684.853
2083.34,670.211
2084.79,661.236
2086.25,650.845
2087.7,661.236
2089.16,670.683
2090.61,670.211
2092.06,662.181
2093.52,668.794
2094.97,664.07
2096.43,654.151
2097.88,669.266
2099.34,680.13
2100.79,680.13
2102.24,671.628
2103.7,679.185
2105.15,673.989
2106.61,656.985
2108.06,671.628
2109.52,664.543
2110.97,651.79
2112.42,647.066
2113.88,660.764
2115.33,665.015
2116.79,660.764
2118.24,673.045
2119.69,696.189
2121.15,686.743
2122.6,662.181
2124.06,665.96
2125.51,678.24
2126.97,678.24
2128.42,657.93
2129.87,664.07
2131.33,682.492
2132.78,676.351
2134.24,665.96
2135.69,679.658
2137.15,683.909
2138.6,694.3
2140.05,698.079
2141.51,672.1
2142.96,672.572
2144.42,696.662
2145.87,688.16
2147.32,688.16
2148.78,696.662
2150.23,686.743
2151.69,692.411
2153.14,713.666
2154.6,701.385
2156.05,700.913
2157.5,697.606
2158.96,708.47
2160.41,692.411
2161.87,689.577
2163.32,687.215
2164.78,686.27
2166.23,689.577
2167.68,701.857
2169.14,708.942
2170.59,710.359
2172.05,709.415
2173.5,725.002
2174.96,706.108
2176.41,724.53
2177.86,742.951
2179.32,744.84
2180.77,734.921
2182.23,731.615
2183.68,746.257
2185.13,734.449
2186.59,718.862
2188.04,739.644
2189.5,717.917
2190.95,701.385
2192.41,732.087
2193.86,715.555
2195.31,724.057
2196.77,744.84
2198.22,731.142
2199.68,734.449
2201.13,734.449
2202.59,722.168
2204.04,730.67
2205.49,738.7
2206.95,721.695
2208.4,742.478
2209.86,732.087
2211.31,720.279
2212.76,733.032
2214.22,743.895
2215.67,737.283
2217.13,728.781
2218.58,720.279
2220.04,741.061
2221.49,733.976
2222.94,751.925
2224.4,743.423
2225.85,754.287
2227.31,767.985
2228.76,738.227
2230.22,719.806
2231.67,738.227
2233.12,736.81
2234.58,751.453
2236.03,755.704
2237.49,759.482
2238.94,744.368
2240.4,735.393
2241.85,738.7
2243.3,745.785
2244.76,746.257
2246.21,752.87
2247.67,767.04
2249.12,763.261
2250.57,750.036
2252.03,756.176
2253.48,776.014
2254.94,764.678
2256.39,766.095
2257.85,781.21
2259.3,767.04
2260.75,777.904
2262.21,769.874
2263.66,762.317
2265.12,763.261
2266.57,770.346
2268.03,773.653
2269.48,754.759
2270.93,773.18
2272.39,778.848
2273.84,779.793
2275.3,771.291
2276.75,795.38
2278.2,801.048
2279.66,805.772
2281.11,798.214
2282.57,809.078
2284.02,784.516
2285.48,808.133
2286.93,784.044
2288.38,785.933
2289.84,805.299
2291.29,811.44
2292.75,797.742
2294.2,812.857
2295.66,829.861
2297.11,841.197
2298.56,840.724
2300.02,832.695
2301.47,855.839
2302.93,849.227
2304.38,840.252
2305.83,816.635
2307.29,829.861
2308.74,844.503
2310.2,840.252
2311.65,845.448
2313.11,866.231
2314.56,875.205
2316.01,882.763
2317.47,853.005
2318.92,863.397
2320.38,879.928
2321.83,890.32
2323.29,896.46
2324.74,886.541
2326.19,886.069
2327.65,890.32
2329.1,889.375
2330.56,880.873
2332.01,904.49
2333.47,902.601
2334.92,911.103
2336.37,896.933
2337.83,905.907
2339.28,895.043
2340.74,910.158
2342.19,914.881
2343.64,922.911
2345.1,929.996
2346.55,937.081
2348.01,930.469
2349.46,932.358
2350.92,952.668
2352.37,947.945
2353.82,962.115
2355.28,981.009
2356.73,988.094
2358.19,968.728
2359.64,972.034
2361.1,973.451
2362.55,1002.74
2364,1020.21
2365.46,1016.91
2366.91,1041
2368.37,1066.97
2369.82,1053.28
2371.27,1058
2372.73,1085.4
2374.18,1079.73
2375.64,1114.21
2377.09,1107.59
2378.55,1130.74
2380,1155.3
2381.45,1176.56
2382.91,1167.58
2384.36,1185.53
2385.82,1209.62
2387.27,1235.6
2388.73,1262.05
2390.18,1318.73
2391.63,1322.98
2393.09,1304.56
2394.54,1354.63
2396,1369.74
2397.45,1385.33
2398.9,1433.98
2400.36,1442.01
2401.81,1468.93
2403.27,1496.8
2404.72,1541.2
2406.18,1533.64
2407.63,1570.01
2409.08,1603.55
2410.54,1614.41
2411.99,1627.64
2413.45,1654.09
2414.9,1657.87
2416.36,1681.48
2417.81,1700.85
2419.26,1717.85
2420.72,1744.31
2422.17,1699.43
2423.63,1754.22
2425.08,1749.5
2426.53,1761.31
2427.99,1760.84
2429.44,1751.86
2430.9,1732.5
2432.35,1730.14
2433.81,1721.16
2435.26,1736.28
2436.71,1720.22
2438.17,1710.77
2439.62,1728.72
2441.08,1721.63
2442.53,1706.52
2443.99,1685.74
2445.44,1687.15
2446.89,1646.06
2448.35,1627.17
2449.8,1599.3
2451.26,1613.47
2452.71,1613
2454.17,1605.91
2455.62,1573.79
2457.07,1566.71
2458.53,1614.41
2459.98,1608.27
2461.44,1555.84
2462.89,1537.89
2464.34,1544.51
2465.8,1546.4
2467.25,1537.89
2468.71,1528.92
2470.16,1544.98
2471.62,1518.53
2473.07,1484.99
2474.52,1472.71
2475.98,1480.74
2477.43,1477.91
2478.89,1475.55
2480.34,1465.15
2481.8,1475.55
2483.25,1499.16
2484.7,1515.69
2486.16,1492.08
2487.61,1465.63
2489.07,1436.81
2490.52,1477.44
2491.97,1466.1
2493.43,1476.96
2494.88,1460.43
2496.34,1496.33
2497.79,1493.02
2499.25,1502
2500.7,1514.75
2502.15,1510.5
2503.61,1504.83
2505.06,1495.86
2506.52,1509.08
2507.97,1522.31
2509.43,1532.7
2510.88,1521.36
2512.33,1557.73
2513.79,1560.09
2515.24,1566.23
2516.7,1560.09
2518.15,1584.18
2519.6,1598.83
2521.06,1576.15
2522.51,1609.22
2523.97,1642.75
2525.42,1628.58
2526.88,1654.09
2528.33,1680.54
2529.78,1687.15
2531.24,1687.15
2532.69,1687.63
2534.15,1709.82
2535.6,1758.48
2537.06,1771.23
2538.51,1797.68
2539.96,1821.77
2541.42,1824.13
2542.87,1808.07
2544.33,1869.95
2545.78,1913.4
2547.24,1905.37
2548.69,1950.72
2550.14,1965.36
2551.6,2000.78
2553.05,2034.32
2554.51,2039.52
2555.96,2102.34
2557.41,2138.23
2558.87,2184.05
2560.32,2248.76
2561.78,2283.24
2563.23,2295.05
2564.69,2329.53
2566.14,2355.98
2567.59,2414.08
2569.05,2483.04
2570.5,2530.75
2571.96,2596.4
2573.41,2669.61
2574.87,2744.24
2576.32,2734.32
2577.77,2844.85
2579.23,2944.99
2580.68,3011.59
2582.14,3082.44
2583.59,3145.26
2585.04,3200.99
2586.5,3305.85
2587.95,3434.33
2589.41,3558.08
2590.86,3634.13
2592.32,3755.05
2593.77,3880.21
2595.22,3994.99
2596.68,4157
2598.13,4306.73
2599.59,4450.8
2601.04,4660.99
2602.5,4768.68
2603.95,4944.86
2605.4,5136.63
2606.86,5343.99
2608.31,5499.86
2609.77,5727.05
2611.22,5958.03
2612.68,6207.89
2614.13,6431.31
2615.58,6717.07
2617.04,7018.9
2618.49,7294.27
2619.95,7559.25
2621.4,7853.04
2622.85,8226.19
2624.31,8466.14
2625.76,8846.37
2627.22,9146.77
2628.67,9445.76
2630.13,9859.53
2631.58,10220.4
2633.03,10493.4
2634.49,10902.5
2635.94,11169.8
2637.4,11553.3
2638.85,11971.8
2640.31,12200.4
2641.76,12482.9
2643.21,12750.7
2644.67,13015.2
2646.12,13326.5
2647.58,13553.7
2649.03,13710.5
2650.48,13840.4
2651.94,14038.8
2653.39,14083.2
2654.85,14225.3
2656.3,14348.2
2657.76,14269.7
2659.21,14289.6
2660.66,14297.1
2662.12,14113.4
2663.57,14031.2
2665.03,13952.3
2666.48,13721.8
2667.94,13497.9
2669.39,13174.9
2670.84,12952.4
2672.3,12713.4
2673.75,12404.5
2675.21,12152.3
2676.66,11875.9
2678.11,11576.9
2679.57,11100.8
2681.02,10787.7
2682.48,10353.6
2683.93,10091
2685.39,9743.34
2686.84,9366.41
2688.29,8947.92
2689.75,8622.48
2691.2,8288.54
2692.66,7888.94
2694.11,7661.27
2695.57,7300.41
2697.02,7010.39
2698.47,6680.23
2699.93,6436.03
2701.38,6133.74
2702.84,5924.96
2704.29,5665.18
2705.75,5410.59
2707.2,5173
2708.65,4967.53
2710.11,4778.6
2711.56,4574.55
2713.02,4398.84
2714.47,4299.18
2715.92,4068.2
2717.38,3942.56
2718.83,3814.09
2720.29,3675.22
2721.74,3542.97
2723.2,3442.83
2724.65,3272.79
2726.1,3166.99
2727.56,3073.46
2729.01,3011.11
2730.47,2903.89
2731.92,2831.15
2733.38,2744.72
2734.83,2617.66
2736.28,2565.23
2737.74,2518.94
2739.19,2492.02
2740.65,2410.3
2742.1,2324.81
2743.55,2263.4
2745.01,2261.99
2746.46,2201.06
2747.92,2150.04
2749.37,2062.19
2750.83,2101.39
2752.28,1992.28
2753.73,1995.59
2755.19,1945.99
2756.64,1882.23
2758.1,1852.47
2759.55,1834.99
2761.01,1821.3
2762.46,1765.56
2763.91,1703.68
2765.37,1708.41
2766.82,1706.99
2768.28,1657.87
2769.73,1635.2
2771.18,1615.36
2772.64,1598.83
2774.09,1556.79
2775.55,1578.04
2777,1541.2
2778.46,1519
2779.91,1484.52
2781.36,1496.33
2782.82,1482.63
2784.27,1479.32
2785.73,1462.32
2787.18,1456.65
2788.64,1399.03
2790.09,1392.89
2791.54,1403.75
2793,1384.38
2794.45,1366.91
2795.91,1323.45
2797.36,1319.67
2798.82,1319.2
2800.27,1347.54
2801.72,1321.56
2803.18,1277.16
2804.63,1319.67
2806.09,1291.81
2807.54,1279.05
2808.99,1276.22
2810.45,1254.49
2811.9,1234.18
2813.36,1226.62
2814.81,1260.63
2816.27,1228.99
2817.72,1206.31
2819.17,1216.23
2820.63,1217.18
2822.08,1196.39
2823.54,1176.56
2824.99,1186
2826.45,1183.17
2827.9,1164.75
2829.35,1175.61
2830.81,1165.22
2832.26,1216.23
2833.72,1162.86
2835.17,1149.16
2836.62,1171.83
2838.08,1159.08
2839.53,1142.08
2840.99,1158.14
2842.44,1161.91
2843.9,1148.69
2845.35,1140.19
2846.8,1154.36
2848.26,1144.44
2849.71,1125.07
2851.17,1136.41
2852.62,1152.47
2854.08,1117.51
2855.53,1104.29
2856.98,1107.59
2858.44,1117.04
2859.89,1109.01
2861.35,1120.82
2862.8,1138.3
2864.25,1120.82
2865.71,1144.44
2867.16,1126.02
2868.62,1108.54
2870.07,1103.82
2871.53,1097.2
2872.98,1126.02
2874.43,1153.41
2875.89,1107.59
2877.34,1109.48
2878.8,1126.02
2880.25,1130.27
2881.71,1134.99
2883.16,1128.85
2884.61,1110.43
2886.07,1115.62
2887.52,1113.26
2888.98,1105.23
2890.43,1134.52
2891.89,1161.91
2893.34,1137.82
2894.79,1133.1
2896.25,1128.38
2897.7,1152.47
2899.16,1142.55
2900.61,1134.05
2902.06,1127.43
2903.52,1128.85
2904.97,1101.45
2906.43,1112.32
2907.88,1124.13
2909.34,1108.07
2910.79,1109.48
2912.24,1092.48
2913.7,1071.23
2915.15,1092.48
2916.61,1075.95
2918.06,1058.47
2919.52,1065.08
2920.97,1059.89
2922.42,1042.88
2923.88,1048.08
2925.33,1028.24
2926.79,1027.77
2928.24,1024.46
2929.69,1015.49
2931.15,1031.08
2932.6,1000.37
2934.06,1022.1
2935.51,1000.85
2936.97,982.426
2938.42,974.396
2939.87,957.864
2941.33,932.358
2942.78,939.915
2944.24,962.115
2945.69,940.86
2947.15,930.469
2948.6,910.158
2950.05,904.49
2951.51,901.656
2952.96,862.452
2954.42,855.367
2955.87,885.597
2957.32,854.895
2958.78,850.644
2960.23,838.835
2961.69,860.09
2963.14,841.669
2964.6,817.58
2966.05,809.078
2967.5,798.686
2968.96,824.193
2970.41,812.384
2971.87,831.75
2973.32,819.469
2974.78,803.41
2976.23,792.546
2977.68,777.431
2979.14,775.07
2980.59,797.742
2982.05,779.793
2983.5,767.04
2984.96,779.321
2986.41,761.844
2987.86,769.402
2989.32,772.236
2990.77,742.951
2992.23,780.738
2993.68,738.7
2995.13,751.925
2996.59,748.619
2998.04,764.678
2999.5,747.674
3000.95,744.368
3002.41,744.368
3003.86,739.172
3005.31,742.951
3006.77,734.921
3008.22,734.449
3009.68,721.695
3011.13,715.555
3012.59,710.832
3014.04,721.223
3015.49,722.168
3016.95,742.006
3018.4,728.308
3019.86,712.249
3021.31,728.781
3022.76,733.032
3024.22,703.274
3025.67,714.138
3027.13,716.972
3028.58,707.053
3030.04,734.449
3031.49,700.44
3032.94,703.274
3034.4,712.721
3035.85,714.138
3037.31,702.802
3038.76,696.662
3040.22,701.385
3041.67,716.5
3043.12,699.968
3044.58,703.747
3046.03,718.389
3047.49,710.832
3048.94,690.521
3050.4,722.64
3051.85,705.636
3053.3,710.359
3054.76,697.134
3056.21,715.083
3057.67,735.393
3059.12,709.415
3060.57,708.47
3062.03,749.091
3063.48,725.002
3064.94,723.113
3066.39,725.002
3067.85,735.393
3069.3,721.695
3070.75,719.806
3072.21,742.951
3073.66,741.061
3075.12,732.559
3076.57,743.423
3078.03,757.593
3079.48,736.338
3080.93,756.176
3082.39,744.84
3083.84,742.006
3085.3,718.862
3086.75,767.985
3088.2,755.231
3089.66,767.512
3091.11,800.576
3092.57,782.155
3094.02,771.763
3095.48,797.269
3096.93,818.997
3098.38,800.104
3099.84,806.716
3101.29,837.418
3102.75,838.363
3104.2,811.912
3105.66,829.861
3107.11,912.047
3108.56,869.537
3110.02,873.788
3111.47,910.158
3112.93,918.188
3114.38,926.69
3115.83,942.749
3117.29,945.111
3118.74,947.473
3120.2,961.17
3121.65,961.17
3123.11,970.145
3124.56,1003.21
3126.01,967.783
3127.47,1001.32
3128.92,1027.77
3130.38,1035.8
3131.83,1063.67
3133.29,1052.8
3134.74,1046.66
3136.19,1079.25
3137.65,1069.34
3139.1,1066.97
3140.56,1067.92
3142.01,1061.31
3143.47,1065.08
3144.92,1068.39
3146.37,1075.48
3147.83,1109.01
3149.28,1058
3150.74,1098.62
3152.19,1133.57
3153.64,1132.16
3155.1,1096.26
3156.55,1117.51
3158.01,1073.11
3159.46,1094.84
3160.92,1117.04
3162.37,1123.18
3163.82,1143.96
3165.28,1137.35
3166.73,1146.33
3168.19,1164.28
3169.64,1189.31
3171.1,1174.67
3172.55,1176.56
3174,1189.31
3175.46,1193.09
3176.91,1220.01
3178.37,1254.02
3179.82,1223.32
3181.27,1268.66
3182.73,1282.36
3184.18,1289.92
3185.64,1319.67
3187.09,1342.82
3188.55,1358.88
3190,1357.93
3191.45,1368.8
3192.91,1385.8
3194.36,1380.61
3195.82,1378.24
3197.27,1396.67
3198.73,1403.28
3200.18,1391
3201.63,1396.19
3203.09,1381.08
3204.54,1404.22
3206,1386.27
3207.45,1360.3
3208.9,1339.51
3210.36,1344.24
3211.81,1334.79
3213.27,1302.67
3214.72,1277.16
3216.18,1271.02
3217.63,1223.32
3219.08,1202.53
3220.54,1174.19
3221.99,1131.21
3223.45,1105.23
3224.9,1066.03
3226.36,1053.28
3227.81,1063.67
3229.26,1006.99
3230.72,988.566
3232.17,951.251
3233.63,933.303
3235.08,917.243
3236.53,868.592
3237.99,870.954
3239.44,818.997
3240.9,811.912
3242.35,803.41
3243.81,802.465
3245.26,776.014
3246.71,750.98
3248.17,736.81
3249.62,750.508
3251.08,730.67
3252.53,710.832
3253.99,711.776
3255.44,697.606
3256.89,682.492
3258.35,693.828
3259.8,678.713
3261.26,661.709
3262.71,651.317
3264.17,658.402
3265.62,648.956
3267.07,635.73
3268.53,639.509
3269.98,625.811
3271.44,619.671
3272.89,642.815
3274.34,641.871
3275.8,607.39
3277.25,604.556
3278.71,603.139
3280.16,601.722
3281.62,602.667
3283.07,604.084
3284.52,592.275
3285.98,605.501
3287.43,587.079
3288.89,589.441
3290.34,591.33
3291.8,568.186
3293.25,584.245
3294.7,614.947
3296.16,596.998
3297.61,590.858
3299.07,583.773
3300.52,600.777
3301.97,596.526
3303.43,571.492
3304.88,587.079
3306.34,590.858
3307.79,580.467
3309.25,602.667
3310.7,571.492
3312.15,585.19
3313.61,574.326
3315.06,572.909
3316.52,578.105
3317.97,561.101
3319.43,582.828
3320.88,580.467
3322.33,571.492
3323.79,574.326
3325.24,580.467
3326.7,583.773
3328.15,569.131
3329.6,569.131
3331.06,578.105
3332.51,575.271
3333.97,574.799
3335.42,588.969
3336.88,542.68
3338.33,581.884
3339.78,563.935
3341.24,558.267
3342.69,563.463
3344.15,571.965
3345.6,571.965
3347.06,568.186
3348.51,578.105
3349.96,550.709
3351.42,563.463
3352.87,550.709
3354.33,559.684
3355.78,565.824
3357.24,571.492
3358.69,568.658
3360.14,558.739
3361.6,575.743
3363.05,557.322
3364.51,558.267
3365.96,568.658
3367.41,571.02
3368.87,558.739
3370.32,557.322
3371.78,545.041
3373.23,551.654
3374.69,565.352
3376.14,575.271
3377.59,562.046
3379.05,549.292
3380.5,544.569
3381.96,557.322
3383.41,559.684
3384.87,541.735
3386.32,547.875
3387.77,568.658
3389.23,555.905
3390.68,566.769
3392.14,547.875
3393.59,562.518
3395.04,601.25
3396.5,562.99
3397.95,554.961
3399.41,560.156
3400.86,547.403
3402.32,563.463
3403.77,571.492
3405.22,552.599
3406.68,541.735
3408.13,549.292
3409.59,562.046
3411.04,569.131
3412.5,548.82
3413.95,546.931
3415.4,544.569
3416.86,542.68
3418.31,564.407
3419.77,551.182
3421.22,562.99
3422.68,562.046
3424.13,517.646
3425.58,566.769
3427.04,556.85
3428.49,556.85
3429.95,546.931
3431.4,557.794
3432.85,549.765
3434.31,534.65
3435.76,556.378
3437.22,558.267
3438.67,543.152
3440.13,551.654
3441.58,521.425
3443.03,540.318
3444.49,553.071
3445.94,537.956
3447.4,526.148
3448.85,558.267
3450.31,529.927
3451.76,556.378
3453.21,555.433
3454.67,566.769
3456.12,538.901
3457.58,570.075
3459.03,548.348
3460.48,571.492
3461.94,562.518
3463.39,555.905
3464.85,557.794
3466.3,539.373
3467.76,536.067
3469.21,537.484
3470.66,554.961
3472.12,548.82
3473.57,547.875
3475.03,541.263
3476.48,543.152
3477.94,557.794
3479.39,569.603
3480.84,541.735
3482.3,543.152
3483.75,555.905
3485.21,550.237
3486.66,535.595
3488.11,554.961
3489.57,546.458
3491.02,543.152
3492.48,564.407
3493.93,554.016
3495.39,541.263
3496.84,556.378
3498.29,556.378
3499.75,548.348
3501.2,541.263
3502.66,550.237
3504.11,541.735
3505.57,535.122
3507.02,557.322
3508.47,554.016
3509.93,556.85
3511.38,555.905
3512.84,547.403
3514.29,536.539
3515.75,560.629
3517.2,549.765
3518.65,559.211
3520.11,570.548
3521.56,547.875
3523.02,544.097
3524.47,552.126
3525.92,544.569
3527.38,545.041
3528.83,561.573
3530.29,554.961
3531.74,555.905
3533.2,567.714
3534.65,562.99
3536.1,569.603
3537.56,547.875
3539.01,532.288
3540.47,559.684
3541.92,558.267
3543.38,532.288
3544.83,532.288
3546.28,545.986
3547.74,547.875
3549.19,558.267
3550.65,571.965
3552.1,541.735
3553.55,555.433
3555.01,558.267
3556.46,553.543
3557.92,553.071
3559.37,528.037
3560.83,550.709
3562.28,547.875
3563.73,534.178
3565.19,537.956
3566.64,526.62
3568.1,529.454
3569.55,537.012
3571.01,542.207
3572.46,543.624
3573.91,538.429
3575.37,532.761
3576.82,541.263
3578.28,549.765
3579.73,553.543
3581.18,558.739
3582.64,553.543
3584.09,533.233
3585.55,549.292
3587,556.85
3588.46,532.761
3589.91,539.373
3591.36,536.539
3592.82,537.012
3594.27,532.288
3595.73,556.378
3597.18,553.543
3598.64,561.573
3600.09,557.322
3601.54,562.518
3603,557.322
3604.45,549.292
3605.91,536.067
3607.36,553.543
3608.82,551.182
3610.27,542.207
3611.72,557.322
3613.18,527.093
3614.63,557.794
3616.09,545.986
3617.54,555.905
3618.99,558.739
3620.45,574.799
3621.9,540.79
3623.36,552.126
3624.81,552.599
3626.27,552.599
3627.72,560.629
3629.17,545.514
3630.63,566.769
3632.08,541.263
3633.54,548.348
3634.99,557.794
3636.45,555.433
3637.9,547.403
3639.35,550.237
3640.81,543.152
3642.26,558.267
3643.72,542.68
3645.17,531.816
3646.62,542.68
3648.08,559.211
3649.53,546.931
3650.99,569.603
3652.44,557.322
3653.9,541.263
3655.35,549.292
3656.8,554.016
3658.26,563.935
3659.71,579.522
3661.17,554.488
3662.62,552.599
3664.08,549.765
3665.53,568.186
3666.98,543.152
3668.44,552.126
3669.89,565.352
3671.35,565.352
3672.8,560.156
3674.25,551.182
3675.71,556.378
3677.16,553.543
3678.62,555.433
3680.07,550.709
3681.53,548.82
3682.98,555.905
3684.43,557.322
3685.89,556.378
3687.34,556.378
3688.8,573.854
3690.25,556.85
3691.71,557.794
3693.16,568.186
3694.61,539.846
3696.07,545.041
3697.52,541.735
3698.98,561.101
3700.43,535.595
3701.89,563.463
3703.34,554.488
3704.79,548.348
3706.25,569.131
3707.7,553.543
3709.16,548.348
3710.61,554.016
3712.06,572.909
3713.52,573.854
3714.97,561.101
3716.43,566.769
3717.88,552.599
3719.34,564.88
3720.79,567.241
3722.24,557.322
3723.7,560.156
3725.15,581.411
3726.61,582.828
3728.06,587.552
3729.52,564.407
3730.97,559.684
3732.42,544.097
3733.88,560.156
3735.33,583.301
3736.79,580.939
3738.24,559.211
3739.69,570.075
3741.15,571.02
3742.6,574.799
3744.06,574.799
3745.51,557.794
3746.97,558.267
3748.42,564.407
3749.87,568.658
3751.33,571.02
3752.78,567.714
3754.24,565.352
3755.69,562.99
3757.15,576.216
3758.6,595.109
3760.05,570.548
3761.51,569.603
3762.96,570.075
3764.42,564.88
3765.87,568.658
3767.32,568.186
3768.78,575.271
3770.23,573.382
3771.69,569.603
3773.14,567.241
3774.6,562.518
3776.05,565.824
3777.5,588.496
3778.96,574.326
3780.41,581.411
3781.87,571.492
3783.32,584.718
3784.78,593.22
3786.23,582.356
3787.68,564.407
3789.14,563.463
3790.59,578.105
3792.05,572.909
3793.5,586.607
3794.96,574.326
3796.41,562.046
3797.86,560.156
3799.32,580.939
3800.77,578.105
3802.23,591.803
3803.68,564.407
3805.13,580.939
3806.59,583.773
3808.04,593.692
3809.5,573.854
3810.95,568.658
3812.41,613.53
3813.86,595.109
3815.31,600.305
3816.77,583.301
3818.22,594.164
3819.68,605.028
3821.13,594.637
3822.59,590.858
3824.04,580.467
3825.49,596.998
3826.95,586.135
3828.4,579.994
3829.86,581.884
3831.31,592.275
3832.76,571.492
3834.22,590.386
3835.67,584.245
3837.13,579.522
3838.58,602.667
3840.04,578.577
3841.49,601.722
3842.94,560.156
3844.4,594.164
3845.85,588.969
3847.31,583.301
3848.76,623.922
3850.22,604.084
3851.67,593.692
3853.12,599.36
3854.58,582.356
3856.03,599.36
3857.49,579.522
3858.94,599.36
3860.4,631.479
3861.85,624.394
3863.3,609.279
3864.76,608.335
3866.21,611.641
3867.67,610.696
3869.12,596.998
3870.57,593.22
3872.03,595.581
3873.48,604.084
3874.94,615.42
3876.39,622.977
3877.85,594.164
3879.3,602.667
3880.75,596.526
3882.21,588.496
3883.66,610.696
3885.12,626.756
3886.57,614.475
3888.03,602.667
3889.48,609.279
3890.93,615.892
3892.39,634.313
3893.84,619.671
3895.3,625.811
3896.75,626.283
3898.2,628.173
3899.66,627.7
3901.11,625.339
3902.57,646.594
3904.02,638.564
3905.48,636.202
3906.93,630.534
3908.38,632.424
3909.84,631.951
3911.29,629.117
3912.75,628.645
3914.2,647.066
3915.66,648.483
3917.11,634.785
3918.56,626.756
3920.02,634.313
3921.47,641.871
3922.93,646.122
3924.38,654.624
3925.83,647.539
3927.29,660.764
3928.74,627.228
3930.2,663.126
3931.65,661.709
3933.11,647.066
3934.56,661.709
3936.01,669.266
3937.47,666.904
3938.92,663.126
3940.38,686.743
3941.83,685.798
3943.29,678.24
3944.74,659.347
3946.19,682.492
3947.65,703.747
3949.1,668.794
3950.56,672.1
3952.01,698.079
3953.47,693.828
3954.92,664.07
3956.37,680.602
3957.83,684.853
3959.28,706.108
3960.74,716.027
3962.19,692.411
3963.64,678.713
3965.1,704.219
3966.55,718.389
3968.01,715.555
3969.46,706.108
3970.92,686.27
3972.37,703.747
3973.82,698.079
3975.28,724.53
3976.73,712.721
3978.19,700.913
3979.64,736.338
3981.1,718.862
3982.55,721.223
3984,733.976
3985.46,724.53
3986.91,729.725
3988.37,721.223
3989.82,739.644
3991.27,742.951
3992.73,747.202
3994.18,750.036
3995.64,749.563
3997.09,718.862
3998.55,703.747
4000,749.563
