-50,-7.62425
-48.5458,-5.5398
-47.0916,-1.18449
-45.6373,-2.30364
-44.1831,-6.88228
-42.7289,-5.47813
-41.2747,0.872022
-39.8205,-0.540584
-38.3662,-4.92974
-36.912,-4.92619
-35.4578,-1.76641
-34.0036,0.0652083
-32.5494,2.67604
-31.0952,5.42922
-29.6409,9.32031
-28.1867,11.5792
-26.7325,7.29439
-25.2783,12.7988
-23.8241,21.021
-22.3698,26.5964
-20.9156,28.0644
-19.4614,31.5713
-18.0072,33.3521
-16.553,34.8362
-15.0987,42.7913
-13.6445,57.6502
-12.1903,92.1731
-10.7361,148.635
-9.28187,47.4911
-7.82765,47.4911
-6.37343,47.4911
-4.91921,47.4911
-3.46499,47.4911
-2.01077,47.4911
-0.556553,47.4911
0.897666,47.4911
2.35189,47.4911
3.8061,361.663
5.26032,197.576
6.71454,153.4
8.16876,119.791
9.62298,101.078
11.0772,85.4237
12.5314,67.4388
13.9856,59.4795
15.4399,48.6398
16.8941,44.4375
18.3483,41.048
19.8025,36.0388
21.2567,36.9975
22.711,34.033
24.1652,34.521
25.6194,36.0329
27.0736,37.8027
28.5278,35.3325
29.982,30.9997
31.4363,26.518
32.8905,26.4529
34.3447,22.0819
35.7989,16.1134
37.2531,9.50791
38.7074,11.6277
40.1616,17.8962
41.6158,15.035
43.07,30.2047
44.5242,45.2683
45.9785,80.9293
47.4327,148.655
48.8869,261.839
50.3411,447.748
51.7953,649.959
53.2495,862.529
54.7038,1077.36
56.158,1290.02
57.6122,1454.7
59.0664,1569.41
60.5206,1674.16
61.9749,1711.14
63.4291,1764.45
64.8833,1816.88
66.3375,1829.99
67.7917,1813.05
69.246,1864.43
70.7002,1877.22
72.1544,1909.8
73.6086,1944.07
75.0628,1966.07
76.5171,2003.21
77.9713,2059.81
79.4255,2104.41
80.8797,2107.34
82.3339,2099.69
83.7882,2041.66
85.2424,1944.19
86.6966,1863.05
88.1508,1797.2
89.605,1682.08
91.0592,1645.39
92.5135,1592.68
93.9677,1546.75
95.4219,1540.01
96.8761,1490.4
98.3303,1456.06
99.7846,1445.68
101.239,1449.96
102.693,1455.38
104.147,1456.91
105.601,1453.93
107.056,1462.89
108.51,1452.46
109.964,1416.38
111.418,1367.56
112.873,1352.07
114.327,1334.44
115.781,1289.4
117.235,1237.61
118.689,1205.23
120.144,1186.44
121.598,1156.14
123.052,1126.93
124.506,1116.89
125.961,1125.31
127.415,1111.05
128.869,1106.27
130.323,1106.03
131.777,1114.9
133.232,1132.8
134.686,1093.19
136.14,1045.39
137.594,1020.05
139.048,957.417
140.503,953.514
141.957,934.616
143.411,910.867
144.865,894.118
146.32,883.373
147.774,903.718
149.228,915.505
150.682,916.589
152.136,915.71
153.591,885.372
155.045,869.147
156.499,845.106
157.953,835.485
159.408,843.537
160.862,833.612
162.316,826.582
163.77,815.83
165.224,817.622
166.679,831.651
168.133,837.81
169.587,836.883
171.041,835.164
172.496,875.16
173.95,968.354
175.404,1119.45
176.858,1226.83
178.312,1258.85
179.767,1203.54
181.221,1069.45
182.675,989.847
184.129,914.411
185.583,860.96
187.038,813.747
188.492,780.747
189.946,773.891
191.4,750.932
192.855,726.685
194.309,721.548
195.763,711.595
197.217,689.33
198.671,690.826
200.126,686.283
201.58,682.726
203.034,700.258
204.488,689.814
205.943,689.138
207.397,692.766
208.851,695.813
210.305,686.661
211.759,662.317
213.214,681.886
214.668,675.696
216.122,664.722
217.576,673.334
219.031,664.339
220.485,663.192
221.939,671.713
223.393,678.603
224.847,672.028
226.302,677.895
227.756,696.025
229.21,688.027
230.664,664.591
232.118,650.282
233.573,683.507
235.027,682.661
236.481,657.959
237.935,658.413
239.39,680.025
240.844,651.352
242.298,654.914
243.752,653.089
245.206,649.894
246.661,650.378
248.115,664.878
249.569,646.926
251.023,642.439
252.478,640.651
253.932,646.273
255.386,659.501
256.84,651.051
258.294,631.978
259.749,625.046
261.203,623.303
262.657,616.096
264.111,608.198
265.566,604.705
267.02,615.94
268.474,618.621
269.928,606.818
271.382,615.484
272.837,608.799
274.291,592.796
275.745,591.27
277.199,601.761
278.654,586.262
280.108,572.189
281.562,572.615
283.016,572.505
284.47,572.417
285.925,562.25
287.379,567.481
288.833,561.041
290.287,557.415
291.741,557.547
293.196,557.228
294.65,546.43
296.104,551.709
297.558,554.449
299.013,552.789
300.467,545.183
301.921,544.731
303.375,528.273
304.829,529.568
306.284,525.578
307.738,515.535
309.192,511.238
310.646,501.088
312.101,493.905
313.555,504.25
315.009,508.663
316.463,493.221
317.917,493.11
319.372,494.866
320.826,494.035
322.28,501.968
323.734,515.597
325.189,508.959
326.643,500.995
328.097,486.916
329.551,482.593
331.005,485.01
332.46,471.634
333.914,488.369
335.368,484.919
336.822,486.75
338.276,483.382
339.731,466.8
341.185,496.236
342.639,508.244
344.093,494.434
345.548,478.709
347.002,484.769
348.456,497.98
349.91,472.863
351.364,485.655
352.819,495.602
354.273,489.179
355.727,479.717
357.181,486.252
358.636,483.744
360.09,475.964
361.544,484.255
362.998,501.694
364.452,479.957
365.907,458.74
367.361,466.637
368.815,474.404
370.269,472.763
371.724,465.12
373.178,475.405
374.632,463.819
376.086,440.358
377.54,443.853
378.995,481.535
380.449,450.702
381.903,451.886
383.357,455.679
384.811,462.787
386.266,460.035
387.72,433.654
389.174,470.16
390.628,487.327
392.083,489.861
393.537,481.103
394.991,479.633
396.445,477.209
397.899,469.546
399.354,452.23
400.808,452.313
402.262,465.657
403.716,456.592
405.171,468.941
406.625,468.061
408.079,461.637
409.533,449.851
410.987,439.54
412.442,447.74
413.896,441.618
415.35,452.931
416.804,452.439
418.259,444.453
419.713,453.379
421.167,455.272
422.621,460.391
424.075,472.991
425.53,471.044
426.984,447.503
428.438,429.505
429.892,445.599
431.346,433.021
432.801,438.602
434.255,445.433
435.709,431.334
437.163,438.699
438.618,457.046
440.072,441.381
441.526,433.142
442.98,443.977
444.434,446.924
445.889,463.238
447.343,445.127
448.797,429.496
450.251,428.749
451.706,445.447
453.16,439.345
454.614,447.473
456.068,442.376
457.522,431.983
458.977,437.855
460.431,455.642
461.885,445.474
463.339,456.811
464.794,458.528
466.248,464.222
467.702,467.358
469.156,450.02
470.61,434.685
472.065,441.347
473.519,438.199
474.973,449.043
476.427,468.087
477.882,447.121
479.336,444.781
480.79,439.07
482.244,448.821
483.698,462.452
485.153,461.388
486.607,452.212
488.061,455.144
489.515,446.397
490.969,435.067
492.424,430.102
493.878,435.057
495.332,443.618
496.786,439.969
498.241,432.155
499.695,425.168
501.149,424.484
502.603,425.98
504.057,436.256
505.512,447.192
506.966,435.111
508.42,424.634
509.874,428.794
511.329,440.262
512.783,428.075
514.237,433.372
515.691,425.044
517.145,430.163
518.6,439.639
520.054,421.701
521.508,438.373
522.962,420.911
524.417,418.354
525.871,413.994
527.325,408.379
528.779,419.804
530.233,440.181
531.688,417.582
533.142,423.609
534.596,429.766
536.05,423.815
537.505,425.876
538.959,424.492
540.413,421.873
541.867,427.142
543.321,425.902
544.776,423.797
546.23,421.439
547.684,427.171
549.138,432.422
550.592,435.005
552.047,432.212
553.501,426.194
554.955,414.69
556.409,419.76
557.864,429.298
559.318,425.418
560.772,417.671
562.226,434.153
563.68,429.39
565.135,438.706
566.589,427.39
568.043,417.541
569.497,427.718
570.952,443.078
572.406,427.177
573.86,430.184
575.314,434.307
576.768,433.827
578.223,420.76
579.677,418.612
581.131,441.699
582.585,444.913
584.039,434.778
585.494,416.556
586.948,412.777
588.402,410.399
589.856,417.03
591.311,436.192
592.765,418.894
594.219,416.942
595.673,420.555
597.127,425.01
598.582,432.177
600.036,426.657
601.49,422.693
602.944,421.235
604.399,423.774
605.853,430.664
607.307,431.268
608.761,433.99
610.215,429.466
611.67,440.13
613.124,432.084
614.578,428.481
616.032,427.808
617.487,443.61
618.941,423.722
620.395,439.119
621.849,444.403
623.303,439.451
624.758,448.148
626.212,456.13
627.666,449.608
629.12,437.4
630.575,448.535
632.029,462.807
633.483,460.065
634.937,427.586
636.391,435.692
637.846,440.858
639.3,444.098
640.754,441.689
642.208,443.57
643.662,460.211
645.117,457.355
646.571,451.636
648.025,447.66
649.479,449.801
650.934,448.935
652.388,462.165
653.842,476.992
655.296,473.123
656.75,466.451
658.205,467.441
659.659,474.163
661.113,474.869
662.567,452.37
664.022,435.726
665.476,472.332
666.93,462.979
668.384,447.014
669.838,450.16
671.293,477.759
672.747,470.667
674.201,467.391
675.655,467.087
677.109,450.945
678.564,454.421
680.018,475.626
681.472,474.451
682.926,463.225
684.381,459.096
685.835,460.95
687.289,470.977
688.743,478.935
690.198,501.888
691.652,482.739
693.106,460.387
694.56,472.043
696.014,476.444
697.469,477.596
698.923,470.834
700.377,479.041
701.831,472.635
703.285,475.838
704.74,487.625
706.194,477.53
707.648,466.346
709.102,476.875
710.557,462.813
712.011,490.228
713.465,478.338
714.919,466.047
716.373,470.753
717.828,487.367
719.282,478.594
720.736,459.493
722.19,478.329
723.645,480.964
725.099,463.497
726.553,455.87
728.007,466.501
729.461,471.045
730.916,487.79
732.37,489.448
733.824,494.265
735.278,488.571
736.732,470.891
738.187,483.117
739.641,510.451
741.095,494.704
742.549,496.623
744.004,493.368
745.458,493.275
746.912,490.564
748.366,492.763
749.82,486.587
751.275,500.727
752.729,489.844
754.183,494.357
755.637,508.018
757.092,509.78
758.546,507.81
760,513.597
761.454,507.405
762.908,495.911
764.363,496.081
765.817,518.625
767.271,531.056
768.725,492.382
770.18,483.546
771.634,489.838
773.088,493.895
774.542,499.115
775.996,499.52
777.451,495.061
778.905,508.669
780.359,508.022
781.813,491.348
783.268,486.36
784.722,492.147
786.176,494.771
787.63,486.413
789.084,479.57
790.539,484.597
791.993,490.224
793.447,488.99
794.901,494.414
796.355,510.777
797.81,508.774
799.264,496.415
800.718,505.086
802.172,509.087
803.627,489.366
805.081,491.318
806.535,495.048
807.989,482.44
809.443,506.072
810.898,507.39
812.352,502.408
813.806,512.878
815.26,509.26
816.715,501.874
818.169,504.811
819.623,492.548
821.077,495.202
822.531,516.682
823.986,520.662
825.44,528.679
826.894,531.223
828.348,533.065
829.802,521.695
831.257,538.439
832.711,550.798
834.165,536.957
835.619,537.675
837.074,535.445
838.528,530.571
839.982,551.955
841.436,552.898
842.891,545.586
844.345,551.83
845.799,562.705
847.253,557.645
848.707,548.806
850.162,540.503
851.616,549.482
853.07,539.676
854.524,548.621
855.978,546.08
857.433,550.021
858.887,553.836
860.341,541.01
861.795,544.64
863.25,538.073
864.704,536.671
866.158,524.126
867.612,520.171
869.066,521.816
870.521,534.762
871.975,536.513
873.429,555.252
874.883,544.818
876.338,541.843
877.792,549.456
879.246,550.463
880.7,552.163
882.154,550.489
883.609,562.679
885.063,575.294
886.517,557.919
887.971,557.523
889.425,548.934
890.88,552.718
892.334,562.892
893.788,551.913
895.242,556.372
896.697,547.005
898.151,563.518
899.605,567.875
901.059,567.824
902.513,575.161
903.968,562.61
905.422,579.155
906.876,586.076
908.33,576.901
909.785,581.496
911.239,594.194
912.693,598.514
914.147,590.224
915.601,591.296
917.056,583.9
918.51,607.592
919.964,606.592
921.418,601.295
922.873,611.293
924.327,612.959
925.781,605.635
927.235,609.549
928.689,597.292
930.144,595.961
931.598,611.499
933.052,633.044
934.506,636.48
935.961,626.224
937.415,657.216
938.869,653.55
940.323,656.601
941.777,648.721
943.232,622.455
944.686,612.441
946.14,620.516
947.594,634.473
949.048,620.956
950.503,642.751
951.957,626.222
953.411,623.115
954.865,618.877
956.32,616.413
957.774,622.506
959.228,614.123
960.682,585.754
962.136,594.82
963.591,590.084
965.045,588.519
966.499,597.054
967.953,594.019
969.408,586.429
970.862,597.781
972.316,596.196
973.77,579.611
975.224,593.488
976.679,588.137
978.133,606.418
979.587,614.723
981.041,618.998
982.495,610.127
983.95,586.621
985.404,610.094
986.858,593.29
988.312,595.314
989.767,593.787
991.221,605.628
992.675,621.191
994.129,611.388
995.583,578.796
997.038,589.986
998.492,630.611
999.946,609.526
1001.4,605.5
1002.85,611.985
1004.31,639.556
1005.76,642.034
1007.22,625.318
1008.67,633.741
1010.13,630.887
1011.58,618.547
1013.03,624.354
1014.49,635.869
1015.94,642.439
1017.4,633.417
1018.85,638.335
1020.31,650.902
1021.76,664.216
1023.21,685.7
1024.67,681.014
1026.12,662.87
1027.58,678.392
1029.03,712.83
1030.48,690.682
1031.94,673.066
1033.39,700.229
1034.85,713.538
1036.3,716.938
1037.76,715.506
1039.21,706.717
1040.66,716.36
1042.12,727.573
1043.57,745.632
1045.03,725.3
1046.48,730.889
1047.94,723.407
1049.39,759.192
1050.84,765.515
1052.3,760.082
1053.75,771.11
1055.21,776.322
1056.66,813.048
1058.11,802.829
1059.57,827.4
1061.02,828.219
1062.48,805.588
1063.93,811.435
1065.39,823.818
1066.84,846.748
1068.29,847.424
1069.75,840.825
1071.2,848.127
1072.66,868.933
1074.11,879.412
1075.57,888.746
1077.02,884.679
1078.47,864.651
1079.93,869.724
1081.38,894.936
1082.84,905.168
1084.29,885.05
1085.75,887.499
1087.2,891.241
1088.65,892.048
1090.11,897.627
1091.56,897.343
1093.02,889.134
1094.47,892.177
1095.92,878.778
1097.38,864.342
1098.83,861.549
1100.29,882.717
1101.74,889.771
1103.2,859.849
1104.65,846.53
1106.1,846.105
1107.56,847.321
1109.01,872.973
1110.47,872.192
1111.92,854.391
1113.38,837.93
1114.83,832.073
1116.28,838.537
1117.74,835.697
1119.19,832.802
1120.65,841.284
1122.1,831.206
1123.55,829.133
1125.01,810.204
1126.46,811.609
1127.92,815.662
1129.37,820.539
1130.83,823.526
1132.28,821.823
1133.73,817.012
1135.19,802.528
1136.64,800.071
1138.1,791.389
1139.55,792.061
1141.01,792.284
1142.46,794.153
1143.91,796.844
1145.37,795.763
1146.82,804.776
1148.28,801.047
1149.73,788.102
1151.18,772.033
1152.64,784.138
1154.09,804.308
1155.55,796.681
1157,780.781
1158.46,784.754
1159.91,787.86
1161.36,788.793
1162.82,774.616
1164.27,787.204
1165.73,772.041
1167.18,776.858
1168.64,776.016
1170.09,762.976
1171.54,784.456
1173,818.758
1174.45,805.961
1175.91,763.326
1177.36,790.101
1178.82,810.787
1180.27,803.257
1181.72,804.751
1183.18,808.172
1184.63,805.438
1186.09,803.572
1187.54,818.819
1188.99,797.089
1190.45,827.823
1191.9,821.199
1193.36,817.083
1194.81,808.478
1196.27,811.427
1197.72,821.897
1199.17,830.74
1200.63,817.554
1202.08,814.645
1203.54,824.603
1204.99,810.434
1206.45,813.785
1207.9,818.039
1209.35,831.416
1210.81,838.972
1212.26,830.02
1213.72,823.741
1215.17,817.098
1216.62,834.255
1218.08,860.543
1219.53,843.478
1220.99,853.881
1222.44,879.195
1223.9,865.738
1225.35,860.875
1226.8,860.679
1228.26,841.995
1229.71,873.767
1231.17,873.083
1232.62,856.296
1234.08,881.581
1235.53,887.943
1236.98,884.857
1238.44,884.108
1239.89,885.572
1241.35,883.247
1242.8,890.388
1244.25,899.845
1245.71,917.04
1247.16,894.581
1248.62,937.859
1250.07,939.264
1251.53,951.859
1252.98,949.725
1254.43,940.704
1255.89,954.814
1257.34,974.375
1258.8,944.849
1260.25,978.303
1261.71,992.526
1263.16,1003.04
1264.61,1005
1266.07,1009.43
1267.52,1041.59
1268.98,1049.41
1270.43,1051.71
1271.89,1073.92
1273.34,1096.72
1274.79,1095.13
1276.25,1092.58
1277.7,1117.4
1279.16,1187.78
1280.61,1186.28
1282.06,1210.66
1283.52,1224.39
1284.97,1233.66
1286.43,1262.08
1287.88,1316.22
1289.34,1363.1
1290.79,1360.31
1292.24,1395.79
1293.7,1429.95
1295.15,1473.41
1296.61,1505.15
1298.06,1544.52
1299.52,1627.36
1300.97,1680.4
1302.42,1723.85
1303.88,1810.13
1305.33,1886.9
1306.79,1921.22
1308.24,2076.39
1309.69,2082.58
1311.15,2168.62
1312.6,2259.88
1314.06,2377.43
1315.51,2447.31
1316.97,2508.78
1318.42,2623.16
1319.87,2744.66
1321.33,2835.38
1322.78,2935.41
1324.24,2993.59
1325.69,3082.14
1327.15,3091.1
1328.6,3112.9
1330.05,3124.69
1331.51,3171.78
1332.96,3206.52
1334.42,3194.11
1335.87,3141.63
1337.32,3076.84
1338.78,3044.53
1340.23,2944.86
1341.69,2875.16
1343.14,2771.41
1344.6,2694.49
1346.05,2583.96
1347.5,2517.47
1348.96,2426.82
1350.41,2303.12
1351.87,2204.76
1353.32,2148.76
1354.78,2057.52
1356.23,1968.18
1357.68,1889.23
1359.14,1848.74
1360.59,1751.02
1362.05,1735.1
1363.5,1662.5
1364.96,1594.61
1366.41,1556.38
1367.86,1530.46
1369.32,1498.75
1370.77,1471.76
1372.23,1455.98
1373.68,1432.47
1375.13,1404.47
1376.59,1382.9
1378.04,1347.12
1379.5,1332.2
1380.95,1325.26
1382.41,1316.15
1383.86,1288.77
1385.31,1261.02
1386.77,1268.68
1388.22,1278.66
1389.68,1264.51
1391.13,1228.37
1392.59,1243.5
1394.04,1225.56
1395.49,1203.36
1396.95,1208.45
1398.4,1189.79
1399.86,1182.07
1401.31,1186.43
1402.76,1175.73
1404.22,1175.98
1405.67,1166.04
1407.13,1157.75
1408.58,1169.6
1410.04,1169.04
1411.49,1206.45
1412.94,1178.67
1414.4,1208.71
1415.85,1168.29
1417.31,1172.55
1418.76,1199.81
1420.22,1182.34
1421.67,1156.25
1423.12,1186.34
1424.58,1210.47
1426.03,1181.89
1427.49,1199.22
1428.94,1227.84
1430.4,1239.86
1431.85,1251.01
1433.3,1237.64
1434.76,1223.45
1436.21,1263.87
1437.67,1273.42
1439.12,1253.28
1440.57,1258.7
1442.03,1293.45
1443.48,1308.22
1444.94,1295.2
1446.39,1294.29
1447.85,1302.25
1449.3,1306.85
1450.75,1303.17
1452.21,1316.08
1453.66,1338.51
1455.12,1337.1
1456.57,1376.67
1458.03,1406.74
1459.48,1407.36
1460.93,1423.79
1462.39,1403.06
1463.84,1428.8
1465.3,1424.84
1466.75,1484.72
1468.2,1460.72
1469.66,1527.89
1471.11,1525.41
1472.57,1551.69
1474.02,1584.62
1475.48,1616.54
1476.93,1633.25
1478.38,1635.04
1479.84,1658.55
1481.29,1700.75
1482.75,1756.98
1484.2,1764.59
1485.66,1784.38
1487.11,1735.15
1488.56,1834.01
1490.02,1861.24
1491.47,1939.37
1492.93,1949.78
1494.38,2019.16
1495.83,2062.08
1497.29,2113.91
1498.74,2156.64
1500.2,2196.53
1501.65,2270.75
1503.11,2357.89
1504.56,2466.38
1506.01,2533.34
1507.47,2660.89
1508.92,2777.08
1510.38,2821.37
1511.83,2963.98
1513.29,3077.2
1514.74,3251.8
1516.19,3450.81
1517.65,3621.86
1519.1,3833.45
1520.56,4041.38
1522.01,4292
1523.46,4625.77
1524.92,4918.23
1526.37,5269.54
1527.83,5697.69
1529.28,6172.26
1530.74,6633.37
1532.19,7245.52
1533.64,7778.35
1535.1,8452.91
1536.55,9203.14
1538.01,9933.89
1539.46,10742.1
1540.92,11649.6
1542.37,12591.9
1543.82,13526.2
1545.28,14551.3
1546.73,15589.3
1548.19,16718.8
1549.64,17943.5
1551.1,19128
1552.55,20367.8
1554,21800.4
1555.46,23107.7
1556.91,24225.3
1558.37,25267.9
1559.82,26153.3
1561.27,26608.6
1562.73,26601.5
1564.18,26250
1565.64,25671.6
1567.09,24725.5
1568.55,23632.2
1570,22427.7
1571.45,21088.4
1572.91,19700.7
1574.36,18420.6
1575.82,16843.9
1577.27,15642.4
1578.73,14317.7
1580.18,13009.2
1581.63,11973.4
1583.09,10942.2
1584.54,10064.7
1586,9250.97
1587.45,8519.44
1588.9,7943.35
1590.36,7397.45
1591.81,6882.66
1593.27,6551.04
1594.72,6063.1
1596.18,5747.08
1597.63,5504.8
1599.08,5153.09
1600.54,4892.23
1601.99,4676.63
1603.45,4424.28
1604.9,4196.38
1606.36,4037.34
1607.81,3874.37
1609.26,3623.06
1610.72,3451.56
1612.17,3336.66
1613.63,3181.81
1615.08,2980.67
1616.54,2850.97
1617.99,2699.9
1619.44,2620.43
1620.9,2487.26
1622.35,2401.4
1623.81,2357.6
1625.26,2285.92
1626.71,2188.42
1628.17,2152.65
1629.62,2067.37
1631.08,2009.7
1632.53,1962.52
1633.99,1908.57
1635.44,1877.27
1636.89,1838.11
1638.35,1787.68
1639.8,1753.93
1641.26,1720.54
1642.71,1679.72
1644.17,1642.43
1645.62,1648.65
1647.07,1589.43
1648.53,1593.62
1649.98,1540.41
1651.44,1523.94
1652.89,1510.3
1654.34,1489.88
1655.8,1430.74
1657.25,1434.93
1658.71,1440.65
1660.16,1441.66
1661.62,1398.9
1663.07,1383.74
1664.52,1371.69
1665.98,1329.62
1667.43,1297.06
1668.89,1287.54
1670.34,1290.07
1671.8,1278.83
1673.25,1291.59
1674.7,1240.96
1676.16,1208.22
1677.61,1234.12
1679.07,1225.37
1680.52,1194.56
1681.97,1213.84
1683.43,1204.61
1684.88,1198.93
1686.34,1217.87
1687.79,1191.34
1689.25,1199.69
1690.7,1216.55
1692.15,1219.63
1693.61,1204.31
1695.06,1220.96
1696.52,1215
1697.97,1217.91
1699.43,1231.21
1700.88,1242.41
1702.33,1230.42
1703.79,1263.2
1705.24,1192.47
1706.7,1228.75
1708.15,1210.8
1709.6,1178.59
1711.06,1167.99
1712.51,1168.41
1713.97,1148.81
1715.42,1152.26
1716.88,1145.68
1718.33,1140.38
1719.78,1136.36
1721.24,1124.53
1722.69,1124.32
1724.15,1122.09
1725.6,1101.5
1727.06,1084.7
1728.51,1086.17
1729.96,1077.89
1731.42,1053.34
1732.87,1078.52
1734.33,1110.54
1735.78,1086.73
1737.24,1067.63
1738.69,1109.59
1740.14,1106.81
1741.6,1092.73
1743.05,1052.15
1744.51,1059.15
1745.96,1071.89
1747.41,1060.69
1748.87,1035.89
1750.32,1028.93
1751.78,1041.45
1753.23,1020.23
1754.69,993.735
1756.14,987.594
1757.59,995.17
1759.05,988.173
1760.5,989.915
1761.96,989.919
1763.41,982.573
1764.87,960.659
1766.32,966.659
1767.77,971.74
1769.23,961.954
1770.68,930.044
1772.14,924.369
1773.59,954.658
1775.04,898.79
1776.5,914.246
1777.95,898.058
1779.41,924.036
1780.86,867.82
1782.32,894.695
1783.77,908.805
1785.22,922.64
1786.68,885.692
1788.13,871.332
1789.59,893.391
1791.04,912.715
1792.5,909.06
1793.95,875.482
1795.4,850.333
1796.86,853.82
1798.31,856.355
1799.77,844.717
1801.22,863.882
1802.68,871.604
1804.13,861.114
1805.58,861.082
1807.04,880.512
1808.49,871.141
1809.95,834.846
1811.4,864.516
1812.85,867.82
1814.31,884.423
1815.76,862.758
1817.22,863.513
1818.67,838.612
1820.13,857.66
1821.58,883.957
1823.03,874.219
1824.49,862.354
1825.94,868.14
1827.4,843.978
1828.85,848.991
1830.31,850.868
1831.76,895.968
1833.21,883.079
1834.67,871.768
1836.12,869.907
1837.58,878.719
1839.03,894.682
1840.48,902.301
1841.94,897.106
1843.39,882.45
1844.85,898.433
1846.3,911.073
1847.76,936.397
1849.21,910.5
1850.66,908.64
1852.12,903.321
1853.57,910.87
1855.03,946.972
1856.48,926.388
1857.94,901.299
1859.39,900.856
1860.84,920.991
1862.3,903.638
1863.75,928.408
1865.21,910.118
1866.66,930.933
1868.11,917.706
1869.57,905.342
1871.02,913.416
1872.48,919.407
1873.93,908.093
1875.39,906.27
1876.84,900.018
1878.29,889.341
1879.75,888.17
1881.2,872.557
1882.66,889.584
1884.11,896.099
1885.57,894.889
1887.02,893.217
1888.47,887.664
1889.93,872.181
1891.38,860.532
1892.84,859.474
1894.29,864.714
1895.75,852.222
1897.2,853.263
1898.65,850.808
1900.11,839.813
1901.56,839.504
1903.02,812.612
1904.47,831.143
1905.92,809.832
1907.38,815.787
1908.83,793.639
1910.29,832.615
1911.74,819.599
1913.2,817.815
1914.65,812.864
1916.1,806.826
1917.56,793.94
1919.01,819.417
1920.47,814.911
1921.92,811.981
1923.38,818.858
1924.83,808.242
1926.28,818.274
1927.74,813.142
1929.19,817.941
1930.65,813.193
1932.1,810.231
1933.55,806.661
1935.01,814.01
1936.46,796.625
1937.92,809.249
1939.37,814.736
1940.83,821.977
1942.28,831.728
1943.73,842.74
1945.19,834.405
1946.64,802.536
1948.1,790.742
1949.55,809.708
1951.01,818.793
1952.46,808.116
1953.91,798.835
1955.37,812.078
1956.82,822.839
1958.28,826.061
1959.73,819.526
1961.18,827.303
1962.64,842.821
1964.09,855.277
1965.55,835.115
1967,832.719
1968.46,843.132
1969.91,835.117
1971.36,840.045
1972.82,858.812
1974.27,849.254
1975.73,851.583
1977.18,837.557
1978.64,835.358
1980.09,842.449
1981.54,851.606
1983,848.602
1984.45,858.555
1985.91,861.454
1987.36,892.712
1988.82,875.415
1990.27,868.761
1991.72,847.718
1993.18,835.645
1994.63,850.223
1996.09,830.385
1997.54,844.585
1998.99,867.767
2000.45,840.73
2001.9,830.028
2003.36,849.414
2004.81,840.666
2006.27,848.49
2007.72,856.876
2009.17,855.772
2010.63,838.271
2012.08,838.852
2013.54,818.916
2014.99,825.126
2016.45,822.972
2017.9,841.902
2019.35,818.181
2020.81,821.446
2022.26,820.321
2023.72,842.907
2025.17,819.626
2026.62,814.862
2028.08,812.481
2029.53,819.243
2030.99,822.704
2032.44,809.247
2033.9,801.932
2035.35,786.224
2036.8,802.699
2038.26,791.022
2039.71,786.382
2041.17,785.054
2042.62,774.366
2044.08,769.71
2045.53,759.048
2046.98,773.264
2048.44,727.893
2049.89,721.825
2051.35,723.584
2052.8,739.721
2054.25,733.059
2055.71,735.222
2057.16,748.612
2058.62,760.044
2060.07,754.541
2061.53,723.624
2062.98,734.338
2064.43,724.958
2065.89,731.097
2067.34,714.64
2068.8,712.967
2070.25,709.599
2071.71,725.62
2073.16,732.016
2074.61,721.132
2076.07,729.287
2077.52,728.64
2078.98,711.549
2080.43,719.289
2081.89,731.14
2083.34,729.793
2084.79,728.897
2086.25,736.896
2087.7,732.848
2089.16,733.957
2090.61,729.256
2092.06,729.652
2093.52,736.818
2094.97,734.566
2096.43,720.692
2097.88,721.561
2099.34,728.664
2100.79,731.683
2102.24,737.789
2103.7,747.91
2105.15,736.43
2106.61,714.784
2108.06,700.011
2109.52,710.98
2110.97,713.693
2112.42,690.762
2113.88,704.853
2115.33,732.361
2116.79,736.532
2118.24,736.956
2119.69,747.63
2121.15,734.392
2122.6,726.432
2124.06,711.012
2125.51,719.256
2126.97,731.91
2128.42,725.488
2129.87,722.225
2131.33,717.076
2132.78,727.05
2134.24,734.945
2135.69,727.96
2137.15,750.764
2138.6,747.551
2140.05,757.117
2141.51,752.946
2142.96,755.534
2144.42,756.206
2145.87,753.615
2147.32,754.085
2148.78,763.961
2150.23,757.381
2151.69,755.696
2153.14,769.248
2154.6,763.711
2156.05,758.225
2157.5,756.017
2158.96,775.315
2160.41,767.748
2161.87,763.513
2163.32,753.625
2164.78,754.938
2166.23,765.565
2167.68,753.459
2169.14,764.684
2170.59,765.88
2172.05,773.3
2173.5,779.645
2174.96,792.472
2176.41,788.773
2177.86,787.905
2179.32,774.612
2180.77,790.141
2182.23,787.965
2183.68,800.542
2185.13,789.534
2186.59,769.586
2188.04,791.152
2189.5,798.011
2190.95,792.073
2192.41,807.507
2193.86,801.368
2195.31,820.233
2196.77,814.124
2198.22,806.435
2199.68,834.92
2201.13,827.868
2202.59,798.056
2204.04,835.504
2205.49,804.472
2206.95,792.284
2208.4,839.64
2209.86,840.625
2211.31,823.022
2212.76,854.764
2214.22,822.635
2215.67,811.381
2217.13,774.995
2218.58,814.843
2220.04,816.716
2221.49,799.101
2222.94,800.368
2224.4,807.722
2225.85,803.986
2227.31,825.697
2228.76,830.385
2230.22,782.84
2231.67,805.106
2233.12,829.933
2234.58,844.901
2236.03,864.884
2237.49,839.599
2238.94,853.137
2240.4,845.283
2241.85,846.312
2243.3,844.754
2244.76,856.079
2246.21,848.71
2247.67,852.46
2249.12,844.775
2250.57,849.539
2252.03,868.944
2253.48,856.724
2254.94,840.694
2256.39,857.224
2257.85,871.379
2259.3,881.514
2260.75,866.768
2262.21,864.482
2263.66,861.496
2265.12,866.912
2266.57,883.863
2268.03,853.291
2269.48,848.933
2270.93,857.951
2272.39,871.492
2273.84,898.547
2275.3,901.866
2276.75,887.803
2278.2,898.201
2279.66,884.941
2281.11,888.225
2282.57,880.848
2284.02,872.902
2285.48,895.726
2286.93,941.314
2288.38,902.411
2289.84,921.41
2291.29,931.528
2292.75,924.364
2294.2,936.769
2295.66,946.811
2297.11,961.337
2298.56,939.423
2300.02,940.775
2301.47,956.286
2302.93,938.096
2304.38,935.405
2305.83,950.093
2307.29,963.457
2308.74,974.826
2310.2,961.193
2311.65,987.797
2313.11,979.122
2314.56,961.675
2316.01,963.477
2317.47,975.045
2318.92,994.127
2320.38,991.38
2321.83,992.724
2323.29,993.301
2324.74,1037.54
2326.19,1021.98
2327.65,1049.95
2329.1,1044.04
2330.56,1045.15
2332.01,1024.12
2333.47,1047.6
2334.92,1060.27
2336.37,1042.37
2337.83,1071.97
2339.28,1055.96
2340.74,1079.29
2342.19,1066.45
2343.64,1044.54
2345.1,1070.5
2346.55,1091.74
2348.01,1072.99
2349.46,1134.73
2350.92,1104.85
2352.37,1125.56
2353.82,1124.97
2355.28,1119.64
2356.73,1140.55
2358.19,1175.88
2359.64,1161.92
2361.1,1168.2
2362.55,1193.28
2364,1212.96
2365.46,1220.53
2366.91,1248.16
2368.37,1247.88
2369.82,1271.73
2371.27,1308.97
2372.73,1323.48
2374.18,1350.29
2375.64,1352.05
2377.09,1365.14
2378.55,1370.49
2380,1422.15
2381.45,1423.62
2382.91,1455.91
2384.36,1500.47
2385.82,1529.02
2387.27,1538.62
2388.73,1555.05
2390.18,1547
2391.63,1601.89
2393.09,1621.23
2394.54,1648.43
2396,1682.89
2397.45,1739.65
2398.9,1726.64
2400.36,1751.92
2401.81,1800.27
2403.27,1866.64
2404.72,1889.71
2406.18,1909.33
2407.63,1947.82
2409.08,1981.85
2410.54,1977.3
2411.99,2004.13
2413.45,1972.92
2414.9,1992.81
2416.36,2019.64
2417.81,2080.71
2419.26,2046.46
2420.72,2073.48
2422.17,2074.19
2423.63,2134.89
2425.08,2105.68
2426.53,2076.8
2427.99,2080.22
2429.44,2109.64
2430.9,2087.14
2432.35,2090.4
2433.81,2060.58
2435.26,2066.77
2436.71,2072.79
2438.17,2053.6
2439.62,2038.2
2441.08,2011.48
2442.53,2001.95
2443.99,2015.26
2445.44,2016.98
2446.89,2021.92
2448.35,2005.25
2449.8,1982.94
2451.26,1968.2
2452.71,1945.45
2454.17,1924.8
2455.62,1951.86
2457.07,1880.66
2458.53,1867.02
2459.98,1892.82
2461.44,1897.49
2462.89,1890.6
2464.34,1872.43
2465.8,1850.95
2467.25,1827.76
2468.71,1852.16
2470.16,1851.86
2471.62,1818.92
2473.07,1832.07
2474.52,1815.26
2475.98,1792.81
2477.43,1801.01
2478.89,1834.07
2480.34,1795.74
2481.8,1828.23
2483.25,1817.58
2484.7,1783.91
2486.16,1800.02
2487.61,1814
2489.07,1810.69
2490.52,1804.81
2491.97,1776.27
2493.43,1803.22
2494.88,1811.48
2496.34,1837.7
2497.79,1860.56
2499.25,1853.84
2500.7,1838.82
2502.15,1822.65
2503.61,1875.73
2505.06,1873.89
2506.52,1874.89
2507.97,1909.63
2509.43,1894.22
2510.88,1868.61
2512.33,1917.49
2513.79,1953.41
2515.24,1967.2
2516.7,1959.32
2518.15,1963.9
2519.6,1970.08
2521.06,1992.77
2522.51,2046.4
2523.97,2033.19
2525.42,2058.63
2526.88,2040.26
2528.33,2058.84
2529.78,2078.72
2531.24,2090.41
2532.69,2098.03
2534.15,2150.6
2535.6,2189.11
2537.06,2195.29
2538.51,2220.63
2539.96,2239.81
2541.42,2271.06
2542.87,2287.09
2544.33,2358.05
2545.78,2361.87
2547.24,2387.31
2548.69,2454.61
2550.14,2491.97
2551.6,2523.61
2553.05,2595.53
2554.51,2607.51
2555.96,2652.98
2557.41,2729.59
2558.87,2773.46
2560.32,2789.62
2561.78,2846.64
2563.23,2910.64
2564.69,2960.99
2566.14,3065.73
2567.59,3093.43
2569.05,3201.73
2570.5,3240.69
2571.96,3301.37
2573.41,3385.31
2574.87,3455.2
2576.32,3554.27
2577.77,3661.81
2579.23,3721.95
2580.68,3836.79
2582.14,3943.8
2583.59,4060.72
2585.04,4185.33
2586.5,4305.73
2587.95,4413.19
2589.41,4617.65
2590.86,4708.82
2592.32,4905.2
2593.77,5069.48
2595.22,5228.27
2596.68,5347.17
2598.13,5569.4
2599.59,5797.63
2601.04,5994.65
2602.5,6213.58
2603.95,6431.37
2605.4,6682.28
2606.86,7009.52
2608.31,7271.85
2609.77,7470.11
2611.22,7799.23
2612.68,8170.39
2614.13,8437.9
2615.58,8786.66
2617.04,9690.49
2618.49,9613.49
2619.95,9887.19
2621.4,10326.4
2622.85,10730.8
2624.31,11126.1
2625.76,11481.6
2627.22,11948.8
2628.67,12329.5
2630.13,12821.1
2631.58,13299.8
2633.03,13759.9
2634.49,14165.9
2635.94,14668.1
2637.4,15155.6
2638.85,15457.2
2640.31,15826.4
2641.76,16156.7
2643.21,16572.5
2644.67,17013.3
2646.12,17299.6
2647.58,17521.1
2649.03,17682.1
2650.48,17914.2
2651.94,18015.4
2653.39,18268.2
2654.85,18319.4
2656.3,18297.9
2657.76,18322.4
2659.21,18312.8
2660.66,18255
2662.12,18013.8
2663.57,17907.3
2665.03,17674.3
2666.48,17383
2667.94,17066.1
2669.39,16861.2
2670.84,16457.3
2672.3,15964.5
2673.75,15645.9
2675.21,15233.3
2676.66,14810.7
2678.11,14362.9
2679.57,13947.2
2681.02,13454.6
2682.48,13075.3
2683.93,12587
2685.39,12185.5
2686.84,11707.3
2688.29,11327.2
2689.75,10855.8
2691.2,10456.2
2692.66,10049.5
2694.11,9623.31
2695.57,9285.38
2697.02,8798.35
2698.47,8515.92
2699.93,8097.92
2701.38,7757.24
2702.84,7402.6
2704.29,7126.3
2705.75,6889.63
2707.2,6593.42
2708.65,6259.58
2710.11,6063.36
2711.56,5850.4
2713.02,5504.53
2714.47,5318.08
2715.92,5102.77
2717.38,5023.45
2718.83,4798.92
2720.29,4619.68
2721.74,4440.6
2723.2,4332.34
2724.65,4198.5
2726.1,4032.23
2727.56,3900.53
2729.01,3783.61
2730.47,3666.84
2731.92,3550.74
2733.38,3498
2734.83,3403.59
2736.28,3280.57
2737.74,3179.2
2739.19,3065.5
2740.65,3022.85
2742.1,2979.28
2743.55,2906.89
2745.01,2814.23
2746.46,2773.26
2747.92,2696.47
2749.37,2641.42
2750.83,2597.43
2752.28,2505.21
2753.73,2465.26
2755.19,2465.6
2756.64,2393.55
2758.1,2337.2
2759.55,2278.4
2761.01,2290.34
2762.46,2253.17
2763.91,2191.7
2765.37,2181.33
2766.82,2130.63
2768.28,2084.75
2769.73,2095.45
2771.18,2006.14
2772.64,1998.91
2774.09,1991.35
2775.55,1961.64
2777,1904.53
2778.46,1924.79
2779.91,1912.24
2781.36,1863.85
2782.82,1810.67
2784.27,1813.63
2785.73,1821.41
2787.18,1801.31
2788.64,1799.18
2790.09,1748.48
2791.54,1731.49
2793,1742.08
2794.45,1712.29
2795.91,1700.04
2797.36,1666.44
2798.82,1690.55
2800.27,1648.14
2801.72,1637.94
2803.18,1611.53
2804.63,1644.23
2806.09,1623.95
2807.54,1618.38
2808.99,1599.67
2810.45,1561.7
2811.9,1556.19
2813.36,1528.45
2814.81,1519.57
2816.27,1534.71
2817.72,1513.23
2819.17,1506.04
2820.63,1498.79
2822.08,1486.84
2823.54,1481.89
2824.99,1477.53
2826.45,1488.62
2827.9,1496.78
2829.35,1489.74
2830.81,1412.83
2832.26,1413.61
2833.72,1436.65
2835.17,1446.39
2836.62,1420.99
2838.08,1453.4
2839.53,1428.34
2840.99,1381.97
2842.44,1423.03
2843.9,1431.66
2845.35,1410.38
2846.8,1400.29
2848.26,1365.43
2849.71,1418.47
2851.17,1394
2852.62,1392.65
2854.08,1391.14
2855.53,1392.89
2856.98,1385.95
2858.44,1348.41
2859.89,1358.84
2861.35,1406.35
2862.8,1373.77
2864.25,1355.4
2865.71,1356.6
2867.16,1405.29
2868.62,1375.34
2870.07,1350.92
2871.53,1369.3
2872.98,1333.81
2874.43,1389.63
2875.89,1392.43
2877.34,1392.32
2878.8,1387.55
2880.25,1433.3
2881.71,1404.67
2883.16,1383.56
2884.61,1410
2886.07,1393.13
2887.52,1367.19
2888.98,1365.65
2890.43,1394.52
2891.89,1355.1
2893.34,1375.31
2894.79,1407.67
2896.25,1407.05
2897.7,1405.42
2899.16,1411.82
2900.61,1373.83
2902.06,1369.96
2903.52,1364.98
2904.97,1369.27
2906.43,1375.38
2907.88,1382.88
2909.34,1348.88
2910.79,1370.75
2912.24,1331.7
2913.7,1350.21
2915.15,1323.2
2916.61,1290.13
2918.06,1281.21
2919.52,1317.42
2920.97,1312.22
2922.42,1307.37
2923.88,1273.09
2925.33,1252.94
2926.79,1275.16
2928.24,1247.34
2929.69,1254.18
2931.15,1254.26
2932.6,1218.07
2934.06,1191.82
2935.51,1209.98
2936.97,1227.68
2938.42,1176.98
2939.87,1188.61
2941.33,1166.37
2942.78,1199.57
2944.24,1108.21
2945.69,1158.94
2947.15,1127.59
2948.6,1138.8
2950.05,1112.51
2951.51,1092.14
2952.96,1082.13
2954.42,1057.84
2955.87,1055.95
2957.32,1055.99
2958.78,1049.74
2960.23,1043.02
2961.69,1028.92
2963.14,1032.91
2964.6,1009.5
2966.05,1021.74
2967.5,977.196
2968.96,978.568
2970.41,997.952
2971.87,976.928
2973.32,984.948
2974.78,982.002
2976.23,957.779
2977.68,959.216
2979.14,946.139
2980.59,916.014
2982.05,943.629
2983.5,957.263
2984.96,935.952
2986.41,925.081
2987.86,936.215
2989.32,902.103
2990.77,902.497
2992.23,889.053
2993.68,916.855
2995.13,906.767
2996.59,918.155
2998.04,906.69
2999.5,918.109
3000.95,906.43
3002.41,912.752
3003.86,906.637
3005.31,918.615
3006.77,884.517
3008.22,896.373
3009.68,894.859
3011.13,865.13
3012.59,858.185
3014.04,874.524
3015.49,882.151
3016.95,892.657
3018.4,883.419
3019.86,887.732
3021.31,869.43
3022.76,879.501
3024.22,864.488
3025.67,870.242
3027.13,875.513
3028.58,855.646
3030.04,863.985
3031.49,883.901
3032.94,870.716
3034.4,855.518
3035.85,853.586
3037.31,834.368
3038.76,861.114
3040.22,855.246
3041.67,865.229
3043.12,852.555
3044.58,850.936
3046.03,854.971
3047.49,857.547
3048.94,840.414
3050.4,876.072
3051.85,875.433
3053.3,857.749
3054.76,887.264
3056.21,872.851
3057.67,903.886
3059.12,887.131
3060.57,886.18
3062.03,902.636
3063.48,866.727
3064.94,895.381
3066.39,891.869
3067.85,901.668
3069.3,915.008
3070.75,891.645
3072.21,925.835
3073.66,928.677
3075.12,958.869
3076.57,962.896
3078.03,936.01
3079.48,958.765
3080.93,956.643
3082.39,942.551
3083.84,969.455
3085.3,1001.24
3086.75,991.582
3088.2,1000.98
3089.66,1013.23
3091.11,1003.44
3092.57,1008.68
3094.02,1040.72
3095.48,1041.24
3096.93,1102.67
3098.38,1119.38
3099.84,1112.51
3101.29,1103.19
3102.75,1143.58
3104.2,1128.27
3105.66,1159.46
3107.11,1219.34
3108.56,1157.33
3110.02,1220.51
3111.47,1224.47
3112.93,1216.55
3114.38,1246.55
3115.83,1259.34
3117.29,1297.47
3118.74,1309.62
3120.2,1340.07
3121.65,1344.44
3123.11,1343.34
3124.56,1357.59
3126.01,1404.09
3127.47,1406.57
3128.92,1429.49
3130.38,1396.74
3131.83,1415.85
3133.29,1421.48
3134.74,1444.06
3136.19,1441.51
3137.65,1426
3139.1,1433.89
3140.56,1475.2
3142.01,1464.11
3143.47,1461.84
3144.92,1453.81
3146.37,1437.87
3147.83,1435.07
3149.28,1418.5
3150.74,1466.89
3152.19,1450.79
3153.64,1445.9
3155.1,1430.17
3156.55,1441.9
3158.01,1492.43
3159.46,1507.39
3160.92,1458.23
3162.37,1487.86
3163.82,1506.65
3165.28,1502.59
3166.73,1525.23
3168.19,1513.9
3169.64,1581.25
3171.1,1543.4
3172.55,1590.87
3174,1590
3175.46,1609.07
3176.91,1614.44
3178.37,1635.13
3179.82,1670.09
3181.27,1653.36
3182.73,1683.36
3184.18,1691.42
3185.64,1682.91
3187.09,1705.67
3188.55,1711.17
3190,1733.93
3191.45,1787
3192.91,1764.77
3194.36,1821.71
3195.82,1833.55
3197.27,1809.88
3198.73,1745.6
3200.18,1778.79
3201.63,1766.15
3203.09,1762.81
3204.54,1757.13
3206,1706.87
3207.45,1718.83
3208.9,1626.35
3210.36,1642.95
3211.81,1623.34
3213.27,1631.61
3214.72,1577.22
3216.18,1533
3217.63,1521.98
3219.08,1471.17
3220.54,1449.53
3221.99,1400.96
3223.45,1351.08
3224.9,1318.53
3226.36,1266.89
3227.81,1265.18
3229.26,1257.54
3230.72,1195.62
3232.17,1159.74
3233.63,1146.94
3235.08,1136.95
3236.53,1084.86
3237.99,1060.28
3239.44,1017.56
3240.9,1012.92
3242.35,1005.4
3243.81,966.026
3245.26,924.16
3246.71,908.873
3248.17,897.567
3249.62,897.717
3251.08,867.12
3252.53,860.355
3253.99,887.941
3255.44,836.294
3256.89,840.445
3258.35,836.315
3259.8,828.573
3261.26,804.483
3262.71,812.051
3264.17,787.874
3265.62,804.445
3267.07,765.988
3268.53,788.101
3269.98,779.267
3271.44,744.865
3272.89,749.632
3274.34,776.366
3275.8,748.867
3277.25,754.211
3278.71,737.979
3280.16,738.996
3281.62,741.025
3283.07,739.61
3284.52,735.846
3285.98,735.785
3287.43,718.638
3288.89,715.423
3290.34,700.033
3291.8,725.605
3293.25,699.886
3294.7,722.67
3296.16,734.462
3297.61,703.771
3299.07,713.892
3300.52,692.436
3301.97,731.957
3303.43,725.01
3304.88,719.287
3306.34,700.73
3307.79,713.058
3309.25,678.727
3310.7,698.436
3312.15,715.784
3313.61,690.961
3315.06,661.958
3316.52,694.091
3317.97,720.565
3319.43,706.821
3320.88,714.406
3322.33,683.328
3323.79,697.225
3325.24,679.847
3326.7,701.732
3328.15,689.981
3329.6,701.73
3331.06,700.043
3332.51,691.072
3333.97,700.62
3335.42,693.268
3336.88,697.025
3338.33,680.592
3339.78,696.108
3341.24,672.921
3342.69,688.804
3344.15,695.097
3345.6,677.272
3347.06,682.1
3348.51,683.142
3349.96,681.7
3351.42,680.108
3352.87,685.349
3354.33,691.105
3355.78,682.847
3357.24,673.483
3358.69,670.876
3360.14,671.253
3361.6,686.132
3363.05,688.01
3364.51,712.183
3365.96,709.67
3367.41,680.017
3368.87,678.279
3370.32,660.297
3371.78,675.688
3373.23,670.302
3374.69,671.121
3376.14,695.349
3377.59,653.86
3379.05,678.178
3380.5,659.572
3381.96,670.034
3383.41,683.375
3384.87,680.678
3386.32,700.205
3387.77,669.958
3389.23,654.047
3390.68,659.648
3392.14,681.661
3393.59,691.273
3395.04,658.481
3396.5,675.524
3397.95,682.355
3399.41,690.814
3400.86,678.027
3402.32,697.329
3403.77,685.39
3405.22,668.828
3406.68,672.417
3408.13,655.439
3409.59,686.495
3411.04,682.446
3412.5,680.852
3413.95,676.646
3415.4,679.51
3416.86,659.275
3418.31,661.396
3419.77,673.625
3421.22,690.461
3422.68,679.076
3424.13,664.934
3425.58,686.909
3427.04,672.103
3428.49,662.781
3429.95,648.308
3431.4,657.819
3432.85,650.945
3434.31,675.654
3435.76,661.906
3437.22,675.066
3438.67,673.801
3440.13,655.584
3441.58,685.466
3443.03,664.479
3444.49,657.283
3445.94,676.091
3447.4,651.263
3448.85,663.61
3450.31,672.026
3451.76,656.503
3453.21,663.357
3454.67,701.11
3456.12,652.889
3457.58,676.556
3459.03,668.573
3460.48,687.228
3461.94,673.643
3463.39,685.291
3464.85,678.072
3466.3,679.737
3467.76,673.41
3469.21,664.966
3470.66,655.801
3472.12,659.484
3473.57,675.183
3475.03,671.328
3476.48,672.931
3477.94,704.352
3479.39,694.938
3480.84,686.486
3482.3,656.187
3483.75,654.957
3485.21,671.578
3486.66,675.628
3488.11,663.064
3489.57,683.245
3491.02,686.435
3492.48,680.992
3493.93,665.259
3495.39,702.138
3496.84,676.584
3498.29,672.705
3499.75,661.35
3501.2,703.13
3502.66,682.682
3504.11,652.748
3505.57,657.988
3507.02,651.723
3508.47,721.874
3509.93,682.392
3511.38,697.42
3512.84,696.588
3514.29,667.503
3515.75,721.939
3517.2,716.203
3518.65,685.925
3520.11,684.348
3521.56,675.31
3523.02,682.94
3524.47,658.924
3525.92,673.871
3527.38,689.345
3528.83,672.276
3530.29,686.302
3531.74,674.452
3533.2,697.974
3534.65,674.28
3536.1,672.674
3537.56,686.297
3539.01,688.286
3540.47,686.056
3541.92,707.802
3543.38,698.572
3544.83,729.69
3546.28,680.27
3547.74,678.525
3549.19,702.928
3550.65,684.798
3552.1,687.235
3553.55,703.839
3555.01,701.254
3556.46,715.082
3557.92,706.225
3559.37,696.572
3560.83,685.713
3562.28,696.526
3563.73,692.683
3565.19,711.918
3566.64,685.118
3568.1,684.978
3569.55,685.072
3571.01,692.982
3572.46,679.563
3573.91,688.814
3575.37,679.288
3576.82,690.197
3578.28,709.858
3579.73,679.332
3581.18,690.363
3582.64,697.361
3584.09,659.789
3585.55,684.559
3587,694.256
3588.46,690.117
3589.91,708.019
3591.36,699.5
3592.82,672.393
3594.27,706.615
3595.73,676.945
3597.18,698.23
3598.64,708.872
3600.09,703.552
3601.54,685.351
3603,709.871
3604.45,690.061
3605.91,701.046
3607.36,697.228
3608.82,711.412
3610.27,696.963
3611.72,711.577
3613.18,703.263
3614.63,708.474
3616.09,714.527
3617.54,678.904
3618.99,678.278
3620.45,695.592
3621.9,673.418
3623.36,676.497
3624.81,692.579
3626.27,673.771
3627.72,686.359
3629.17,685.337
3630.63,701.262
3632.08,729.05
3633.54,704.498
3634.99,711.794
3636.45,705.965
3637.9,689.471
3639.35,714.172
3640.81,716.048
3642.26,698.499
3643.72,706.568
3645.17,690.715
3646.62,688.649
3648.08,692.687
3649.53,699.259
3650.99,704.303
3652.44,677.834
3653.9,723.518
3655.35,710.099
3656.8,702.757
3658.26,700.013
3659.71,688.533
3661.17,732.136
3662.62,707.408
3664.08,723.172
3665.53,705.22
3666.98,688.866
3668.44,706.113
3669.89,712.608
3671.35,739.44
3672.8,694.478
3674.25,714.857
3675.71,709.011
3677.16,707.306
3678.62,722.496
3680.07,711.142
3681.53,702.169
3682.98,717.56
3684.43,738.877
3685.89,721.776
3687.34,724.448
3688.8,711.763
3690.25,715.714
3691.71,728.45
3693.16,737.373
3694.61,724.807
3696.07,737.256
3697.52,741.191
3698.98,722.783
3700.43,745.942
3701.89,722.222
3703.34,728.596
3704.79,718.909
3706.25,708.298
3707.7,715.336
3709.16,729.132
3710.61,708.513
3712.06,752.44
3713.52,734.692
3714.97,732.904
3716.43,723.996
3717.88,715.982
3719.34,732.137
3720.79,739.618
3722.24,722.46
3723.7,744.957
3725.15,745.981
3726.61,727.265
3728.06,726.849
3729.52,715.206
3730.97,747.776
3732.42,713.31
3733.88,735.763
3735.33,732.924
3736.79,722.664
3738.24,730.028
3739.69,759.661
3741.15,733.474
3742.6,760.864
3744.06,724.722
3745.51,728.222
3746.97,717.346
3748.42,730.344
3749.87,753.264
3751.33,733.79
3752.78,740.402
3754.24,716.407
3755.69,740.641
3757.15,739.721
3758.6,762.025
3760.05,756.484
3761.51,786.852
3762.96,759.573
3764.42,752.62
3765.87,739.081
3767.32,789.4
3768.78,754.657
3770.23,755.689
3771.69,770.717
3773.14,753.626
3774.6,770.654
3776.05,753.153
3777.5,770.179
3778.96,746.228
3780.41,758.095
3781.87,751.885
3783.32,758.798
3784.78,752.722
3786.23,763.524
3787.68,779.438
3789.14,785.814
3790.59,777.129
3792.05,787.044
3793.5,776.797
3794.96,764.646
3796.41,747.395
3797.86,766.566
3799.32,770.115
3800.77,770.136
3802.23,795.955
3803.68,762.124
3805.13,778.621
3806.59,794.353
3808.04,811.65
3809.5,765.647
3810.95,781.153
3812.41,784.271
3813.86,783.335
3815.31,772.347
3816.77,782.828
3818.22,789.671
3819.68,786.59
3821.13,770.977
3822.59,783.987
3824.04,789.197
3825.49,775.729
3826.95,782.206
3828.4,781.036
3829.86,783.621
3831.31,799.79
3832.76,772.062
3834.22,800.67
3835.67,820.471
3837.13,796.458
3838.58,805.755
3840.04,817.997
3841.49,813.351
3842.94,781.022
3844.4,789.958
3845.85,809.492
3847.31,804.66
3848.76,792.24
3850.22,817.286
3851.67,804.425
3853.12,790.852
3854.58,815.228
3856.03,845.02
3857.49,836.846
3858.94,833.525
3860.4,825.271
3861.85,825.236
3863.3,837.479
3864.76,842.271
3866.21,824.818
3867.67,836.898
3869.12,807.915
3870.57,840.924
3872.03,863.949
3873.48,821.251
3874.94,825.917
3876.39,851.574
3877.85,832.495
3879.3,823.294
3880.75,851.257
3882.21,855.924
3883.66,844.071
3885.12,840.731
3886.57,842.834
3888.03,848.605
3889.48,838.052
3890.93,859.888
3892.39,860.961
3893.84,854.536
3895.3,890.025
3896.75,856.207
3898.2,876.392
3899.66,837.414
3901.11,858.071
3902.57,871.1
3904.02,854.037
3905.48,854.862
3906.93,884.647
3908.38,981.171
3909.84,930.992
3911.29,918.819
3912.75,889.736
3914.2,879.095
3915.66,906.38
3917.11,857.865
3918.56,886.554
3920.02,907.94
3921.47,895.096
3922.93,909.653
3924.38,898.21
3925.83,907.038
3927.29,909.259
3928.74,926.445
3930.2,959.125
3931.65,937.823
3933.11,934.986
3934.56,933.384
3936.01,921.813
3937.47,926.49
3938.92,926.695
3940.38,929.771
3941.83,947.024
3943.29,968.775
3944.74,959.216
3946.19,952.518
3947.65,955.262
3949.1,966.542
3950.56,986.005
3952.01,967.039
3953.47,949.185
3954.92,940.259
3956.37,970.874
3957.83,983.072
3959.28,991.907
3960.74,1003.62
3962.19,962.55
3963.64,976.227
3965.1,1016.51
3966.55,1002
3968.01,981.445
3969.46,1021.96
3970.92,1028.49
3972.37,998.898
3973.82,999.533
3975.28,996.164
3976.73,1017
3978.19,1022.69
3979.64,1033.83
3981.1,1049.75
3982.55,1022.35
3984,1008.31
3985.46,1038.6
3986.91,1027.41
3988.37,1019.43
3989.82,1026.66
3991.27,1019.98
3992.73,1055.62
3994.18,1062.69
3995.64,1043.36
3997.09,1023.76
3998.55,1071.73
4000,1043.79
