-50,51.682
-48.5458,52.9856
-47.0916,53.6614
-45.6373,55.3736
-44.1831,55.1288
-42.7289,54.4734
-41.2747,51.0334
-39.8205,47.2106
-38.3662,47.7299
-36.912,51.8626
-35.4578,55.881
-34.0036,53.7493
-32.5494,56.0776
-31.0952,60.3363
-29.6409,61.778
-28.1867,62.002
-26.7325,64.4474
-25.2783,60.2545
-23.8241,68.4132
-22.3698,72.7698
-20.9156,69.0025
-19.4614,71.92
-18.0072,73.2874
-16.553,77.9479
-15.0987,90.52
-13.6445,102.632
-12.1903,117.897
-10.7361,157.19
-9.28187,109.385
-7.82765,109.385
-6.37343,109.385
-4.91921,109.385
-3.46499,109.385
-2.01077,109.385
-0.556553,109.385
0.897666,109.385
2.35189,109.385
3.8061,564.295
5.26032,195.539
6.71454,178.566
8.16876,161.968
9.62298,151.868
11.0772,144.248
12.5314,133.125
13.9856,120.218
15.4399,113.112
16.8941,105.098
18.3483,95.4003
19.8025,88.7677
21.2567,85.5182
22.711,82.1394
24.1652,78.5421
25.6194,77.085
27.0736,76.0608
28.5278,74.8147
29.982,72.7747
31.4363,70.6232
32.8905,67.3643
34.3447,67.3308
35.7989,62.4104
37.2531,61.0133
38.7074,63.5352
40.1616,71.2048
41.6158,80.4522
43.07,88.0312
44.5242,104.851
45.9785,135.274
47.4327,182.079
48.8869,282.648
50.3411,432.906
51.7953,602.576
53.2495,796.061
54.7038,991.814
56.158,1172.68
57.6122,1335.39
59.0664,1451.04
60.5206,1544.75
61.9749,1583.29
63.4291,1628.85
64.8833,1672.23
66.3375,1715.44
67.7917,1709.76
69.246,1731.83
70.7002,1737.57
72.1544,1783.96
73.6086,1826.1
75.0628,1828.78
76.5171,1823.03
77.9713,1879.07
79.4255,1949.03
80.8797,1978.85
82.3339,1946.28
83.7882,1956.85
85.2424,1917.62
86.6966,1863.08
88.1508,1821.8
89.605,1801.39
91.0592,1725.79
92.5135,1657.04
93.9677,1597.75
95.4219,1532.37
96.8761,1494.57
98.3303,1445.73
99.7846,1392.3
101.239,1367.99
102.693,1355.13
104.147,1342.36
105.601,1286.02
107.056,1268.12
108.51,1253.67
109.964,1241.29
111.418,1254.9
112.873,1239.53
114.327,1225.77
115.781,1204.46
117.235,1167.25
118.689,1124.43
120.144,1132.29
121.598,1132.38
123.052,1106.02
124.506,1072.19
125.961,1071.01
127.415,1052.3
128.869,1024.02
130.323,1005.08
131.777,989.504
133.232,1004.17
134.686,964.891
136.14,926.234
137.594,917.702
139.048,916.905
140.503,897.204
141.957,895.395
143.411,890.875
144.865,877.935
146.32,877.496
147.774,851.118
149.228,832.354
150.682,819.992
152.136,809.359
153.591,777.518
155.045,784.46
156.499,785.46
157.953,776.608
159.408,774.346
160.862,781.261
162.316,779.238
163.77,785.634
165.224,785.008
166.679,758.062
168.133,738.944
169.587,756.761
171.041,759.393
172.496,741.075
173.95,728.24
175.404,726.955
176.858,731.707
178.312,733.231
179.767,735.091
181.221,734.898
182.675,744.994
184.129,748.192
185.583,744.478
187.038,733.836
188.492,720.347
189.946,727.453
191.4,739.704
192.855,742.462
194.309,760.308
195.763,769.295
197.217,740.629
198.671,730.725
200.126,734.114
201.58,726.352
203.034,706.696
204.488,690.803
205.943,710.42
207.397,716.763
208.851,710.695
210.305,701.457
211.759,702.619
213.214,698.96
214.668,704.745
216.122,700.204
217.576,687.577
219.031,697.712
220.485,698.388
221.939,704.859
223.393,702.769
224.847,690.518
226.302,714.945
227.756,696.993
229.21,711.662
230.664,717.199
232.118,703.008
233.573,685.698
235.027,701.36
236.481,701.939
237.935,695.777
239.39,699.788
240.844,698.777
242.298,706.52
243.752,702.076
245.206,700.754
246.661,695.791
248.115,701.698
249.569,670.327
251.023,666.681
252.478,669.598
253.932,673.068
255.386,667.003
256.84,676.721
258.294,680.157
259.749,665.447
261.203,669.799
262.657,694.873
264.111,660.062
265.566,671.864
267.02,663.359
268.474,656.8
269.928,671.557
271.382,664.248
272.837,653.103
274.291,652.56
275.745,656.655
277.199,656.663
278.654,649.883
280.108,634.324
281.562,629.642
283.016,636.064
284.47,634.606
285.925,618.715
287.379,633.893
288.833,618.136
290.287,613.199
291.741,616.257
293.196,610.333
294.65,599.557
296.104,592.009
297.558,593.922
299.013,587.328
300.467,581.83
301.921,590.931
303.375,578.943
304.829,583.815
306.284,590.522
307.738,592.934
309.192,579.778
310.646,585.752
312.101,585.249
313.555,583.093
315.009,584.181
316.463,575.105
317.917,578.187
319.372,566.438
320.826,556.736
322.28,554.393
323.734,557.105
325.189,558.684
326.643,551.754
328.097,546.618
329.551,544.781
331.005,548.767
332.46,569.601
333.914,574.479
335.368,552.267
336.822,548.875
338.276,558.089
339.731,548.669
341.185,556.239
342.639,558.515
344.093,559.148
345.548,553.879
347.002,545.122
348.456,567.061
349.91,544.839
351.364,527.759
352.819,532.223
354.273,546.88
355.727,548.518
357.181,529.26
358.636,532.896
360.09,540.923
361.544,545.568
362.998,548.628
364.452,545.869
365.907,547.401
367.361,543.421
368.815,528.448
370.269,513.828
371.724,536.144
373.178,536.65
374.632,540.351
376.086,537.261
377.54,536.514
378.995,547.101
380.449,554.936
381.903,525.425
383.357,526.391
384.811,529.231
386.266,528.308
387.72,547.42
389.174,538.769
390.628,539.189
392.083,538.995
393.537,533.233
394.991,522.234
396.445,536.983
397.899,540.262
399.354,544.937
400.808,544.314
402.262,534.634
403.716,515.093
405.171,547.24
406.625,534.346
408.079,534.929
409.533,536.248
410.987,526.01
412.442,553.175
413.896,549.753
415.35,519.83
416.804,522.583
418.259,545.821
419.713,530.815
421.167,531.195
422.621,538.254
424.075,544.506
425.53,545.86
426.984,545.283
428.438,548.179
429.892,547.467
431.346,561.635
432.801,560.674
434.255,551.113
435.709,550.853
437.163,526.634
438.618,536.181
440.072,543.687
441.526,555.308
442.98,561.072
444.434,556.403
445.889,544.425
447.343,535.7
448.797,541.931
450.251,556.871
451.706,568.218
453.16,551.363
454.614,545.381
456.068,545.132
457.522,543.175
458.977,552.25
460.431,568.448
461.885,559.888
463.339,571.571
464.794,556.95
466.248,540.087
467.702,543.796
469.156,562.769
470.61,549.174
472.065,553.995
473.519,561.025
474.973,554.123
476.427,544.073
477.882,572.652
479.336,565.675
480.79,559.322
482.244,546.047
483.698,540.026
485.153,544.76
486.607,547.825
488.061,550.035
489.515,543.095
490.969,532.121
492.424,532.541
493.878,551.042
495.332,547.749
496.786,531.501
498.241,544.638
499.695,549.166
501.149,543.483
502.603,537.702
504.057,521.925
505.512,523.861
506.966,523.957
508.42,521.956
509.874,525.555
511.329,518.463
512.783,526.98
514.237,506.236
515.691,511.896
517.145,523.189
518.6,524.562
520.054,524.431
521.508,526.701
522.962,513.533
524.417,514.791
525.871,521.912
527.325,520.658
528.779,507.999
530.233,520.241
531.688,517.972
533.142,522.737
534.596,521.772
536.05,516.394
537.505,530.959
538.959,515.783
540.413,512.807
541.867,511.662
543.321,511.31
544.776,521.165
546.23,534.512
547.684,519.382
549.138,535.616
550.592,536.891
552.047,525.105
553.501,516.891
554.955,520.788
556.409,520.137
557.864,520.274
559.318,516.698
560.772,509.031
562.226,519.056
563.68,530.299
565.135,527.536
566.589,520.218
568.043,515.8
569.497,525.807
570.952,517.981
572.406,506.841
573.86,512.456
575.314,530.861
576.768,536.128
578.223,532.764
579.677,521.462
581.131,524.639
582.585,515.534
584.039,517.584
585.494,522.859
586.948,518.136
588.402,521.288
589.856,534.979
591.311,513.108
592.765,521.777
594.219,501.466
595.673,499.934
597.127,521.673
598.582,527.529
600.036,503.932
601.49,520.93
602.944,522.055
604.399,525.805
605.853,529.792
607.307,520.539
608.761,503.294
610.215,529.056
611.67,550.07
613.124,546.548
614.578,534.762
616.032,529.025
617.487,507.991
618.941,530.955
620.395,534.248
621.849,531.577
623.303,526.928
624.758,536.068
626.212,538.587
627.666,523.334
629.12,531.469
630.575,532.626
632.029,538.073
633.483,542.708
634.937,534.208
636.391,535.957
637.846,515.661
639.3,523.893
640.754,527.369
642.208,537.463
643.662,535.088
645.117,511.056
646.571,529.962
648.025,533.721
649.479,530.396
650.934,531.647
652.388,534.628
653.842,533.287
655.296,557.663
656.75,550.935
658.205,532.708
659.659,530.408
661.113,543.595
662.567,536.81
664.022,532.578
665.476,543.792
666.93,545.225
668.384,539.012
669.838,528.292
671.293,536.029
672.747,541.733
674.201,557.669
675.655,540.267
677.109,547.229
678.564,557.913
680.018,552.839
681.472,561.602
682.926,556.993
684.381,552.972
685.835,547.591
687.289,545.277
688.743,548.672
690.198,543.995
691.652,548.961
693.106,555.151
694.56,545.842
696.014,553.008
697.469,556.223
698.923,556.051
700.377,550.904
701.831,563.984
703.285,555.2
704.74,540.161
706.194,550.125
707.648,556.568
709.102,556.611
710.557,559.538
712.011,562.332
713.465,561.647
714.919,559.848
716.373,556.108
717.828,559.313
719.282,575.424
720.736,572.31
722.19,560.843
723.645,557.653
725.099,558.751
726.553,563.63
728.007,567.623
729.461,554.578
730.916,546.179
732.37,559.059
733.824,566.264
735.278,565.599
736.732,563.097
738.187,554.983
739.641,552.807
741.095,559.133
742.549,567.589
744.004,574.812
745.458,568.995
746.912,569.565
748.366,558.798
749.82,555.267
751.275,554.169
752.729,560.947
754.183,566.379
755.637,560.185
757.092,564.635
758.546,555.868
760,566.466
761.454,575.56
762.908,583.878
764.363,584.649
765.817,575.751
767.271,572.083
768.725,575.66
770.18,577.725
771.634,575.38
773.088,569.493
774.542,574.036
775.996,561.728
777.451,553.51
778.905,582.723
780.359,564.385
781.813,565.915
783.268,576.558
784.722,579.469
786.176,574.421
787.63,579.586
789.084,585.309
790.539,575.656
791.993,559.79
793.447,569.188
794.901,574.293
796.355,586.358
797.81,592.447
799.264,587.62
800.718,579.113
802.172,576.326
803.627,578.766
805.081,586.471
806.535,587.858
807.989,593.324
809.443,583.086
810.898,595.96
812.352,594.615
813.806,601.953
815.26,599.193
816.715,586.846
818.169,581.021
819.623,591.835
821.077,593.035
822.531,605.065
823.986,602.465
825.44,602.235
826.894,599.211
828.348,604.206
829.802,597.014
831.257,621.967
832.711,602.471
834.165,613.536
835.619,614.363
837.074,603.558
838.528,598.061
839.982,593.502
841.436,597.583
842.891,613.031
844.345,612.822
845.799,613.192
847.253,617.224
848.707,620.476
850.162,614.046
851.616,630.856
853.07,641.514
854.524,627.709
855.978,617.594
857.433,636.348
858.887,643.664
860.341,643.126
861.795,639.407
863.25,629.836
864.704,620.084
866.158,620.97
867.612,636.152
869.066,639.606
870.521,613.52
871.975,605.093
873.429,607.033
874.883,606.331
876.338,608.117
877.792,618.988
879.246,625.639
880.7,615.065
882.154,620.451
883.609,614.727
885.063,625.641
886.517,632.389
887.971,620.833
889.425,615.437
890.88,617.781
892.334,617.337
893.788,630.146
895.242,628.5
896.697,623.323
898.151,620.981
899.605,621.328
901.059,627.955
902.513,623.591
903.968,621.581
905.422,633.566
906.876,615.868
908.33,636.334
909.785,647.998
911.239,640.123
912.693,628.853
914.147,639.733
915.601,631.878
917.056,654.266
918.51,648.043
919.964,639.758
921.418,643.131
922.873,650.314
924.327,654.956
925.781,638.544
927.235,641.715
928.689,655.14
930.144,646.714
931.598,642.207
933.052,655.161
934.506,669.761
935.961,659.138
937.415,649.314
938.869,652.768
940.323,658.286
941.777,644.745
943.232,639.103
944.686,645.478
946.14,645.039
947.594,645.714
949.048,638.329
950.503,666.051
951.957,662.785
953.411,637.931
954.865,626.664
956.32,641.846
957.774,658.813
959.228,657.461
960.682,659.306
962.136,639.663
963.591,664.896
965.045,649.09
966.499,644.232
967.953,653.993
969.408,658.072
970.862,667.663
972.316,680.307
973.77,676.574
975.224,658.202
976.679,651.838
978.133,668.374
979.587,667.641
981.041,670.983
982.495,677.399
983.95,660.393
985.404,677.754
986.858,679.485
988.312,677.083
989.767,695.626
991.221,683.877
992.675,670.966
994.129,674.806
995.583,677.29
997.038,698.222
998.492,695.894
999.946,676.025
1001.4,684.828
1002.85,689.6
1004.31,686.465
1005.76,696.229
1007.22,697.516
1008.67,730.407
1010.13,710.512
1011.58,723.669
1013.03,725.277
1014.49,716.045
1015.94,712.812
1017.4,711.081
1018.85,725.6
1020.31,719.091
1021.76,714.784
1023.21,742.194
1024.67,750.089
1026.12,750.371
1027.58,746.354
1029.03,737.885
1030.48,752.207
1031.94,774.574
1033.39,750.475
1034.85,751.144
1036.3,774.425
1037.76,773.71
1039.21,775.762
1040.66,786.039
1042.12,791.837
1043.57,793.835
1045.03,788.01
1046.48,780.291
1047.94,800.599
1049.39,801.693
1050.84,805.145
1052.3,815.783
1053.75,817.661
1055.21,831.448
1056.66,817.743
1058.11,835.383
1059.57,835.506
1061.02,839.914
1062.48,836.345
1063.93,861.494
1065.39,874.289
1066.84,874.804
1068.29,893.769
1069.75,891.497
1071.2,879.405
1072.66,893.952
1074.11,901.848
1075.57,919.505
1077.02,920.497
1078.47,922.819
1079.93,940.135
1081.38,939.63
1082.84,928.27
1084.29,946.516
1085.75,936.788
1087.2,941.351
1088.65,937.775
1090.11,919.873
1091.56,927.138
1093.02,968.543
1094.47,940.924
1095.92,932.385
1097.38,931.958
1098.83,931.11
1100.29,931.788
1101.74,929.042
1103.2,928.712
1104.65,914.815
1106.1,907.408
1107.56,921.982
1109.01,931.054
1110.47,908.491
1111.92,927.193
1113.38,918.665
1114.83,912.399
1116.28,912.386
1117.74,894.725
1119.19,912.983
1120.65,920.013
1122.1,880.632
1123.55,881.148
1125.01,901.726
1126.46,897.94
1127.92,896.254
1129.37,889.59
1130.83,868.65
1132.28,881.946
1133.73,886.442
1135.19,910.812
1136.64,897.584
1138.1,885.33
1139.55,906.976
1141.01,908.63
1142.46,897.664
1143.91,908.238
1145.37,905.799
1146.82,894.45
1148.28,890.288
1149.73,900.383
1151.18,868.808
1152.64,884.197
1154.09,894.247
1155.55,893.373
1157,901.297
1158.46,911.499
1159.91,889.004
1161.36,902.23
1162.82,920.365
1164.27,916.941
1165.73,912.839
1167.18,906.552
1168.64,908.729
1170.09,900.371
1171.54,893.758
1173,916.7
1174.45,900.915
1175.91,896.305
1177.36,924.49
1178.82,904.999
1180.27,921.845
1181.72,932.354
1183.18,925.81
1184.63,922.894
1186.09,926.287
1187.54,916.284
1188.99,934.895
1190.45,931.367
1191.9,913.349
1193.36,935.747
1194.81,951.702
1196.27,948.467
1197.72,939.047
1199.17,947.855
1200.63,954.501
1202.08,937.958
1203.54,973.189
1204.99,948.006
1206.45,966.467
1207.9,978.471
1209.35,969.994
1210.81,975.555
1212.26,980.396
1213.72,955.318
1215.17,947.838
1216.62,979.184
1218.08,970.899
1219.53,974.025
1220.99,969.618
1222.44,980.907
1223.9,987.39
1225.35,986.293
1226.8,994.06
1228.26,1015.97
1229.71,1031.28
1231.17,1030.63
1232.62,994.601
1234.08,1006.36
1235.53,1012.43
1236.98,1026.36
1238.44,1010.92
1239.89,1016.21
1241.35,1034.93
1242.8,1021.36
1244.25,1033.55
1245.71,1057.28
1247.16,1064.23
1248.62,1070.26
1250.07,1099.9
1251.53,1086.53
1252.98,1087.68
1254.43,1102.15
1255.89,1111.37
1257.34,1115.79
1258.8,1116.42
1260.25,1131.55
1261.71,1157.72
1263.16,1128.71
1264.61,1169.97
1266.07,1182.69
1267.52,1183.71
1268.98,1192.91
1270.43,1211.56
1271.89,1229.04
1273.34,1261.02
1274.79,1263.52
1276.25,1247.78
1277.7,1292.13
1279.16,1311
1280.61,1335.52
1282.06,1351.97
1283.52,1388.16
1284.97,1407.54
1286.43,1426.08
1287.88,1479.66
1289.34,1530.68
1290.79,1546
1292.24,1555.81
1293.7,1609.16
1295.15,1637.44
1296.61,1706.85
1298.06,1729.99
1299.52,1780.11
1300.97,1876.37
1302.42,1939.5
1303.88,1980.26
1305.33,2077.59
1306.79,2149.55
1308.24,2210.6
1309.69,2302.97
1311.15,2423.01
1312.6,2520.22
1314.06,2630.82
1315.51,2727.92
1316.97,2864.14
1318.42,2987.7
1319.87,3056.57
1321.33,3223.94
1322.78,3364.67
1324.24,3515.16
1325.69,3587.43
1327.15,3685.95
1328.6,3788.89
1330.05,3842.38
1331.51,3865.1
1332.96,3910.95
1334.42,3917.19
1335.87,3876.65
1337.32,3859
1338.78,3778.71
1340.23,3724.1
1341.69,3627.47
1343.14,3507.54
1344.6,3389.16
1346.05,3286.94
1347.5,3167.68
1348.96,3047.39
1350.41,2924.91
1351.87,2790.8
1353.32,2656.29
1354.78,2560.93
1356.23,2455.06
1357.68,2345.51
1359.14,2273.8
1360.59,2157.78
1362.05,2073.29
1363.5,2007.83
1364.96,1948.97
1366.41,1875.99
1367.86,1820.62
1369.32,1790.23
1370.77,1740.86
1372.23,1692.36
1373.68,1678.09
1375.13,1604.82
1376.59,1602.33
1378.04,1533.57
1379.5,1507.47
1380.95,1475.97
1382.41,1465.38
1383.86,1460.83
1385.31,1432.88
1386.77,1409.46
1388.22,1392.51
1389.68,1377.08
1391.13,1372.74
1392.59,1391.58
1394.04,1335.8
1395.49,1356.16
1396.95,1350.13
1398.4,1336.16
1399.86,1338.61
1401.31,1309.58
1402.76,1289.81
1404.22,1303
1405.67,1300.69
1407.13,1288.07
1408.58,1281.81
1410.04,1278.89
1411.49,1275.42
1412.94,1265.06
1414.4,1289.91
1415.85,1284.46
1417.31,1268.04
1418.76,1284.62
1420.22,1297.87
1421.67,1275.72
1423.12,1253.34
1424.58,1266.14
1426.03,1278.14
1427.49,1288.24
1428.94,1301.17
1430.4,1282.89
1431.85,1261.39
1433.3,1280.91
1434.76,1292.75
1436.21,1277.7
1437.67,1302.79
1439.12,1313.22
1440.57,1297.03
1442.03,1298.29
1443.48,1320.5
1444.94,1312.37
1446.39,1329.71
1447.85,1320.84
1449.3,1305.97
1450.75,1351.88
1452.21,1375.44
1453.66,1364.98
1455.12,1349.29
1456.57,1354.32
1458.03,1374.53
1459.48,1382
1460.93,1385.12
1462.39,1405.11
1463.84,1400.19
1465.3,1402.91
1466.75,1393.21
1468.2,1447.72
1469.66,1430.97
1471.11,1449.42
1472.57,1469.17
1474.02,1491.64
1475.48,1490.69
1476.93,1514.53
1478.38,1544.07
1479.84,1546.3
1481.29,1553.16
1482.75,1593.22
1484.2,1613.76
1485.66,1596.48
1487.11,1663.01
1488.56,1683.27
1490.02,1707.7
1491.47,1712.39
1492.93,1710.63
1494.38,1701.91
1495.83,1774.55
1497.29,1821.35
1498.74,1868.29
1500.2,1924.06
1501.65,1955.89
1503.11,1988.69
1504.56,1996.89
1506.01,2012.76
1507.47,2111.8
1508.92,2169.51
1510.38,2223.91
1511.83,2292.61
1513.29,2363.6
1514.74,2427.71
1516.19,2512.24
1517.65,2614.88
1519.1,2743.23
1520.56,2882.89
1522.01,2997.62
1523.46,3158.33
1524.92,3338.13
1526.37,3510.3
1527.83,3739.54
1529.28,4003.99
1530.74,4136.07
1532.19,4462
1533.64,4819.93
1535.1,5178.78
1536.55,5584.06
1538.01,6096.42
1539.46,6625.02
1540.92,7183.96
1542.37,7776.76
1543.82,8428.2
1545.28,9156.4
1546.73,9879.62
1548.19,10709.8
1549.64,11438.3
1551.1,12307.5
1552.55,13133.7
1554,14022.4
1555.46,14849.3
1556.91,15668.8
1558.37,16505.9
1559.82,17283.2
1561.27,17978
1562.73,18538.8
1564.18,18973.4
1565.64,19142.4
1567.09,19167
1568.55,19213.3
1570,18910.1
1571.45,18429.1
1572.91,17869.8
1574.36,17074.5
1575.82,16051.4
1577.27,15116.2
1578.73,14203.3
1580.18,13103.7
1581.63,12076.2
1583.09,11074.9
1584.54,10206.3
1586,9427.91
1587.45,8625.68
1588.9,7942.58
1590.36,7364.61
1591.81,6859.64
1593.27,6335.43
1594.72,5992.72
1596.18,5577.35
1597.63,5323.04
1599.08,5067.09
1600.54,4764.67
1601.99,4524.57
1603.45,4353.02
1604.9,4109.8
1606.36,3952.43
1607.81,3806.11
1609.26,3646.86
1610.72,3471.4
1612.17,3270.23
1613.63,3116.48
1615.08,2954.53
1616.54,2817.77
1617.99,2691.01
1619.44,2555.97
1620.9,2471.62
1622.35,2343.25
1623.81,2252.68
1625.26,2159.11
1626.71,2103.29
1628.17,2034.57
1629.62,1956.21
1631.08,1915.8
1632.53,1879.59
1633.99,1825.1
1635.44,1777.48
1636.89,1732.09
1638.35,1685.05
1639.8,1645.56
1641.26,1612.42
1642.71,1591.9
1644.17,1559.29
1645.62,1561.69
1647.07,1468.17
1648.53,1492.26
1649.98,1465.57
1651.44,1413.18
1652.89,1436.38
1654.34,1397.52
1655.8,1398.37
1657.25,1364.4
1658.71,1323.17
1660.16,1311.46
1661.62,1314.81
1663.07,1288.81
1664.52,1278.1
1665.98,1279.43
1667.43,1274.83
1668.89,1247.93
1670.34,1243.37
1671.8,1244.07
1673.25,1228.71
1674.7,1230.61
1676.16,1187.96
1677.61,1233.26
1679.07,1252.66
1680.52,1183.94
1681.97,1182.06
1683.43,1160.08
1684.88,1157.38
1686.34,1175.67
1687.79,1170.34
1689.25,1142.77
1690.7,1127.33
1692.15,1128.84
1693.61,1134.07
1695.06,1130.03
1696.52,1118.23
1697.97,1109.66
1699.43,1118.45
1700.88,1093.27
1702.33,1094.56
1703.79,1086.25
1705.24,1076.09
1706.7,1108.99
1708.15,1064.81
1709.6,1042.33
1711.06,1063.35
1712.51,1047.06
1713.97,1069
1715.42,1074.29
1716.88,1047.55
1718.33,1065.08
1719.78,1054.14
1721.24,1051.47
1722.69,1060.98
1724.15,1047.98
1725.6,1036.77
1727.06,1030.71
1728.51,1039.77
1729.96,1043.94
1731.42,1033.38
1732.87,1048.93
1734.33,1036.99
1735.78,1040.07
1737.24,1028.07
1738.69,1035.42
1740.14,1033.12
1741.6,1030.94
1743.05,1038.92
1744.51,1040.1
1745.96,1035.37
1747.41,1024.27
1748.87,1026.23
1750.32,1007.73
1751.78,997.262
1753.23,1001.83
1754.69,1014.18
1756.14,1017.28
1757.59,989.247
1759.05,992.067
1760.5,990.03
1761.96,991.311
1763.41,994.865
1764.87,963.078
1766.32,971.569
1767.77,995.976
1769.23,986.415
1770.68,984.352
1772.14,991.11
1773.59,965.344
1775.04,966.327
1776.5,984.428
1777.95,970.891
1779.41,944.463
1780.86,974.142
1782.32,972.503
1783.77,969.062
1785.22,950.772
1786.68,933.335
1788.13,949.432
1789.59,939.395
1791.04,952.109
1792.5,956.286
1793.95,952.104
1795.4,960.349
1796.86,950.667
1798.31,957.987
1799.77,950.194
1801.22,949.444
1802.68,933.219
1804.13,927.331
1805.58,938.342
1807.04,948.236
1808.49,936.767
1809.95,933.322
1811.4,931.114
1812.85,926.858
1814.31,918.151
1815.76,927.504
1817.22,924.583
1818.67,931.662
1820.13,914.4
1821.58,932.443
1823.03,926.312
1824.49,918.13
1825.94,925.025
1827.4,932.025
1828.85,904.318
1830.31,904.035
1831.76,922.19
1833.21,945.752
1834.67,930.558
1836.12,918.233
1837.58,939.084
1839.03,933.759
1840.48,931.092
1841.94,945.172
1843.39,940.668
1844.85,954.752
1846.3,953.22
1847.76,958.879
1849.21,964.324
1850.66,944.092
1852.12,936.006
1853.57,945.26
1855.03,954.2
1856.48,991.864
1857.94,973.904
1859.39,979.818
1860.84,974.034
1862.3,979.186
1863.75,953.104
1865.21,985.823
1866.66,975.813
1868.11,984.184
1869.57,961.544
1871.02,957.147
1872.48,947.394
1873.93,956.33
1875.39,967.92
1876.84,952.109
1878.29,974.013
1879.75,958.457
1881.2,961.12
1882.66,977.942
1884.11,956.552
1885.57,947.767
1887.02,951.314
1888.47,935.366
1889.93,932.029
1891.38,923.986
1892.84,929.315
1894.29,938.255
1895.75,928.207
1897.2,913.945
1898.65,922.214
1900.11,908.075
1901.56,923.882
1903.02,895.421
1904.47,904.832
1905.92,895.546
1907.38,920.788
1908.83,891.841
1910.29,910.993
1911.74,892.227
1913.2,882.305
1914.65,919.781
1916.1,897.385
1917.56,895.663
1919.01,869.803
1920.47,911.092
1921.92,877.65
1923.38,870.568
1924.83,912.56
1926.28,875.112
1927.74,875.904
1929.19,880.277
1930.65,898.078
1932.1,889.812
1933.55,889.518
1935.01,894.436
1936.46,874.666
1937.92,900.014
1939.37,924.75
1940.83,895.06
1942.28,899.966
1943.73,901.973
1945.19,884.302
1946.64,880.783
1948.1,904.979
1949.55,897.637
1951.01,889.408
1952.46,883.354
1953.91,880.186
1955.37,890.845
1956.82,908.878
1958.28,922.316
1959.73,915.07
1961.18,898.819
1962.64,910.56
1964.09,923.232
1965.55,919.125
1967,912.288
1968.46,918.826
1969.91,921.722
1971.36,935.417
1972.82,931.526
1974.27,920.921
1975.73,899.139
1977.18,929.872
1978.64,931.443
1980.09,940.304
1981.54,924.581
1983,916.976
1984.45,921.915
1985.91,942.618
1987.36,916.694
1988.82,916.167
1990.27,936.481
1991.72,939.785
1993.18,935.944
1994.63,951.363
1996.09,945.805
1997.54,956.167
1998.99,910.898
2000.45,934.503
2001.9,938.377
2003.36,919.418
2004.81,917.978
2006.27,934.32
2007.72,944.819
2009.17,961.676
2010.63,926.939
2012.08,928.135
2013.54,948.247
2014.99,931.051
2016.45,886.384
2017.9,912.223
2019.35,925.282
2020.81,923.961
2022.26,910.43
2023.72,909.342
2025.17,899.572
2026.62,897.569
2028.08,935.03
2029.53,927.604
2030.99,909.705
2032.44,895.563
2033.9,903.875
2035.35,910.889
2036.8,891.628
2038.26,885.294
2039.71,886.768
2041.17,889.827
2042.62,897.169
2044.08,877.181
2045.53,882.329
2046.98,879.506
2048.44,895.515
2049.89,893.356
2051.35,869.042
2052.8,876.001
2054.25,879.294
2055.71,898.386
2057.16,882.438
2058.62,855.168
2060.07,847.291
2061.53,863.78
2062.98,875.225
2064.43,879.777
2065.89,867.48
2067.34,848.736
2068.8,832.767
2070.25,845.275
2071.71,855.508
2073.16,857.653
2074.61,849.851
2076.07,837.331
2077.52,846.725
2078.98,862.605
2080.43,846.496
2081.89,846.604
2083.34,842.013
2084.79,827.405
2086.25,828.142
2087.7,837.934
2089.16,843.207
2090.61,844.848
2092.06,848.64
2093.52,859.586
2094.97,850.548
2096.43,840.396
2097.88,856.972
2099.34,862.966
2100.79,852.875
2102.24,832.263
2103.7,849.266
2105.15,912.682
2106.61,932.64
2108.06,866.242
2109.52,857.834
2110.97,854.595
2112.42,854.442
2113.88,855.006
2115.33,850.816
2116.79,845.719
2118.24,844.749
2119.69,854.18
2121.15,858.858
2122.6,848.663
2124.06,858.529
2125.51,863.166
2126.97,862.198
2128.42,857.433
2129.87,861.463
2131.33,867.732
2132.78,866.835
2134.24,862.745
2135.69,863.038
2137.15,859.306
2138.6,856.095
2140.05,859.575
2141.51,859.46
2142.96,873.059
2144.42,867.401
2145.87,864.102
2147.32,874.103
2148.78,880.139
2150.23,867.931
2151.69,868.45
2153.14,867.994
2154.6,871.821
2156.05,873.4
2157.5,862.259
2158.96,864.501
2160.41,873.918
2161.87,891.911
2163.32,887.697
2164.78,881.828
2166.23,879.957
2167.68,891.664
2169.14,881.402
2170.59,898.731
2172.05,892.672
2173.5,896.631
2174.96,887.655
2176.41,894.986
2177.86,912.326
2179.32,909.49
2180.77,915.081
2182.23,894.813
2183.68,896.492
2185.13,890.624
2186.59,903.082
2188.04,907.321
2189.5,900.103
2190.95,909.508
2192.41,919.944
2193.86,901.444
2195.31,910.762
2196.77,912.621
2198.22,891.975
2199.68,901.654
2201.13,912.615
2202.59,902.052
2204.04,922.635
2205.49,892.713
2206.95,908.187
2208.4,915.314
2209.86,903.524
2211.31,916.295
2212.76,918.745
2214.22,901.834
2215.67,906.728
2217.13,900.49
2218.58,905.523
2220.04,898.289
2221.49,949.924
2222.94,900.457
2224.4,885.468
2225.85,921.647
2227.31,919.35
2228.76,916.637
2230.22,906.517
2231.67,905.824
2233.12,929.576
2234.58,902.406
2236.03,904.748
2237.49,923.18
2238.94,916.621
2240.4,908.217
2241.85,924.211
2243.3,942.007
2244.76,932.03
2246.21,923.835
2247.67,917.162
2249.12,921.064
2250.57,908.76
2252.03,917.533
2253.48,936.66
2254.94,932.019
2256.39,903.612
2257.85,912.146
2259.3,929.623
2260.75,922.141
2262.21,924.094
2263.66,931.021
2265.12,946.278
2266.57,931.527
2268.03,931.278
2269.48,932.496
2270.93,936.904
2272.39,951.371
2273.84,912.757
2275.3,928.254
2276.75,942.003
2278.2,952.03
2279.66,956.11
2281.11,933.187
2282.57,943.836
2284.02,959.943
2285.48,959.999
2286.93,956.971
2288.38,920.077
2289.84,980.505
2291.29,957.375
2292.75,967.138
2294.2,961.353
2295.66,975.68
2297.11,988.025
2298.56,988.59
2300.02,980.021
2301.47,968.823
2302.93,964.011
2304.38,976.962
2305.83,983.214
2307.29,972.661
2308.74,989.18
2310.2,977.202
2311.65,984.232
2313.11,998.918
2314.56,986.008
2316.01,993.356
2317.47,984.051
2318.92,995.874
2320.38,1020.32
2321.83,1026.15
2323.29,1016.83
2324.74,1016.64
2326.19,1020.99
2327.65,1010.24
2329.1,996.07
2330.56,1019.92
2332.01,1045.02
2333.47,1011.05
2334.92,1042.5
2336.37,1032.82
2337.83,1048
2339.28,1057.42
2340.74,1036.71
2342.19,1041.3
2343.64,1074.87
2345.1,1057.79
2346.55,1062.81
2348.01,1076.59
2349.46,1052.55
2350.92,1078.71
2352.37,1068.58
2353.82,1082.81
2355.28,1087.89
2356.73,1070.4
2358.19,1086.7
2359.64,1099.58
2361.1,1109.92
2362.55,1115.28
2364,1137.12
2365.46,1129.25
2366.91,1110.2
2368.37,1123.04
2369.82,1137.44
2371.27,1145.24
2372.73,1159.1
2374.18,1151.69
2375.64,1168.27
2377.09,1192.3
2378.55,1190.49
2380,1193.29
2381.45,1193.02
2382.91,1203.3
2384.36,1221.23
2385.82,1260.22
2387.27,1283.4
2388.73,1238.67
2390.18,1291.44
2391.63,1312.67
2393.09,1328.29
2394.54,1311.31
2396,1309.37
2397.45,1346.47
2398.9,1387.74
2400.36,1403.66
2401.81,1429.14
2403.27,1456.78
2404.72,1468.52
2406.18,1485.57
2407.63,1508.41
2409.08,1541.2
2410.54,1553.41
2411.99,1551.9
2413.45,1603.95
2414.9,1609.33
2416.36,1599.81
2417.81,1623
2419.26,1636.82
2420.72,1627.86
2422.17,1693.49
2423.63,1697.9
2425.08,1725.97
2426.53,1730.85
2427.99,1706.03
2429.44,1723.01
2430.9,1701.49
2432.35,1709.95
2433.81,1725.12
2435.26,1699.73
2436.71,1716.88
2438.17,1700.92
2439.62,1714.12
2441.08,1730.46
2442.53,1726.22
2443.99,1732.97
2445.44,1714.33
2446.89,1653.24
2448.35,1670.93
2449.8,1657.03
2451.26,1667.97
2452.71,1638.71
2454.17,1623.28
2455.62,1644.15
2457.07,1642.07
2458.53,1619.98
2459.98,1621.73
2461.44,1574.21
2462.89,1609.36
2464.34,1582.55
2465.8,1586.84
2467.25,1565.75
2468.71,1559.35
2470.16,1544.36
2471.62,1533.61
2473.07,1526.44
2474.52,1535.82
2475.98,1535.7
2477.43,1543.27
2478.89,1517.68
2480.34,1520.9
2481.8,1479.9
2483.25,1483.82
2484.7,1531.32
2486.16,1486.29
2487.61,1482.18
2489.07,1443.88
2490.52,1481.72
2491.97,1495.65
2493.43,1491.89
2494.88,1493.44
2496.34,1505.05
2497.79,1526.23
2499.25,1500.09
2500.7,1489.57
2502.15,1514.32
2503.61,1501.35
2505.06,1485.05
2506.52,1490.01
2507.97,1506.41
2509.43,1507.49
2510.88,1501.31
2512.33,1525.67
2513.79,1517.58
2515.24,1534.14
2516.7,1516.11
2518.15,1519.9
2519.6,1547.01
2521.06,1531.59
2522.51,1535.36
2523.97,1535.21
2525.42,1542.38
2526.88,1548.81
2528.33,1579.23
2529.78,1590.65
2531.24,1608.56
2532.69,1612.56
2534.15,1625.87
2535.6,1637.1
2537.06,1660.23
2538.51,1680.22
2539.96,1655.72
2541.42,1687.21
2542.87,1663.95
2544.33,1714.32
2545.78,1731.9
2547.24,1751.9
2548.69,1774.01
2550.14,1759.37
2551.6,1797.2
2553.05,1822.72
2554.51,1842.11
2555.96,1875.75
2557.41,1881.9
2558.87,1896.13
2560.32,1927.66
2561.78,1947.15
2563.23,1959.07
2564.69,2010.49
2566.14,2021.19
2567.59,2045.8
2569.05,2129.25
2570.5,2102.63
2571.96,2127.35
2573.41,2191.87
2574.87,2232.08
2576.32,2285.33
2577.77,2324.39
2579.23,2400.83
2580.68,2431.89
2582.14,2478.37
2583.59,2525.93
2585.04,2560.15
2586.5,2638
2587.95,2733.29
2589.41,2757.1
2590.86,2806.82
2592.32,2864.02
2593.77,2956.92
2595.22,3057.37
2596.68,3192.15
2598.13,3228.63
2599.59,3317.63
2601.04,3428.47
2602.5,3540.94
2603.95,3667.86
2605.4,3744.02
2606.86,3880.78
2608.31,4022.09
2609.77,4178.13
2611.22,4320.87
2612.68,4509.92
2614.13,4571.4
2615.58,4870.56
2617.04,4969.57
2618.49,5157.56
2619.95,5388.88
2621.4,5586.46
2622.85,5800.91
2624.31,5991.52
2625.76,6262.66
2627.22,6502.69
2628.67,6715.33
2630.13,7015.84
2631.58,7278.79
2633.03,7639.82
2634.49,7935.53
2635.94,8175.87
2637.4,8445.14
2638.85,8767.1
2640.31,9046.71
2641.76,9331.7
2643.21,9610.1
2644.67,9883.3
2646.12,10181.4
2647.58,10441.7
2649.03,10706.7
2650.48,10891.1
2651.94,11119.9
2653.39,11328.8
2654.85,11438.1
2656.3,11637.2
2657.76,11706.1
2659.21,11931
2660.66,11978
2662.12,11981.5
2663.57,12028.9
2665.03,12018.9
2666.48,12005.7
2667.94,11942.9
2669.39,11924.3
2670.84,11797.6
2672.3,11662.2
2673.75,11444.2
2675.21,11253.4
2676.66,11025.9
2678.11,10774.5
2679.57,10586.5
2681.02,10312.3
2682.48,10085.8
2683.93,9745.23
2685.39,9366.52
2686.84,9140.87
2688.29,8886.26
2689.75,8610.83
2691.2,8264.5
2692.66,7910.21
2694.11,7672.64
2695.57,7388.99
2697.02,7069.24
2698.47,6862.36
2699.93,6457.27
2701.38,6141.93
2702.84,5933.57
2704.29,5714.51
2705.75,5480.93
2707.2,5260.8
2708.65,5033.55
2710.11,4867.65
2711.56,4659.6
2713.02,4419.76
2714.47,4361.13
2715.92,4154.84
2717.38,3987.99
2718.83,3835.67
2720.29,3687.83
2721.74,3557.63
2723.2,3414.82
2724.65,3339.64
2726.1,3230.41
2727.56,3145.67
2729.01,3011.22
2730.47,2912.86
2731.92,2835.64
2733.38,2780.5
2734.83,2606.28
2736.28,2553.21
2737.74,2521.99
2739.19,2473.36
2740.65,2344.16
2742.1,2319.35
2743.55,2295.37
2745.01,2245.34
2746.46,2158.06
2747.92,2160.07
2749.37,2051.95
2750.83,2085.74
2752.28,2036.74
2753.73,1952.61
2755.19,1923.19
2756.64,1865.66
2758.1,1864.41
2759.55,1872.68
2761.01,1828.89
2762.46,1778.25
2763.91,1793.03
2765.37,1753.56
2766.82,1740.57
2768.28,1713.87
2769.73,1695.98
2771.18,1668.74
2772.64,1642.11
2774.09,1639.65
2775.55,1609.02
2777,1570.91
2778.46,1563.73
2779.91,1562.49
2781.36,1540.12
2782.82,1513.79
2784.27,1502.12
2785.73,1484.09
2787.18,1485.65
2788.64,1491.81
2790.09,1481.63
2791.54,1462.67
2793,1445.02
2794.45,1416.73
2795.91,1394.95
2797.36,1401.38
2798.82,1388.75
2800.27,1410.42
2801.72,1370.66
2803.18,1350.42
2804.63,1362.78
2806.09,1364.15
2807.54,1350.65
2808.99,1347.25
2810.45,1357.23
2811.9,1319.83
2813.36,1320.63
2814.81,1314.09
2816.27,1291.78
2817.72,1331.57
2819.17,1288.01
2820.63,1306.87
2822.08,1290.43
2823.54,1284.35
2824.99,1287.4
2826.45,1269.63
2827.9,1262.77
2829.35,1292.09
2830.81,1270.03
2832.26,1223.77
2833.72,1258.54
2835.17,1271.86
2836.62,1251.53
2838.08,1234.35
2839.53,1228.74
2840.99,1245.82
2842.44,1232.51
2843.9,1214.83
2845.35,1195.47
2846.8,1236.25
2848.26,1232.67
2849.71,1223.66
2851.17,1233.42
2852.62,1220.13
2854.08,1223.54
2855.53,1222.47
2856.98,1227.44
2858.44,1230.37
2859.89,1216.05
2861.35,1192.93
2862.8,1208.12
2864.25,1210.39
2865.71,1211.42
2867.16,1206.56
2868.62,1197.04
2870.07,1220.43
2871.53,1255.38
2872.98,1244.34
2874.43,1240.33
2875.89,1224.65
2877.34,1247.44
2878.8,1245.68
2880.25,1237.31
2881.71,1224.94
2883.16,1237.06
2884.61,1239.71
2886.07,1226.59
2887.52,1231.99
2888.98,1240.98
2890.43,1279.84
2891.89,1268.98
2893.34,1284.65
2894.79,1282.96
2896.25,1254.61
2897.7,1260.37
2899.16,1264.07
2900.61,1269.49
2902.06,1286.8
2903.52,1237.75
2904.97,1261.27
2906.43,1282.47
2907.88,1271.88
2909.34,1288.56
2910.79,1296.11
2912.24,1278.28
2913.7,1276.11
2915.15,1247.58
2916.61,1271
2918.06,1243.19
2919.52,1233.51
2920.97,1215.42
2922.42,1232.77
2923.88,1225.86
2925.33,1228.02
2926.79,1202.14
2928.24,1194.08
2929.69,1185.76
2931.15,1176.62
2932.6,1153.55
2934.06,1204.47
2935.51,1166.12
2936.97,1159.28
2938.42,1156.22
2939.87,1174.75
2941.33,1135.59
2942.78,1122.96
2944.24,1133.42
2945.69,1112.14
2947.15,1079.66
2948.6,1076.49
2950.05,1054.03
2951.51,1070.89
2952.96,1046.15
2954.42,1030.74
2955.87,1030.76
2957.32,1034.18
2958.78,1046.08
2960.23,1040.47
2961.69,1028.86
2963.14,993.718
2964.6,971.325
2966.05,970.752
2967.5,978.545
2968.96,976.562
2970.41,965.16
2971.87,974.724
2973.32,954.879
2974.78,963.766
2976.23,974.669
2977.68,944.407
2979.14,921.593
2980.59,908.415
2982.05,910.069
2983.5,894.69
2984.96,889.775
2986.41,904.563
2987.86,909.578
2989.32,903.183
2990.77,876.916
2992.23,879.888
2993.68,901.028
2995.13,891.285
2996.59,889.144
2998.04,886.636
2999.5,892.941
3000.95,881.633
3002.41,882.575
3003.86,869.615
3005.31,868.274
3006.77,865.35
3008.22,858.388
3009.68,868.075
3011.13,846.386
3012.59,839.424
3014.04,845.669
3015.49,861.294
3016.95,839.048
3018.4,836.274
3019.86,853.81
3021.31,840.45
3022.76,836.844
3024.22,847.35
3025.67,831.034
3027.13,858.427
3028.58,870.878
3030.04,847.11
3031.49,839.127
3032.94,839.115
3034.4,831.792
3035.85,827.664
3037.31,832.62
3038.76,845.728
3040.22,836.517
3041.67,848.513
3043.12,847.027
3044.58,825.599
3046.03,820.721
3047.49,814.422
3048.94,832.247
3050.4,834.871
3051.85,807.654
3053.3,813.04
3054.76,838.84
3056.21,826.921
3057.67,837.787
3059.12,840.606
3060.57,855.219
3062.03,825.34
3063.48,841.519
3064.94,827.435
3066.39,832.644
3067.85,831.784
3069.3,846.235
3070.75,847.324
3072.21,837.371
3073.66,815.879
3075.12,801.924
3076.57,821.053
3078.03,849.806
3079.48,844.079
3080.93,849.94
3082.39,838.047
3083.84,853.375
3085.3,864.687
3086.75,867.13
3088.2,874.829
3089.66,872.362
3091.11,873.338
3092.57,853.417
3094.02,843.276
3095.48,891.932
3096.93,880.017
3098.38,891.115
3099.84,884.231
3101.29,912.775
3102.75,923.639
3104.2,916.595
3105.66,917.285
3107.11,965.864
3108.56,936.177
3110.02,968.023
3111.47,951.542
3112.93,936.644
3114.38,943.05
3115.83,1011.29
3117.29,1002.08
3118.74,999.609
3120.2,1000.12
3121.65,1034.37
3123.11,1067.12
3124.56,1066.98
3126.01,1084.65
3127.47,1085
3128.92,1069.47
3130.38,1104.39
3131.83,1107.45
3133.29,1099.28
3134.74,1112.28
3136.19,1137.56
3137.65,1123.24
3139.1,1132.18
3140.56,1148.99
3142.01,1134
3143.47,1159.1
3144.92,1164.37
3146.37,1172.63
3147.83,1147.88
3149.28,1174.72
3150.74,1168.48
3152.19,1166.8
3153.64,1171.63
3155.1,1203.19
3156.55,1192.03
3158.01,1144.31
3159.46,1152.82
3160.92,1186.35
3162.37,1195.89
3163.82,1186.98
3165.28,1210.53
3166.73,1194.56
3168.19,1183.34
3169.64,1172.66
3171.1,1211.16
3172.55,1208.27
3174,1207.36
3175.46,1192.34
3176.91,1192.94
3178.37,1216
3179.82,1231.33
3181.27,1250.81
3182.73,1260.27
3184.18,1282.34
3185.64,1247.03
3187.09,1270.68
3188.55,1300.55
3190,1266.79
3191.45,1323.66
3192.91,1320.95
3194.36,1320.4
3195.82,1343.49
3197.27,1331.63
3198.73,1332.18
3200.18,1344.28
3201.63,1399.88
3203.09,1391.05
3204.54,1363.65
3206,1381.31
3207.45,1370.65
3208.9,1394.4
3210.36,1370.99
3211.81,1364.4
3213.27,1375.39
3214.72,1356.22
3216.18,1349.49
3217.63,1343.84
3219.08,1308.44
3220.54,1281.02
3221.99,1267.09
3223.45,1250.11
3224.9,1228.73
3226.36,1195.29
3227.81,1191.42
3229.26,1164.5
3230.72,1120.51
3232.17,1109.64
3233.63,1054.67
3235.08,1043.94
3236.53,1023.65
3237.99,1002.64
3239.44,1006.92
3240.9,967.706
3242.35,928.594
3243.81,942.725
3245.26,902.605
3246.71,907.061
3248.17,846.962
3249.62,844.974
3251.08,837.888
3252.53,834.642
3253.99,825.231
3255.44,814.707
3256.89,791.548
3258.35,784.691
3259.8,770.631
3261.26,758.396
3262.71,742.175
3264.17,756.735
3265.62,748.513
3267.07,742.16
3268.53,740.164
3269.98,727.045
3271.44,714.776
3272.89,719.432
3274.34,722.605
3275.8,734.255
3277.25,719.887
3278.71,715.345
3280.16,693.328
3281.62,683.78
3283.07,693.898
3284.52,691.55
3285.98,714.527
3287.43,712.61
3288.89,676.633
3290.34,663.768
3291.8,674.872
3293.25,668.519
3294.7,678.21
3296.16,680.395
3297.61,689.627
3299.07,684.552
3300.52,654.829
3301.97,670.643
3303.43,666.643
3304.88,666.011
3306.34,673.327
3307.79,679.254
3309.25,690.436
3310.7,688.486
3312.15,675.766
3313.61,682.987
3315.06,670.589
3316.52,676.695
3317.97,674.009
3319.43,662.942
3320.88,664.086
3322.33,656.184
3323.79,678.677
3325.24,672.284
3326.7,672.469
3328.15,661.257
3329.6,659.582
3331.06,661.762
3332.51,658.539
3333.97,659.029
3335.42,634.134
3336.88,656.259
3338.33,661.54
3339.78,656.501
3341.24,651.209
3342.69,658.098
3344.15,664.382
3345.6,659.795
3347.06,659.481
3348.51,657.086
3349.96,666.431
3351.42,654.039
3352.87,654
3354.33,656.511
3355.78,661.376
3357.24,659.746
3358.69,639.831
3360.14,645.378
3361.6,648.713
3363.05,643.119
3364.51,654.783
3365.96,663.186
3367.41,663.665
3368.87,651.452
3370.32,640.286
3371.78,648.394
3373.23,645.768
3374.69,630.255
3376.14,650.302
3377.59,651.648
3379.05,619.577
3380.5,636.862
3381.96,651.448
3383.41,645.814
3384.87,642.47
3386.32,633.534
3387.77,634.342
3389.23,633.081
3390.68,643.778
3392.14,640.067
3393.59,641.375
3395.04,656.96
3396.5,658.229
3397.95,636.792
3399.41,627.703
3400.86,641.596
3402.32,635.241
3403.77,642.983
3405.22,623.089
3406.68,646.271
3408.13,638.968
3409.59,658.221
3411.04,649.803
3412.5,650.221
3413.95,655.299
3415.4,626.649
3416.86,646.278
3418.31,630.68
3419.77,633.197
3421.22,632.577
3422.68,635.45
3424.13,646.892
3425.58,635.899
3427.04,659.509
3428.49,643.503
3429.95,619.217
3431.4,623.352
3432.85,635.398
3434.31,615.319
3435.76,637.754
3437.22,629.601
3438.67,612.694
3440.13,636.255
3441.58,624.344
3443.03,634.748
3444.49,618.293
3445.94,628.683
3447.4,613.323
3448.85,629.517
3450.31,628.142
3451.76,646.055
3453.21,605.227
3454.67,624.243
3456.12,629.313
3457.58,611.836
3459.03,640.416
3460.48,629.041
3461.94,636.453
3463.39,616.171
3464.85,634.413
3466.3,629.557
3467.76,616.079
3469.21,616.829
3470.66,607.583
3472.12,599.6
3473.57,610.178
3475.03,617.595
3476.48,625.28
3477.94,634.89
3479.39,630.489
3480.84,632.775
3482.3,634.814
3483.75,610.045
3485.21,630.596
3486.66,606.588
3488.11,631.226
3489.57,644.146
3491.02,630.613
3492.48,621.1
3493.93,632.263
3495.39,647.173
3496.84,644.13
3498.29,631.042
3499.75,624.574
3501.2,615.75
3502.66,618.11
3504.11,621.194
3505.57,610.273
3507.02,646.543
3508.47,617.689
3509.93,648.326
3511.38,615.412
3512.84,627.801
3514.29,616.487
3515.75,607.11
3517.2,609.872
3518.65,643.452
3520.11,630.185
3521.56,606.777
3523.02,635.611
3524.47,632.066
3525.92,618.379
3527.38,616.736
3528.83,609.448
3530.29,622.111
3531.74,622.522
3533.2,628.919
3534.65,616.353
3536.1,608.868
3537.56,631.769
3539.01,626.135
3540.47,629.897
3541.92,624.176
3543.38,615.629
3544.83,611.889
3546.28,618.862
3547.74,608.475
3549.19,615.562
3550.65,621.123
3552.1,614.564
3553.55,622.305
3555.01,634.14
3556.46,617.215
3557.92,620.617
3559.37,624.5
3560.83,604.728
3562.28,609.057
3563.73,616.309
3565.19,605.283
3566.64,592.448
3568.1,611.034
3569.55,625.861
3571.01,617.287
3572.46,625.783
3573.91,617.479
3575.37,622.041
3576.82,613.415
3578.28,601.492
3579.73,616.453
3581.18,619.974
3582.64,619.711
3584.09,610.442
3585.55,613.185
3587,627.714
3588.46,621.062
3589.91,624.511
3591.36,627.277
3592.82,611.634
3594.27,621.401
3595.73,610.099
3597.18,612.236
3598.64,611.876
3600.09,621.03
3601.54,601.798
3603,611.835
3604.45,620.538
3605.91,601.945
3607.36,623.459
3608.82,589.275
3610.27,609.972
3611.72,620.578
3613.18,603.914
3614.63,595.703
3616.09,615.177
3617.54,603.912
3618.99,601.98
3620.45,638.638
3621.9,616.717
3623.36,610.921
3624.81,600.271
3626.27,603.28
3627.72,626.357
3629.17,618.434
3630.63,608.246
3632.08,602.671
3633.54,596.099
3634.99,617.268
3636.45,611.262
3637.9,630.611
3639.35,628.043
3640.81,624.75
3642.26,610.864
3643.72,608.187
3645.17,628.739
3646.62,608.636
3648.08,602.209
3649.53,602.206
3650.99,622.208
3652.44,636.422
3653.9,624.409
3655.35,608.78
3656.8,630.983
3658.26,630.501
3659.71,604.968
3661.17,625.758
3662.62,628.081
3664.08,604.453
3665.53,611.353
3666.98,635.187
3668.44,621.1
3669.89,617.389
3671.35,624.983
3672.8,625.154
3674.25,610.767
3675.71,600.418
3677.16,603.226
3678.62,610.032
3680.07,607.653
3681.53,611.675
3682.98,632.939
3684.43,624.572
3685.89,597.315
3687.34,627.541
3688.8,610.77
3690.25,614.871
3691.71,613.772
3693.16,615.918
3694.61,591.575
3696.07,601.163
3697.52,611.638
3698.98,627.334
3700.43,622.753
3701.89,618.823
3703.34,607.486
3704.79,631.043
3706.25,631.003
3707.7,606.599
3709.16,611.445
3710.61,598.053
3712.06,604.343
3713.52,628.649
3714.97,620.036
3716.43,631.784
3717.88,612.713
3719.34,612.837
3720.79,601.06
3722.24,603.522
3723.7,620.933
3725.15,624.417
3726.61,615.867
3728.06,624.932
3729.52,619.576
3730.97,648.494
3732.42,642.829
3733.88,618.528
3735.33,626.671
3736.79,604.246
3738.24,631.208
3739.69,623.526
3741.15,612.277
3742.6,654.022
3744.06,618.491
3745.51,617.684
3746.97,628.688
3748.42,616.518
3749.87,600.494
3751.33,606.631
3752.78,619.52
3754.24,605.974
3755.69,622.008
3757.15,622.208
3758.6,620.792
3760.05,620.061
3761.51,600.778
3762.96,609.593
3764.42,613.435
3765.87,608.813
3767.32,626.856
3768.78,612.437
3770.23,615.526
3771.69,620.625
3773.14,646.409
3774.6,623.013
3776.05,629.823
3777.5,634.495
3778.96,615.021
3780.41,631.158
3781.87,625.325
3783.32,626.45
3784.78,619.615
3786.23,627.144
3787.68,626.578
3789.14,631.478
3790.59,619.959
3792.05,634.116
3793.5,617.674
3794.96,623.6
3796.41,646.291
3797.86,637.697
3799.32,617.589
3800.77,611.848
3802.23,604.719
3803.68,643.921
3805.13,624.224
3806.59,623.508
3808.04,627.056
3809.5,621.932
3810.95,627.605
3812.41,629.911
3813.86,640.391
3815.31,634.028
3816.77,629.249
3818.22,613.014
3819.68,631.851
3821.13,638.083
3822.59,634.607
3824.04,629.618
3825.49,627.062
3826.95,634.347
3828.4,624.366
3829.86,600.866
3831.31,638.503
3832.76,623.29
3834.22,620.217
3835.67,625.853
3837.13,649.156
3838.58,609.986
3840.04,643.434
3841.49,658.884
3842.94,622.813
3844.4,637.742
3845.85,629.347
3847.31,637.896
3848.76,621.168
3850.22,658.838
3851.67,635.819
3853.12,631.294
3854.58,634.294
3856.03,638.627
3857.49,635.24
3858.94,632.001
3860.4,630.183
3861.85,631.059
3863.3,639.336
3864.76,650.683
3866.21,617.875
3867.67,640.087
3869.12,639.228
3870.57,634.288
3872.03,620.165
3873.48,630.103
3874.94,631.85
3876.39,644.818
3877.85,630.388
3879.3,636.958
3880.75,647.107
3882.21,651.337
3883.66,665.289
3885.12,659.991
3886.57,654.931
3888.03,651.283
3889.48,634.549
3890.93,643.351
3892.39,660.105
3893.84,645.942
3895.3,638.021
3896.75,634.425
3898.2,645.984
3899.66,655.335
3901.11,651.336
3902.57,671.993
3904.02,667.577
3905.48,640.697
3906.93,665.228
3908.38,663.781
3909.84,652.612
3911.29,645.289
3912.75,650.947
3914.2,666.735
3915.66,667.394
3917.11,680.905
3918.56,676.248
3920.02,676.94
3921.47,666.426
3922.93,668.54
3924.38,683.854
3925.83,667.316
3927.29,662.229
3928.74,660.657
3930.2,669.944
3931.65,677.984
3933.11,667.804
3934.56,674.829
3936.01,683.487
3937.47,668.994
3938.92,687.264
3940.38,664.273
3941.83,657.031
3943.29,668.903
3944.74,677.997
3946.19,676.843
3947.65,685.496
3949.1,686.858
3950.56,686.816
3952.01,703.071
3953.47,689.505
3954.92,688.091
3956.37,680.845
3957.83,668.806
3959.28,669.522
3960.74,695.542
3962.19,683.046
3963.64,705.186
3965.1,690.37
3966.55,706.12
3968.01,697.995
3969.46,719.181
3970.92,701.713
3972.37,701.748
3973.82,693.4
3975.28,725.714
3976.73,703.648
3978.19,700.684
3979.64,712.183
3981.1,717.326
3982.55,714.984
3984,716.767
3985.46,711.224
3986.91,702.54
3988.37,715.683
3989.82,727.252
3991.27,731.23
3992.73,744.579
3994.18,747.396
3995.64,724.484
3997.09,716.046
3998.55,726.385
4000,737.873
