-50,64.8969
-48.5458,64.4315
-47.0916,65.4452
-45.6373,61.4344
-44.1831,59.1
-42.7289,60.3162
-41.2747,61.5365
-39.8205,61.8774
-38.3662,63.1525
-36.912,65.5424
-35.4578,70.8214
-34.0036,78.1939
-32.5494,78.2288
-31.0952,82.4203
-29.6409,81.6485
-28.1867,80.689
-26.7325,83.9163
-25.2783,79.4468
-23.8241,83.3332
-22.3698,85.7139
-20.9156,88.6551
-19.4614,95.2858
-18.0072,95.9433
-16.553,103.274
-15.0987,117.185
-13.6445,136.216
-12.1903,151.955
-10.7361,178.832
-9.28187,951.24
-7.82765,140.245
-6.37343,140.245
-4.91921,140.245
-3.46499,140.245
-2.01077,140.245
-0.556553,140.245
0.897666,140.245
2.35189,140.245
3.8061,711.345
5.26032,178.174
6.71454,140.12
8.16876,125.578
9.62298,111.233
11.0772,102.475
12.5314,98.0258
13.9856,104.132
15.4399,104.603
16.8941,102.224
18.3483,97.0356
19.8025,92.9519
21.2567,85.6305
22.711,90.1742
24.1652,90.0643
25.6194,86.298
27.0736,81.5862
28.5278,81.0948
29.982,78.1338
31.4363,78.0838
32.8905,77.3553
34.3447,74.8497
35.7989,79.2578
37.2531,79.6078
38.7074,82.6462
40.1616,84.2161
41.6158,86.6572
43.07,101.93
44.5242,118.409
45.9785,151.47
47.4327,233.009
48.8869,354.021
50.3411,521.784
51.7953,758.545
53.2495,1024.4
54.7038,1275.87
56.158,1500.41
57.6122,1683.08
59.0664,1839.57
60.5206,1969.17
61.9749,2080.75
63.4291,2152.24
64.8833,2191.18
66.3375,2230.37
67.7917,2267.8
69.246,2254.92
70.7002,2222.74
72.1544,2227.62
73.6086,2260.59
75.0628,2312.62
76.5171,2368.66
77.9713,2428.11
79.4255,2468.04
80.8797,2485.89
82.3339,2470.72
83.7882,2441.68
85.2424,2391.99
86.6966,2324.92
88.1508,2232.38
89.605,2169.35
91.0592,2076.58
92.5135,1991.86
93.9677,1929.04
95.4219,1878.61
96.8761,1859.45
98.3303,1836.81
99.7846,1771.2
101.239,1715.02
102.693,1685.28
104.147,1667.54
105.601,1641.29
107.056,1621
108.51,1598.69
109.964,1592.24
111.418,1558.35
112.873,1542.36
114.327,1522.59
115.781,1488.09
117.235,1465
118.689,1439.68
120.144,1407.94
121.598,1363.95
123.052,1339.78
124.506,1352.79
125.961,1291.16
127.415,1252.7
128.869,1245.38
130.323,1252.56
131.777,1218.42
133.232,1186.3
134.686,1156.64
136.14,1132.12
137.594,1113.16
139.048,1121.51
140.503,1128.3
141.957,1101.85
143.411,1076.5
144.865,1075.43
146.32,1080.88
147.774,1067.3
149.228,1047.39
150.682,1018.89
152.136,1019.35
153.591,1021.99
155.045,1016.12
156.499,1027.42
157.953,1048.92
159.408,1036.21
160.862,1005.6
162.316,997.179
163.77,959.953
165.224,955.192
166.679,974.577
168.133,952.119
169.587,955.624
171.041,953.361
172.496,944.061
173.95,949.428
175.404,930.295
176.858,933.442
178.312,914.207
179.767,907.54
181.221,909.508
182.675,904.16
184.129,899.264
185.583,889.535
187.038,892.797
188.492,898.375
189.946,870.585
191.4,869.057
192.855,876.761
194.309,868.961
195.763,850.112
197.217,862.727
198.671,851.797
200.126,846.706
201.58,852.041
203.034,842.383
204.488,860.703
205.943,881.565
207.397,873.155
208.851,858.123
210.305,870.887
211.759,870.283
213.214,872.578
214.668,867.511
216.122,862.365
217.576,857.393
219.031,845.191
220.485,869.359
221.939,867.477
223.393,853.079
224.847,848.748
226.302,880.943
227.756,871.61
229.21,870.779
230.664,856.318
232.118,833.053
233.573,848.365
235.027,866.494
236.481,856.461
237.935,865.493
239.39,890.247
240.844,873.046
242.298,840.653
243.752,831.656
245.206,838.9
246.661,843.261
248.115,816.6
249.569,822.058
251.023,818.03
252.478,807.277
253.932,805.914
255.386,832.549
256.84,854.517
258.294,843.231
259.749,819.141
261.203,814.859
262.657,822.105
264.111,798.324
265.566,802.519
267.02,798.733
268.474,800.522
269.928,810.638
271.382,830.482
272.837,781.88
274.291,774.622
275.745,770.566
277.199,766.092
278.654,790.635
280.108,782.028
281.562,768.432
283.016,770.291
284.47,771.257
285.925,736.911
287.379,737.215
288.833,734.229
290.287,729.07
291.741,720.912
293.196,725.601
294.65,717.199
296.104,714.914
297.558,719.476
299.013,713.461
300.467,702.074
301.921,706.915
303.375,696.964
304.829,684.108
306.284,687.869
307.738,707.08
309.192,711.006
310.646,673.714
312.101,659.982
313.555,670.386
315.009,683.511
316.463,674.854
317.917,684.617
319.372,663.79
320.826,664.384
322.28,667.09
323.734,649.853
325.189,659.862
326.643,646.056
328.097,660.778
329.551,673.931
331.005,668.715
332.46,656.421
333.914,677.625
335.368,664.624
336.822,661.524
338.276,658.76
339.731,642.597
341.185,637.488
342.639,654.186
344.093,634.398
345.548,631.098
347.002,657.323
348.456,633.99
349.91,629.872
351.364,641.143
352.819,646.562
354.273,643.153
355.727,644.092
357.181,633.442
358.636,646.896
360.09,649.961
361.544,646.652
362.998,645.663
364.452,631.605
365.907,622.407
367.361,622.776
368.815,624.497
370.269,625.125
371.724,626.532
373.178,613.899
374.632,627.651
376.086,637.143
377.54,630.011
378.995,619.24
380.449,612.462
381.903,612.702
383.357,615.768
384.811,623.549
386.266,634.865
387.72,628.157
389.174,625.565
390.628,620.338
392.083,625.661
393.537,634.421
394.991,631.26
396.445,627.524
397.899,629.881
399.354,636.657
400.808,631.796
402.262,618.079
403.716,611.155
405.171,627.018
406.625,628.958
408.079,610.089
409.533,606.024
410.987,637.598
412.442,612.946
413.896,623.339
415.35,622.548
416.804,624.862
418.259,628.548
419.713,631.043
421.167,648.472
422.621,619.021
424.075,614.905
425.53,624.223
426.984,625.43
428.438,635.372
429.892,634.448
431.346,627.27
432.801,625.033
434.255,617.559
435.709,598.963
437.163,606.62
438.618,622.842
440.072,615.773
441.526,602.481
442.98,600.87
444.434,611.597
445.889,611.088
447.343,613.448
448.797,608.46
450.251,612.226
451.706,625.096
453.16,609.064
454.614,620.995
456.068,618.812
457.522,613.753
458.977,603.784
460.431,594.278
461.885,611.908
463.339,634.64
464.794,625.381
466.248,631.071
467.702,632.045
469.156,598.748
470.61,601.86
472.065,625.991
473.519,630.559
474.973,625.641
476.427,623.586
477.882,615.322
479.336,607.401
480.79,613.824
482.244,606.473
483.698,604.876
485.153,615.95
486.607,606.741
488.061,626.135
489.515,617.002
490.969,598.05
492.424,594.786
493.878,618.193
495.332,596.395
496.786,592.371
498.241,607.275
499.695,602.432
501.149,587.474
502.603,592.179
504.057,598.502
505.512,602.543
506.966,600.781
508.42,599.587
509.874,598.474
511.329,580.364
512.783,586.197
514.237,579.605
515.691,603.698
517.145,609.21
518.6,591.512
520.054,575.902
521.508,587.865
522.962,588.132
524.417,585.699
525.871,576.461
527.325,572.537
528.779,577.619
530.233,599.013
531.688,592.701
533.142,584.623
534.596,587.819
536.05,585.764
537.505,598.753
538.959,600.617
540.413,598.799
541.867,593.476
543.321,595.096
544.776,584.846
546.23,587.976
547.684,576.503
549.138,579.896
550.592,598.546
552.047,599.573
553.501,590.602
554.955,585.163
556.409,574.814
557.864,566.654
559.318,564.32
560.772,572.632
562.226,583.736
563.68,601.663
565.135,599.936
566.589,595.03
568.043,601.47
569.497,594.719
570.952,575.914
572.406,586.643
573.86,600.709
575.314,588.472
576.768,582.834
578.223,584.63
579.677,574.418
581.131,587.047
582.585,588.059
584.039,584.212
585.494,580.836
586.948,581.555
588.402,579.627
589.856,576.289
591.311,569.991
592.765,587.916
594.219,574.996
595.673,568.009
597.127,569.48
598.582,570.731
600.036,581.402
601.49,587.301
602.944,591.803
604.399,584.091
605.853,583.197
607.307,591.193
608.761,578.676
610.215,587.836
611.67,605.002
613.124,596.144
614.578,584.749
616.032,605.395
617.487,601.665
618.941,586.737
620.395,589.195
621.849,587.915
623.303,592.441
624.758,604.87
626.212,614
627.666,600.375
629.12,585.745
630.575,600.748
632.029,604.713
633.483,594.26
634.937,575.472
636.391,596.022
637.846,607.945
639.3,602.776
640.754,605.485
642.208,606.961
643.662,617.116
645.117,602.53
646.571,607.887
648.025,620.323
649.479,611.68
650.934,606.965
652.388,613.024
653.842,599.956
655.296,614.14
656.75,622.582
658.205,613.731
659.659,611.632
661.113,612.282
662.567,607.322
664.022,621.447
665.476,619.628
666.93,615.68
668.384,628.999
669.838,632.344
671.293,610.212
672.747,623.138
674.201,626.273
675.655,612.958
677.109,620.851
678.564,621.326
680.018,629.445
681.472,630.844
682.926,626.021
684.381,622.596
685.835,624.193
687.289,625.074
688.743,615.894
690.198,610.268
691.652,631.619
693.106,626.547
694.56,628.701
696.014,631.216
697.469,630.526
698.923,634.339
700.377,630.701
701.831,632.022
703.285,609.957
704.74,622.561
706.194,626.401
707.648,631.395
709.102,627.051
710.557,626.137
712.011,631.272
713.465,637.086
714.919,619.419
716.373,614.698
717.828,629.278
719.282,636.055
720.736,613.444
722.19,611.655
723.645,617.143
725.099,628.306
726.553,642.207
728.007,651.048
729.461,629.206
730.916,633.691
732.37,635.912
733.824,633.452
735.278,640.7
736.732,638.247
738.187,616.89
739.641,644.727
741.095,640.777
742.549,636.683
744.004,640.901
745.458,637.847
746.912,638.054
748.366,642.226
749.82,627.797
751.275,625.954
752.729,630.892
754.183,643.571
755.637,651.683
757.092,639.022
758.546,626.449
760,643.476
761.454,642.432
762.908,629.216
764.363,619.816
765.817,616.231
767.271,634.379
768.725,641.06
770.18,637.692
771.634,629.026
773.088,645.077
774.542,652.392
775.996,637.955
777.451,634.067
778.905,635.031
780.359,645.653
781.813,625.769
783.268,643.859
784.722,650.414
786.176,645.84
787.63,651.367
789.084,640.324
790.539,660.943
791.993,641.599
793.447,633.419
794.901,632.195
796.355,649.521
797.81,662
799.264,649.228
800.718,657.063
802.172,647.701
803.627,661.072
805.081,658.463
806.535,656.34
807.989,672.482
809.443,668.356
810.898,641.754
812.352,655.484
813.806,663.671
815.26,665.534
816.715,662.228
818.169,647.616
819.623,667.376
821.077,677.293
822.531,664.453
823.986,677.035
825.44,688.871
826.894,679.98
828.348,679.657
829.802,660.838
831.257,671.198
832.711,704.558
834.165,685.463
835.619,666.294
837.074,676.15
838.528,680.555
839.982,674.99
841.436,686.722
842.891,696.545
844.345,700.308
845.799,721.487
847.253,727.329
848.707,706.748
850.162,686.994
851.616,690.597
853.07,689.999
854.524,724.728
855.978,732.974
857.433,710.37
858.887,694.476
860.341,699.578
861.795,702.028
863.25,698.189
864.704,691.379
866.158,691.029
867.612,683.151
869.066,681.923
870.521,676.979
871.975,664.825
873.429,684.636
874.883,706.524
876.338,684.144
877.792,689.551
879.246,697.226
880.7,700.312
882.154,700.48
883.609,724.183
885.063,732.481
886.517,715.898
887.971,691.425
889.425,689.996
890.88,702.537
892.334,704.312
893.788,706.437
895.242,704.848
896.697,705.052
898.151,710.44
899.605,696.054
901.059,701.21
902.513,716.419
903.968,716.184
905.422,715.948
906.876,724.483
908.33,725.486
909.785,717.398
911.239,713.81
912.693,711.955
914.147,731.134
915.601,733.64
917.056,717.03
918.51,727.528
919.964,730
921.418,733.929
922.873,742.635
924.327,739.902
925.781,732.721
927.235,728.911
928.689,724.347
930.144,745.831
931.598,757.799
933.052,746.283
934.506,732.95
935.961,732.732
937.415,727.697
938.869,734.04
940.323,739.914
941.777,741.946
943.232,741.358
944.686,741.509
946.14,739.875
947.594,722.408
949.048,731.705
950.503,741.858
951.957,737.345
953.411,756.482
954.865,746.214
956.32,738.981
957.774,730.984
959.228,719.622
960.682,730.506
962.136,757.886
963.591,741.395
965.045,734.845
966.499,743.281
967.953,741.267
969.408,731.52
970.862,734.753
972.316,727.556
973.77,738.291
975.224,739.104
976.679,745.558
978.133,738.027
979.587,738.675
981.041,758.553
982.495,762.026
983.95,773.359
985.404,775.152
986.858,744.455
988.312,749.567
989.767,765.059
991.221,773.109
992.675,773.436
994.129,761.098
995.583,758.443
997.038,777.992
998.492,799.762
999.946,794.904
1001.4,796.45
1002.85,784.316
1004.31,776.782
1005.76,788.89
1007.22,784.698
1008.67,774.004
1010.13,798.846
1011.58,780.634
1013.03,778.533
1014.49,796.706
1015.94,814.115
1017.4,822.687
1018.85,826.777
1020.31,833.913
1021.76,821.27
1023.21,829.81
1024.67,835.205
1026.12,828.062
1027.58,834.114
1029.03,848.372
1030.48,850.624
1031.94,864.674
1033.39,865.165
1034.85,861.95
1036.3,877.267
1037.76,884.722
1039.21,881.672
1040.66,889.832
1042.12,895.939
1043.57,921.224
1045.03,893.827
1046.48,877.087
1047.94,888.908
1049.39,912.19
1050.84,927.458
1052.3,943.605
1053.75,954.78
1055.21,958.564
1056.66,951.633
1058.11,957.768
1059.57,945.298
1061.02,964.98
1062.48,978.565
1063.93,992.215
1065.39,1002.99
1066.84,1005.48
1068.29,1020.68
1069.75,1023.11
1071.2,1050.35
1072.66,1047.06
1074.11,1040.46
1075.57,1049.71
1077.02,1039.17
1078.47,1045.56
1079.93,1098.65
1081.38,1085.82
1082.84,1093.75
1084.29,1066.98
1085.75,1071.97
1087.2,1066.32
1088.65,1067.84
1090.11,1084.99
1091.56,1086.38
1093.02,1072.56
1094.47,1107.67
1095.92,1068.84
1097.38,1060.49
1098.83,1064.46
1100.29,1060.76
1101.74,1062.25
1103.2,1069.46
1104.65,1059.89
1106.1,1033.3
1107.56,1005.48
1109.01,1022.4
1110.47,1008.31
1111.92,1020.46
1113.38,1016.16
1114.83,1031.56
1116.28,1045.15
1117.74,1033.45
1119.19,1010.15
1120.65,1001.9
1122.1,1000.92
1123.55,985.358
1125.01,995.907
1126.46,1006.36
1127.92,1004.79
1129.37,986.926
1130.83,996.742
1132.28,1008.03
1133.73,979.509
1135.19,982.748
1136.64,965.848
1138.1,988.396
1139.55,999.17
1141.01,982.019
1142.46,969.285
1143.91,970.243
1145.37,978.003
1146.82,956.54
1148.28,990.813
1149.73,960.195
1151.18,970.294
1152.64,996.159
1154.09,991.027
1155.55,984.246
1157,988.2
1158.46,998.441
1159.91,994.356
1161.36,1007.19
1162.82,1009.71
1164.27,1002.41
1165.73,994.165
1167.18,978.233
1168.64,976.608
1170.09,988.039
1171.54,993.765
1173,999.158
1174.45,1001.66
1175.91,999.453
1177.36,991.692
1178.82,1008.32
1180.27,1002.53
1181.72,1003.97
1183.18,1014.23
1184.63,1023.66
1186.09,1034.01
1187.54,1041.96
1188.99,1053.31
1190.45,1028.2
1191.9,1000.94
1193.36,1031.96
1194.81,1042.45
1196.27,1030.32
1197.72,1016
1199.17,1019.35
1200.63,1041.57
1202.08,1044.92
1203.54,1049.15
1204.99,1046.39
1206.45,1048.2
1207.9,1062.86
1209.35,1078.55
1210.81,1068.45
1212.26,1052.29
1213.72,1055.68
1215.17,1065.36
1216.62,1058.02
1218.08,1048.59
1219.53,1042.18
1220.99,1058.76
1222.44,1086.18
1223.9,1089.05
1225.35,1066.85
1226.8,1052.4
1228.26,1073.96
1229.71,1085.8
1231.17,1076.4
1232.62,1101.53
1234.08,1117.27
1235.53,1100.09
1236.98,1080.94
1238.44,1087.92
1239.89,1115.22
1241.35,1134.72
1242.8,1133.4
1244.25,1151.51
1245.71,1141.83
1247.16,1140.08
1248.62,1161.49
1250.07,1172.75
1251.53,1177.1
1252.98,1170.44
1254.43,1179.62
1255.89,1178.55
1257.34,1168.34
1258.8,1197
1260.25,1212.81
1261.71,1257.77
1263.16,1275.44
1264.61,1282.39
1266.07,1301.36
1267.52,1291.5
1268.98,1283.17
1270.43,1305.94
1271.89,1348.01
1273.34,1386.37
1274.79,1380.19
1276.25,1391.76
1277.7,1401.52
1279.16,1448.03
1280.61,1482.57
1282.06,1491.19
1283.52,1494.17
1284.97,1545.35
1286.43,1588.92
1287.88,1608.19
1289.34,1669.79
1290.79,1733.56
1292.24,1721.24
1293.7,1783.41
1295.15,1824.05
1296.61,1881.85
1298.06,1945.85
1299.52,2037.24
1300.97,2106.58
1302.42,2161.62
1303.88,2239.01
1305.33,2308.8
1306.79,2460.59
1308.24,2549.71
1309.69,2656.82
1311.15,2766.43
1312.6,2906.05
1314.06,3038.34
1315.51,3164.59
1316.97,3276.66
1318.42,3378.65
1319.87,3484.58
1321.33,3566.2
1322.78,3755.45
1324.24,3888.56
1325.69,4001.52
1327.15,4007.54
1328.6,4133.51
1330.05,4162.54
1331.51,4130.54
1332.96,4138.86
1334.42,4112.99
1335.87,4057.98
1337.32,4034.8
1338.78,3954.43
1340.23,3871.63
1341.69,3755
1343.14,3616.79
1344.6,3453.78
1346.05,3351.71
1347.5,3229.9
1348.96,3109.26
1350.41,2972.01
1351.87,2843.68
1353.32,2743.82
1354.78,2622.85
1356.23,2508.73
1357.68,2396.08
1359.14,2301.47
1360.59,2217.75
1362.05,2157.51
1363.5,2059.14
1364.96,2018.39
1366.41,1976.78
1367.86,1913.63
1369.32,1864.97
1370.77,1802.83
1372.23,1760.68
1373.68,1732.83
1375.13,1727.82
1376.59,1691.36
1378.04,1645.94
1379.5,1622.68
1380.95,1612.23
1382.41,1573.8
1383.86,1545.25
1385.31,1540.29
1386.77,1535.86
1388.22,1512.55
1389.68,1490.62
1391.13,1469.66
1392.59,1447.32
1394.04,1485.01
1395.49,1450.93
1396.95,1451.6
1398.4,1447.23
1399.86,1430.17
1401.31,1423.42
1402.76,1408.2
1404.22,1408.99
1405.67,1434.37
1407.13,1415.62
1408.58,1390.46
1410.04,1396.76
1411.49,1419.05
1412.94,1394.77
1414.4,1412.47
1415.85,1414.8
1417.31,1401.42
1418.76,1394.17
1420.22,1412.23
1421.67,1434.58
1423.12,1423.57
1424.58,1419.48
1426.03,1423.68
1427.49,1412.2
1428.94,1448.49
1430.4,1446.81
1431.85,1440.72
1433.3,1456.47
1434.76,1457.08
1436.21,1472.2
1437.67,1460.45
1439.12,1466.68
1440.57,1489.1
1442.03,1493.08
1443.48,1501.68
1444.94,1517.23
1446.39,1535.4
1447.85,1516.4
1449.3,1531.84
1450.75,1526.67
1452.21,1533.97
1453.66,1550.48
1455.12,1577.26
1456.57,1590.46
1458.03,1596.17
1459.48,1607.48
1460.93,1617.64
1462.39,1633.72
1463.84,1626.28
1465.3,1657.2
1466.75,1687.12
1468.2,1711.37
1469.66,1697.95
1471.11,1731.27
1472.57,1760.71
1474.02,1735.15
1475.48,1768.02
1476.93,1802.32
1478.38,1795.05
1479.84,1822.27
1481.29,1876.63
1482.75,1868.12
1484.2,1940.34
1485.66,1953.65
1487.11,1998.39
1488.56,2032.7
1490.02,2065.5
1491.47,2086.94
1492.93,2130.54
1494.38,2197.75
1495.83,2188.68
1497.29,2242.79
1498.74,2326.96
1500.2,2385
1501.65,2453.36
1503.11,2513.86
1504.56,2563.46
1506.01,2585.68
1507.47,2682.69
1508.92,2789.26
1510.38,2906.06
1511.83,2973.79
1513.29,3062.91
1514.74,3188.35
1516.19,3343.19
1517.65,3514
1519.1,3712.92
1520.56,3917.03
1522.01,4096.71
1523.46,4246.79
1524.92,4527
1526.37,4812.01
1527.83,5183.43
1529.28,5555.91
1530.74,5947.39
1532.19,6286.73
1533.64,6890.14
1535.1,7466.58
1536.55,8063.71
1538.01,8715.25
1539.46,9484.62
1540.92,10372.2
1542.37,11180.3
1543.82,12061.9
1545.28,13113.9
1546.73,14175.4
1548.19,15237.9
1549.64,16408.1
1551.1,17570.8
1552.55,18576.1
1554,19886.1
1555.46,20919.1
1556.91,21967
1558.37,22928.3
1559.82,23622.9
1561.27,24313.9
1562.73,24710.3
1564.18,24879.6
1565.64,24852.1
1567.09,24420.1
1568.55,23837.3
1570,23002.5
1571.45,21841
1572.91,20817.5
1574.36,19580.5
1575.82,18331.3
1577.27,16975.8
1578.73,15695.3
1580.18,14507.7
1581.63,13416.4
1583.09,12295.4
1584.54,11248.2
1586,10349.3
1587.45,9626.25
1588.9,8945.93
1590.36,8229.19
1591.81,7683.48
1593.27,7171.91
1594.72,6752.76
1596.18,6417.23
1597.63,6008.86
1599.08,5713.26
1600.54,5414.2
1601.99,5173.81
1603.45,4964.89
1604.9,4715.48
1606.36,4485.65
1607.81,4259.24
1609.26,4061.19
1610.72,3832.99
1612.17,3647.2
1613.63,3500.98
1615.08,3355.65
1616.54,3193.6
1617.99,3015.11
1619.44,2921.96
1620.9,2791.77
1622.35,2642.22
1623.81,2604.35
1625.26,2482.86
1626.71,2441.17
1628.17,2313.27
1629.62,2288.57
1631.08,2210.21
1632.53,2144.62
1633.99,2099.96
1635.44,2047.5
1636.89,2004.71
1638.35,1938.22
1639.8,1878.73
1641.26,1858.15
1642.71,1844.9
1644.17,1812.4
1645.62,1816.07
1647.07,1796.58
1648.53,1777.24
1649.98,1717.47
1651.44,1701.76
1652.89,1660.68
1654.34,1657.85
1655.8,1625.72
1657.25,1582.65
1658.71,1581.12
1660.16,1573.35
1661.62,1548.49
1663.07,1530.12
1664.52,1503.88
1665.98,1486.57
1667.43,1477.12
1668.89,1465.12
1670.34,1488.15
1671.8,1438.7
1673.25,1407.84
1674.7,1405.46
1676.16,1383.25
1677.61,1357.87
1679.07,1385.73
1680.52,1378
1681.97,1345.63
1683.43,1348.48
1684.88,1345.78
1686.34,1324.79
1687.79,1299.74
1689.25,1293.44
1690.7,1288.62
1692.15,1290.22
1693.61,1283.32
1695.06,1293.18
1696.52,1277.91
1697.97,1254.43
1699.43,1238.9
1700.88,1251.66
1702.33,1250.25
1703.79,1266.57
1705.24,1223.47
1706.7,1239.17
1708.15,1217.84
1709.6,1213.38
1711.06,1209.43
1712.51,1224.06
1713.97,1235.18
1715.42,1209.39
1716.88,1195.89
1718.33,1175.53
1719.78,1204.97
1721.24,1199.88
1722.69,1202.38
1724.15,1199.52
1725.6,1196.66
1727.06,1198.88
1728.51,1196.33
1729.96,1197.47
1731.42,1207.9
1732.87,1197.63
1734.33,1179.77
1735.78,1180.02
1737.24,1178.18
1738.69,1149.46
1740.14,1132.07
1741.6,1166.46
1743.05,1137.29
1744.51,1154.94
1745.96,1141.12
1747.41,1157.76
1748.87,1144.59
1750.32,1157.8
1751.78,1140.64
1753.23,1119.42
1754.69,1137.34
1756.14,1126.21
1757.59,1112.81
1759.05,1116.07
1760.5,1109.63
1761.96,1100.47
1763.41,1088.1
1764.87,1100.45
1766.32,1117.18
1767.77,1089.09
1769.23,1097.39
1770.68,1118.75
1772.14,1094.06
1773.59,1080.97
1775.04,1074.71
1776.5,1072.3
1777.95,1086.61
1779.41,1055.58
1780.86,1065.69
1782.32,1069.99
1783.77,1047.88
1785.22,1045.2
1786.68,1057.09
1788.13,1059.06
1789.59,1031.7
1791.04,1073.18
1792.5,1090.35
1793.95,1070.25
1795.4,1060.83
1796.86,1054.79
1798.31,1037.78
1799.77,1049.85
1801.22,1067.55
1802.68,1054.27
1804.13,1050.92
1805.58,1018.77
1807.04,1032.25
1808.49,1015.8
1809.95,1034.33
1811.4,1028.28
1812.85,1019.32
1814.31,1020.11
1815.76,1023.93
1817.22,1013.71
1818.67,999
1820.13,1007.35
1821.58,1034.64
1823.03,1022.52
1824.49,1038.15
1825.94,1021.55
1827.4,1053.84
1828.85,1030.54
1830.31,1033.66
1831.76,1027.97
1833.21,1026.93
1834.67,1048.3
1836.12,1044.32
1837.58,1042.37
1839.03,1064.49
1840.48,1064.21
1841.94,1078.81
1843.39,1063.69
1844.85,1056.51
1846.3,1078.15
1847.76,1076.71
1849.21,1100.07
1850.66,1086.73
1852.12,1076.3
1853.57,1076
1855.03,1094.52
1856.48,1101.51
1857.94,1092.09
1859.39,1081.37
1860.84,1066.26
1862.3,1094.9
1863.75,1065.29
1865.21,1093.78
1866.66,1085.44
1868.11,1103.47
1869.57,1071.9
1871.02,1067.09
1872.48,1089.58
1873.93,1082.03
1875.39,1085.97
1876.84,1087.35
1878.29,1052.89
1879.75,1061.67
1881.2,1065.16
1882.66,1057.83
1884.11,1055.78
1885.57,1042.8
1887.02,1022.08
1888.47,1042.7
1889.93,1050.48
1891.38,1047.7
1892.84,1052.73
1894.29,1044.15
1895.75,1015.76
1897.2,992.798
1898.65,994.407
1900.11,1003.77
1901.56,984.989
1903.02,973.701
1904.47,983.993
1905.92,972.707
1907.38,968.397
1908.83,995.862
1910.29,980.022
1911.74,1005.7
1913.2,979.467
1914.65,1007.65
1916.1,1012.11
1917.56,978.106
1919.01,985.475
1920.47,942.967
1921.92,967.299
1923.38,967.397
1924.83,955.035
1926.28,966.445
1927.74,989.267
1929.19,993.495
1930.65,990.498
1932.1,968.967
1933.55,987.406
1935.01,983.201
1936.46,948.051
1937.92,972.083
1939.37,970.251
1940.83,965.191
1942.28,982.196
1943.73,990.561
1945.19,978.685
1946.64,997.974
1948.1,1003.05
1949.55,977.251
1951.01,970.265
1952.46,967.264
1953.91,972.914
1955.37,982.252
1956.82,975.425
1958.28,982.658
1959.73,985.383
1961.18,995.364
1962.64,1001.8
1964.09,1022.99
1965.55,1002.46
1967,983.319
1968.46,993.533
1969.91,993.856
1971.36,992.872
1972.82,979.82
1974.27,994.579
1975.73,1000.83
1977.18,1014.04
1978.64,1002.72
1980.09,995.428
1981.54,994.303
1983,1004.67
1984.45,1031.18
1985.91,1027.48
1987.36,1052.02
1988.82,1021.53
1990.27,1024.86
1991.72,1038.91
1993.18,1016.12
1994.63,1015.73
1996.09,1018.34
1997.54,1049.85
1998.99,1006.49
2000.45,1029.92
2001.9,1007.73
2003.36,1015.43
2004.81,1005.09
2006.27,1038.47
2007.72,1021.67
2009.17,1014.22
2010.63,1018.6
2012.08,1015.11
2013.54,1023.71
2014.99,1004.98
2016.45,984.001
2017.9,1002.94
2019.35,1008.14
2020.81,1006.92
2022.26,1008.21
2023.72,993.414
2025.17,991.432
2026.62,1007.96
2028.08,981.649
2029.53,982.623
2030.99,988.624
2032.44,969.338
2033.9,985.005
2035.35,993.204
2036.8,998.253
2038.26,963.641
2039.71,955.098
2041.17,960.984
2042.62,943.301
2044.08,961.18
2045.53,964.832
2046.98,940.293
2048.44,942.137
2049.89,946.676
2051.35,943.659
2052.8,944.089
2054.25,940.825
2055.71,944.042
2057.16,930.06
2058.62,935.429
2060.07,950.202
2061.53,941.045
2062.98,920.279
2064.43,925.81
2065.89,935.816
2067.34,920.145
2068.8,913.99
2070.25,914.01
2071.71,886.221
2073.16,899.548
2074.61,913.898
2076.07,901.807
2077.52,879.357
2078.98,888.811
2080.43,907.666
2081.89,907.814
2083.34,898.196
2084.79,909.93
2086.25,913.635
2087.7,907.224
2089.16,896.568
2090.61,899.107
2092.06,914.194
2093.52,920.882
2094.97,904.272
2096.43,905.465
2097.88,898.437
2099.34,893.696
2100.79,907.218
2102.24,909.023
2103.7,911.063
2105.15,906.102
2106.61,899.879
2108.06,915.318
2109.52,920.119
2110.97,920.303
2112.42,923.837
2113.88,917.581
2115.33,905.775
2116.79,921.432
2118.24,926.236
2119.69,933.022
2121.15,922.861
2122.6,902.522
2124.06,906.728
2125.51,918.953
2126.97,925.019
2128.42,906.305
2129.87,912.077
2131.33,928.789
2132.78,903.885
2134.24,913.126
2135.69,910.308
2137.15,910.742
2138.6,916.666
2140.05,916.337
2141.51,930.075
2142.96,934.083
2144.42,929.963
2145.87,935.895
2147.32,932.957
2148.78,924.665
2150.23,930.876
2151.69,941.012
2153.14,929.122
2154.6,940.822
2156.05,939.173
2157.5,929.947
2158.96,941.312
2160.41,946.492
2161.87,945.862
2163.32,960.155
2164.78,942.272
2166.23,948.567
2167.68,938.813
2169.14,959.26
2170.59,953.246
2172.05,953.477
2173.5,972.198
2174.96,967.621
2176.41,962.322
2177.86,946.997
2179.32,963.685
2180.77,974.727
2182.23,972.077
2183.68,962.919
2185.13,992.048
2186.59,977.567
2188.04,970.915
2189.5,985.829
2190.95,964.787
2192.41,975.936
2193.86,974.222
2195.31,977.897
2196.77,987.936
2198.22,963.124
2199.68,966.746
2201.13,999.204
2202.59,984.756
2204.04,980.671
2205.49,983.398
2206.95,962.818
2208.4,959.392
2209.86,974.283
2211.31,984.765
2212.76,1011.11
2214.22,979.759
2215.67,987.964
2217.13,982.702
2218.58,991.787
2220.04,968.408
2221.49,969.827
2222.94,986.841
2224.4,982.497
2225.85,969.988
2227.31,983.862
2228.76,995.048
2230.22,977.32
2231.67,980.216
2233.12,992.97
2234.58,993.492
2236.03,1005.05
2237.49,1016.16
2238.94,1005.57
2240.4,1019.35
2241.85,1014.08
2243.3,998.693
2244.76,982.592
2246.21,987.803
2247.67,994.867
2249.12,1001.64
2250.57,1008.56
2252.03,1018.54
2253.48,1005.34
2254.94,1004.62
2256.39,1007.21
2257.85,1011.71
2259.3,1003.02
2260.75,1027.28
2262.21,1024.35
2263.66,1010.08
2265.12,1018.99
2266.57,1016.42
2268.03,1014.65
2269.48,1025.86
2270.93,1006.78
2272.39,1012.66
2273.84,1019.98
2275.3,1025.09
2276.75,1034.19
2278.2,1056.83
2279.66,1050.1
2281.11,1035.33
2282.57,1045.88
2284.02,1018.35
2285.48,1070.48
2286.93,1054.03
2288.38,1053.22
2289.84,1056.24
2291.29,1069.8
2292.75,1061.53
2294.2,1071.04
2295.66,1071.08
2297.11,1091.53
2298.56,1110.94
2300.02,1090.18
2301.47,1077.91
2302.93,1076.69
2304.38,1097.15
2305.83,1092.22
2307.29,1119.11
2308.74,1117.42
2310.2,1089.18
2311.65,1098
2313.11,1105.04
2314.56,1102.09
2316.01,1135.02
2317.47,1134.17
2318.92,1116.91
2320.38,1118.24
2321.83,1095.58
2323.29,1132.42
2324.74,1144.3
2326.19,1143.39
2327.65,1158.72
2329.1,1164.33
2330.56,1160.09
2332.01,1164.43
2333.47,1149.15
2334.92,1167.96
2336.37,1159.34
2337.83,1173.66
2339.28,1163.66
2340.74,1174.86
2342.19,1189.37
2343.64,1175.73
2345.1,1200.74
2346.55,1222.79
2348.01,1211.46
2349.46,1211.47
2350.92,1249.25
2352.37,1220.69
2353.82,1207.29
2355.28,1228.53
2356.73,1236.14
2358.19,1234.03
2359.64,1270.41
2361.1,1265.11
2362.55,1276.5
2364,1290.42
2365.46,1307.7
2366.91,1310.86
2368.37,1319.85
2369.82,1339.62
2371.27,1337.87
2372.73,1348.34
2374.18,1375.76
2375.64,1378.79
2377.09,1385.04
2378.55,1373.84
2380,1409.78
2381.45,1403.19
2382.91,1444.8
2384.36,1481.8
2385.82,1509.39
2387.27,1480.69
2388.73,1540.03
2390.18,1523.42
2391.63,1559.44
2393.09,1617.46
2394.54,1654.51
2396,1621.63
2397.45,1679.38
2398.9,1738.26
2400.36,1746.49
2401.81,1739.43
2403.27,1780.57
2404.72,1815.64
2406.18,1843.39
2407.63,1845.16
2409.08,1881.41
2410.54,1934.36
2411.99,1971.82
2413.45,1978.12
2414.9,1939.21
2416.36,1966.19
2417.81,2032.55
2419.26,2019.39
2420.72,1973.18
2422.17,2049.17
2423.63,2052.55
2425.08,2068.16
2426.53,2114.22
2427.99,2126.91
2429.44,2074.06
2430.9,2120.42
2432.35,2084.43
2433.81,2094.39
2435.26,2108.85
2436.71,2109.13
2438.17,2082.14
2439.62,2047.01
2441.08,2041.86
2442.53,2039.92
2443.99,2048.19
2445.44,2006.88
2446.89,1967.72
2448.35,1947.77
2449.8,1966.87
2451.26,1936.04
2452.71,1923.03
2454.17,1935.14
2455.62,1975.29
2457.07,1954.3
2458.53,1907.58
2459.98,1888.71
2461.44,1913.67
2462.89,1883.93
2464.34,1871.46
2465.8,1859.14
2467.25,1858.43
2468.71,1860.12
2470.16,1845.56
2471.62,1837.03
2473.07,1835.38
2474.52,1826.41
2475.98,1806.02
2477.43,1776.6
2478.89,1778.77
2480.34,1805.89
2481.8,1801.02
2483.25,1748.13
2484.7,1770.11
2486.16,1759.45
2487.61,1779.51
2489.07,1794.11
2490.52,1759.04
2491.97,1812.49
2493.43,1789.87
2494.88,1773.27
2496.34,1771.66
2497.79,1758.87
2499.25,1756.04
2500.7,1799.64
2502.15,1805.33
2503.61,1807.78
2505.06,1800.29
2506.52,1810.33
2507.97,1827.27
2509.43,1810.33
2510.88,1829.02
2512.33,1846.29
2513.79,1827.72
2515.24,1868.39
2516.7,1876.16
2518.15,1826.04
2519.6,1843.07
2521.06,1867.37
2522.51,1877.06
2523.97,1903.35
2525.42,1907.93
2526.88,1889.65
2528.33,1905.24
2529.78,1957.46
2531.24,1993.36
2532.69,1975.18
2534.15,1986.79
2535.6,2030.03
2537.06,2038.07
2538.51,2071.09
2539.96,2063.87
2541.42,2132.08
2542.87,2093.97
2544.33,2127.51
2545.78,2170.01
2547.24,2193.77
2548.69,2186.81
2550.14,2199.06
2551.6,2262.54
2553.05,2297.44
2554.51,2288.81
2555.96,2357.52
2557.41,2405.47
2558.87,2403.47
2560.32,2440.35
2561.78,2503.45
2563.23,2558.01
2564.69,2566.6
2566.14,2604.45
2567.59,2648.89
2569.05,2720.26
2570.5,2764.99
2571.96,2810.92
2573.41,2921.47
2574.87,2955.76
2576.32,3031.03
2577.77,3072.12
2579.23,3118.33
2580.68,3208.21
2582.14,3268.26
2583.59,3363.11
2585.04,3449.83
2586.5,3511.48
2587.95,3610.7
2589.41,3672.9
2590.86,3853.01
2592.32,3914.91
2593.77,4032.07
2595.22,4181.9
2596.68,4323.32
2598.13,4442.34
2599.59,4588.13
2601.04,4751.75
2602.5,4909.84
2603.95,5125.5
2605.4,5278.81
2606.86,5438.21
2608.31,5588.43
2609.77,5807.75
2611.22,6037.43
2612.68,6258.23
2614.13,6468.33
2615.58,6776.09
2617.04,7032.27
2618.49,7373.03
2619.95,7584.57
2621.4,7897.58
2622.85,8203.23
2624.31,8457.75
2625.76,8850.84
2627.22,9177.26
2628.67,9555.5
2630.13,9944.93
2631.58,10324
2633.03,10658.4
2634.49,11094.7
2635.94,11421
2637.4,11830.2
2638.85,12200.7
2640.31,12574
2641.76,12924
2643.21,13308.7
2644.67,13713.5
2646.12,14044.4
2647.58,14353.8
2649.03,14649.6
2650.48,14891.1
2651.94,15077.7
2653.39,15256
2654.85,15523.3
2656.3,15539.1
2657.76,15710.7
2659.21,15779.5
2660.66,15920.5
2662.12,15869.9
2663.57,15906.7
2665.03,15708.4
2666.48,15562.4
2667.94,15399.3
2669.39,15169.9
2670.84,15009.5
2672.3,14716.9
2673.75,14377
2675.21,14206.6
2676.66,13721.1
2678.11,13494.6
2679.57,13002.4
2681.02,12596.7
2682.48,12289.3
2683.93,11859.3
2685.39,11432
2686.84,11013.3
2688.29,10647.1
2689.75,10264.1
2691.2,9881.87
2692.66,9421.53
2694.11,9035.67
2695.57,8706.94
2697.02,8373.67
2698.47,8037.61
2699.93,7796.89
2701.38,7433.87
2702.84,7056.27
2704.29,6786.53
2705.75,6524.22
2707.2,6280.09
2708.65,5983.87
2710.11,5739.56
2711.56,5489.87
2713.02,5301.56
2714.47,5142.78
2715.92,5000.82
2717.38,4805.04
2718.83,4590.46
2720.29,4406.62
2721.74,4251.11
2723.2,4099.15
2724.65,4010.56
2726.1,3855.83
2727.56,3691.78
2729.01,3578.37
2730.47,3425.21
2731.92,3373.65
2733.38,3251.26
2734.83,3184.49
2736.28,3090.06
2737.74,3041.51
2739.19,2924.37
2740.65,2884.47
2742.1,2823.01
2743.55,2740.69
2745.01,2688.68
2746.46,2613.94
2747.92,2543.66
2749.37,2521.66
2750.83,2508.83
2752.28,2416.3
2753.73,2404.19
2755.19,2332.88
2756.64,2298.83
2758.1,2241.78
2759.55,2207.61
2761.01,2154.87
2762.46,2143.92
2763.91,2119.51
2765.37,2079.59
2766.82,2067.1
2768.28,2044.19
2769.73,1987.84
2771.18,1977.47
2772.64,1974.3
2774.09,1942.04
2775.55,1866.25
2777,1859.34
2778.46,1858.19
2779.91,1861.82
2781.36,1810.87
2782.82,1777.14
2784.27,1772.15
2785.73,1782.38
2787.18,1771.14
2788.64,1747.17
2790.09,1744.14
2791.54,1711.62
2793,1706.73
2794.45,1679.15
2795.91,1663.69
2797.36,1674.56
2798.82,1655.55
2800.27,1639.64
2801.72,1604.39
2803.18,1591.32
2804.63,1594.51
2806.09,1557.28
2807.54,1575.6
2808.99,1606.26
2810.45,1575.01
2811.9,1564.54
2813.36,1541.37
2814.81,1529.64
2816.27,1555.35
2817.72,1533.59
2819.17,1499.12
2820.63,1495.17
2822.08,1503.47
2823.54,1495.74
2824.99,1483.55
2826.45,1484.34
2827.9,1482.11
2829.35,1451.16
2830.81,1464.71
2832.26,1436.76
2833.72,1430.06
2835.17,1435.94
2836.62,1433.77
2838.08,1448.53
2839.53,1443.49
2840.99,1443.51
2842.44,1446.82
2843.9,1438.25
2845.35,1412.77
2846.8,1424.65
2848.26,1421.9
2849.71,1428.89
2851.17,1447.79
2852.62,1439.7
2854.08,1440.04
2855.53,1412.22
2856.98,1394.83
2858.44,1450.29
2859.89,1431.05
2861.35,1410.21
2862.8,1395.46
2864.25,1415.82
2865.71,1406.7
2867.16,1390.15
2868.62,1406.39
2870.07,1406.37
2871.53,1400.85
2872.98,1402.94
2874.43,1412.04
2875.89,1450.17
2877.34,1409.34
2878.8,1414.98
2880.25,1396.64
2881.71,1420.26
2883.16,1417.48
2884.61,1412.98
2886.07,1436.99
2887.52,1437.5
2888.98,1434.76
2890.43,1442.21
2891.89,1423.23
2893.34,1424.75
2894.79,1462.85
2896.25,1456.33
2897.7,1459.8
2899.16,1438.2
2900.61,1457.24
2902.06,1436.28
2903.52,1473.21
2904.97,1449.82
2906.43,1434.9
2907.88,1435.08
2909.34,1427.11
2910.79,1420.97
2912.24,1449.2
2913.7,1410.53
2915.15,1415.08
2916.61,1410.22
2918.06,1408.31
2919.52,1400.25
2920.97,1357.1
2922.42,1365.92
2923.88,1378.14
2925.33,1360.04
2926.79,1329.79
2928.24,1330.31
2929.69,1321.74
2931.15,1331.94
2932.6,1304.02
2934.06,1313.15
2935.51,1305.67
2936.97,1279.6
2938.42,1259.87
2939.87,1252.11
2941.33,1228.3
2942.78,1263.66
2944.24,1256.48
2945.69,1230.47
2947.15,1226.93
2948.6,1190.77
2950.05,1200.2
2951.51,1182.63
2952.96,1176.51
2954.42,1151.8
2955.87,1146.17
2957.32,1142.04
2958.78,1127.87
2960.23,1129.84
2961.69,1113
2963.14,1121.93
2964.6,1104.37
2966.05,1077.34
2967.5,1072.83
2968.96,1065.42
2970.41,1067.87
2971.87,1054.85
2973.32,1056.03
2974.78,1055.98
2976.23,1048.6
2977.68,1039.26
2979.14,1037.19
2980.59,1013.63
2982.05,1063.63
2983.5,1010.15
2984.96,992.808
2986.41,1020.11
2987.86,1008.43
2989.32,1007.62
2990.77,987.714
2992.23,1027.87
2993.68,986.525
2995.13,982.613
2996.59,1008.9
2998.04,992.894
2999.5,994.589
3000.95,996.528
3002.41,951.381
3003.86,956.152
3005.31,956.511
3006.77,985.963
3008.22,993.952
3009.68,986.291
3011.13,986.569
3012.59,960.893
3014.04,955.388
3015.49,945.35
3016.95,960.51
3018.4,981.065
3019.86,941.301
3021.31,955.97
3022.76,940.983
3024.22,959.695
3025.67,924.993
3027.13,936.332
3028.58,929.727
3030.04,932.805
3031.49,920.203
3032.94,939.303
3034.4,948.919
3035.85,941.684
3037.31,920.166
3038.76,938.842
3040.22,908.33
3041.67,927.114
3043.12,956.961
3044.58,940.179
3046.03,931.132
3047.49,920.726
3048.94,924.111
3050.4,942.586
3051.85,929.885
3053.3,936.969
3054.76,961.562
3056.21,954.381
3057.67,959.198
3059.12,944.583
3060.57,954.167
3062.03,911.679
3063.48,935.75
3064.94,934.392
3066.39,962.077
3067.85,932.253
3069.3,956.112
3070.75,971.524
3072.21,963.415
3073.66,947.853
3075.12,970.841
3076.57,963.705
3078.03,968.006
3079.48,980.888
3080.93,992.788
3082.39,1018.77
3083.84,994.91
3085.3,981.865
3086.75,1003.25
3088.2,979.666
3089.66,1000.83
3091.11,1011.57
3092.57,1008.63
3094.02,1014.84
3095.48,1033.09
3096.93,999.198
3098.38,1086.69
3099.84,1069.71
3101.29,1067.91
3102.75,1080.02
3104.2,1069.55
3105.66,1110.64
3107.11,1063.02
3108.56,1130.78
3110.02,1143.71
3111.47,1128.92
3112.93,1148.9
3114.38,1164.82
3115.83,1168.48
3117.29,1182.02
3118.74,1210.76
3120.2,1253.05
3121.65,1246.97
3123.11,1244.67
3124.56,1213.33
3126.01,1273.19
3127.47,1273.4
3128.92,1277.62
3130.38,1309.81
3131.83,1325.67
3133.29,1329.03
3134.74,1345.08
3136.19,1342.09
3137.65,1337.39
3139.1,1309.77
3140.56,1363.67
3142.01,1330.9
3143.47,1378.38
3144.92,1389.34
3146.37,1378.41
3147.83,1362.07
3149.28,1351.16
3150.74,1363.38
3152.19,1391.58
3153.64,1379.57
3155.1,1367.86
3156.55,1382.93
3158.01,1382.64
3159.46,1381.35
3160.92,1428.45
3162.37,1419.83
3163.82,1409.25
3165.28,1411.78
3166.73,1440.76
3168.19,1396.08
3169.64,1433.5
3171.1,1432.68
3172.55,1447.57
3174,1453.87
3175.46,1478.8
3176.91,1486.56
3178.37,1465.01
3179.82,1499.91
3181.27,1518.68
3182.73,1556.42
3184.18,1542.34
3185.64,1555.44
3187.09,1578.42
3188.55,1603.98
3190,1609.19
3191.45,1615.88
3192.91,1631.14
3194.36,1641.33
3195.82,1659.23
3197.27,1666.28
3198.73,1619.45
3200.18,1694.68
3201.63,1670.87
3203.09,1677.13
3204.54,1674.53
3206,1650.29
3207.45,1680.96
3208.9,1606.53
3210.36,1647.63
3211.81,1604.34
3213.27,1593.19
3214.72,1565.29
3216.18,1545.24
3217.63,1540.88
3219.08,1482.71
3220.54,1471.8
3221.99,1454.88
3223.45,1414.03
3224.9,1390.61
3226.36,1373.91
3227.81,1363.13
3229.26,1289.77
3230.72,1265.89
3232.17,1250.75
3233.63,1212.26
3235.08,1181.81
3236.53,1132.53
3237.99,1128.91
3239.44,1075.29
3240.9,1078.36
3242.35,1058.33
3243.81,1026.81
3245.26,988.751
3246.71,990.483
3248.17,981.988
3249.62,974.708
3251.08,955.391
3252.53,958.162
3253.99,934.292
3255.44,893.543
3256.89,901.695
3258.35,874.974
3259.8,885.079
3261.26,882.708
3262.71,859.927
3264.17,875.954
3265.62,851.721
3267.07,833.347
3268.53,843.639
3269.98,836.583
3271.44,826.876
3272.89,819.688
3274.34,847.222
3275.8,804.475
3277.25,824.71
3278.71,811.001
3280.16,804.889
3281.62,814.369
3283.07,819.914
3284.52,795.303
3285.98,801.988
3287.43,779.249
3288.89,773.037
3290.34,755.389
3291.8,777.472
3293.25,772.413
3294.7,771.549
3296.16,775.55
3297.61,779.142
3299.07,790.415
3300.52,775.36
3301.97,772.39
3303.43,742.97
3304.88,756.564
3306.34,764.759
3307.79,767.343
3309.25,765.734
3310.7,779.732
3312.15,773.466
3313.61,753.238
3315.06,762.128
3316.52,770.103
3317.97,761.556
3319.43,748.593
3320.88,762.975
3322.33,755.463
3323.79,761.273
3325.24,734.502
3326.7,760.193
3328.15,740.04
3329.6,751.36
3331.06,753.716
3332.51,731.749
3333.97,727.946
3335.42,747.553
3336.88,737.444
3338.33,749.719
3339.78,757.784
3341.24,758.98
3342.69,741.221
3344.15,751.624
3345.6,760.7
3347.06,749.122
3348.51,746.464
3349.96,749.267
3351.42,749.901
3352.87,722.396
3354.33,746.418
3355.78,742.312
3357.24,740.514
3358.69,763.85
3360.14,731.444
3361.6,765.414
3363.05,760.317
3364.51,761.632
3365.96,724.65
3367.41,745.081
3368.87,745.379
3370.32,759.652
3371.78,741.217
3373.23,735.29
3374.69,743.835
3376.14,730.017
3377.59,729.03
3379.05,744.07
3380.5,737.919
3381.96,747.402
3383.41,734.544
3384.87,729.757
3386.32,741.1
3387.77,731.126
3389.23,728.304
3390.68,730.7
3392.14,727.475
3393.59,719.562
3395.04,764.089
3396.5,758.566
3397.95,728.431
3399.41,729.965
3400.86,744.535
3402.32,734.891
3403.77,759.101
3405.22,747.333
3406.68,724.956
3408.13,744.539
3409.59,748.53
3411.04,737.725
3412.5,715.48
3413.95,725.397
3415.4,735.95
3416.86,711.653
3418.31,706.589
3419.77,736.391
3421.22,715.028
3422.68,727.63
3424.13,732.304
3425.58,728.86
3427.04,731.818
3428.49,730.186
3429.95,721.049
3431.4,724.633
3432.85,730.797
3434.31,728.353
3435.76,712.388
3437.22,706.478
3438.67,723.329
3440.13,734.788
3441.58,705.453
3443.03,716.648
3444.49,714.456
3445.94,711.415
3447.4,707.464
3448.85,717.341
3450.31,737.891
3451.76,728.323
3453.21,717.737
3454.67,735.3
3456.12,732.405
3457.58,713.777
3459.03,727.725
3460.48,727.975
3461.94,724.506
3463.39,717.649
3464.85,731.028
3466.3,729.362
3467.76,742.968
3469.21,720.268
3470.66,702.969
3472.12,708.158
3473.57,708.79
3475.03,712.909
3476.48,734.408
3477.94,712.385
3479.39,719.058
3480.84,717.063
3482.3,711.115
3483.75,712.058
3485.21,710.753
3486.66,722.933
3488.11,731.438
3489.57,729.191
3491.02,724.8
3492.48,691.474
3493.93,737.753
3495.39,723.143
3496.84,724.318
3498.29,727.944
3499.75,739.121
3501.2,731.846
3502.66,725.091
3504.11,718.173
3505.57,713.013
3507.02,732.333
3508.47,716.976
3509.93,717.305
3511.38,715.604
3512.84,709.062
3514.29,704.523
3515.75,680.625
3517.2,711.357
3518.65,726.867
3520.11,721.945
3521.56,732
3523.02,737.645
3524.47,730.902
3525.92,719.858
3527.38,721.214
3528.83,723.098
3530.29,698.408
3531.74,711.573
3533.2,714.866
3534.65,716.917
3536.1,712.091
3537.56,689.075
3539.01,711.157
3540.47,706.839
3541.92,709.325
3543.38,702.568
3544.83,707.674
3546.28,704.443
3547.74,714.189
3549.19,713.658
3550.65,726.649
3552.1,719.398
3553.55,733.747
3555.01,724.421
3556.46,719.551
3557.92,697.089
3559.37,700.49
3560.83,705.138
3562.28,702.477
3563.73,674.411
3565.19,687.903
3566.64,716.107
3568.1,693.656
3569.55,707.487
3571.01,712.424
3572.46,692.691
3573.91,695.351
3575.37,703.494
3576.82,701.372
3578.28,682.61
3579.73,725.681
3581.18,706.77
3582.64,699.289
3584.09,701.058
3585.55,702.095
3587,695.645
3588.46,707.423
3589.91,727.08
3591.36,718.014
3592.82,704.309
3594.27,705.347
3595.73,707.266
3597.18,702.889
3598.64,714.025
3600.09,698.397
3601.54,689.042
3603,715.929
3604.45,703.308
3605.91,717.675
3607.36,686.797
3608.82,718.002
3610.27,716.091
3611.72,705.323
3613.18,705.524
3614.63,698.896
3616.09,699.615
3617.54,707.378
3618.99,682.919
3620.45,694.367
3621.9,725.598
3623.36,684.898
3624.81,689.516
3626.27,700.194
3627.72,700.109
3629.17,694.435
3630.63,691.704
3632.08,703.494
3633.54,713.33
3634.99,679.56
3636.45,700.306
3637.9,688.408
3639.35,696.713
3640.81,705.06
3642.26,672.618
3643.72,693.015
3645.17,690.575
3646.62,710.098
3648.08,680.497
3649.53,696.351
3650.99,684.199
3652.44,690.549
3653.9,702.526
3655.35,722.611
3656.8,712.861
3658.26,700.909
3659.71,686.739
3661.17,735.947
3662.62,683.066
3664.08,700.547
3665.53,690.831
3666.98,691.801
3668.44,695.61
3669.89,697.831
3671.35,712.307
3672.8,683.729
3674.25,715.861
3675.71,703.896
3677.16,706.805
3678.62,706.434
3680.07,689.492
3681.53,716.516
3682.98,700.566
3684.43,680.344
3685.89,704.609
3687.34,712.974
3688.8,712.764
3690.25,703.752
3691.71,688.816
3693.16,705.178
3694.61,693.609
3696.07,696.146
3697.52,696.98
3698.98,695.366
3700.43,690.48
3701.89,707.889
3703.34,711.027
3704.79,713.156
3706.25,739.163
3707.7,717.008
3709.16,713.685
3710.61,702.824
3712.06,708.478
3713.52,713.767
3714.97,724.683
3716.43,726.179
3717.88,694.686
3719.34,715.642
3720.79,711.497
3722.24,706.767
3723.7,677.511
3725.15,711.643
3726.61,690.287
3728.06,729.164
3729.52,701.19
3730.97,691.011
3732.42,705.714
3733.88,720.604
3735.33,702.508
3736.79,693.427
3738.24,708.233
3739.69,695.783
3741.15,695.755
3742.6,678.709
3744.06,721.088
3745.51,695.596
3746.97,717.217
3748.42,702.099
3749.87,719.247
3751.33,716.267
3752.78,718.24
3754.24,689.364
3755.69,688.167
3757.15,712.82
3758.6,730.508
3760.05,715.286
3761.51,710.502
3762.96,696.59
3764.42,710.171
3765.87,738.119
3767.32,728.78
3768.78,717.961
3770.23,721.269
3771.69,698.631
3773.14,683.611
3774.6,713.413
3776.05,711.451
3777.5,727.414
3778.96,726.261
3780.41,713.148
3781.87,720.063
3783.32,719.073
3784.78,675.585
3786.23,710.331
3787.68,701.815
3789.14,697.524
3790.59,720.615
3792.05,717.299
3793.5,743.387
3794.96,721.738
3796.41,733.035
3797.86,741.577
3799.32,725.325
3800.77,712.458
3802.23,736.314
3803.68,735.895
3805.13,738.269
3806.59,725.494
3808.04,702.475
3809.5,735.44
3810.95,727.57
3812.41,733.554
3813.86,728.192
3815.31,730.297
3816.77,726.056
3818.22,713.45
3819.68,708.426
3821.13,715.4
3822.59,712.629
3824.04,741.757
3825.49,743.554
3826.95,719.075
3828.4,700.807
3829.86,716.471
3831.31,750.496
3832.76,733.8
3834.22,745.02
3835.67,737.882
3837.13,732.312
3838.58,709.954
3840.04,737.55
3841.49,728.442
3842.94,722.822
3844.4,723.275
3845.85,747.401
3847.31,738.354
3848.76,723.896
3850.22,738.747
3851.67,712.869
3853.12,739.243
3854.58,747.529
3856.03,743.385
3857.49,737.009
3858.94,725.652
3860.4,728.495
3861.85,726.243
3863.3,748.42
3864.76,750.291
3866.21,736.499
3867.67,723.916
3869.12,739.446
3870.57,745.691
3872.03,744.139
3873.48,745.177
3874.94,753.728
3876.39,759.682
3877.85,756.271
3879.3,753.8
3880.75,761.88
3882.21,741.075
3883.66,770.669
3885.12,729.191
3886.57,744.222
3888.03,745.581
3889.48,765.535
3890.93,735.622
3892.39,751.706
3893.84,747.467
3895.3,757.415
3896.75,766.527
3898.2,764.208
3899.66,753.384
3901.11,764.602
3902.57,775.711
3904.02,752.778
3905.48,765.514
3906.93,777.215
3908.38,750.037
3909.84,733.366
3911.29,765.309
3912.75,763.101
3914.2,758.7
3915.66,765.703
3917.11,769.032
3918.56,752.163
3920.02,769.944
3921.47,773.955
3922.93,772.793
3924.38,774.874
3925.83,758.792
3927.29,781.584
3928.74,779.467
3930.2,787.54
3931.65,791.513
3933.11,802.798
3934.56,809.507
3936.01,775.618
3937.47,802.977
3938.92,798.213
3940.38,797.902
3941.83,792.86
3943.29,819.945
3944.74,795.27
3946.19,800.527
3947.65,803.349
3949.1,789.98
3950.56,816.229
3952.01,824.606
3953.47,836.515
3954.92,805.157
3956.37,801.237
3957.83,802.406
3959.28,826.534
3960.74,829.217
3962.19,836.306
3963.64,825.183
3965.1,824.108
3966.55,829.413
3968.01,855.959
3969.46,828.112
3970.92,818.181
3972.37,835.98
3973.82,845.434
3975.28,835.812
3976.73,840.716
3978.19,845.736
3979.64,824.406
3981.1,870.481
3982.55,853.533
3984,825.208
3985.46,875.619
3986.91,853.25
3988.37,858.383
3989.82,837.443
3991.27,860.465
3992.73,886.112
3994.18,877.39
3995.64,876.361
3997.09,877.293
3998.55,849.869
4000,869.872
