-20,83.1726
-18.5482,87.8933
-17.0964,88.9157
-15.6446,87.2613
-14.1928,91.8561
-12.7411,95.5433
-11.2893,100.959
-9.83749,108.8
-8.3857,126.159
-6.93391,163.643
-5.48212,867.589
-4.03034,6622.19
-2.57855,22778.5
-1.12676,43110
0.325027,46640.7
1.77681,38804.4
3.2286,18927.1
4.68039,6212.66
6.13218,1500.3
7.58397,236.943
9.03575,142.516
10.4875,130.623
11.9393,124.181
13.3911,121.194
14.8429,118.28
16.2947,116.514
17.7465,116.418
19.1983,109.38
20.6501,100.83
22.1018,97.0168
23.5536,100.43
25.0054,94.079
26.4572,90.261
27.909,86.4714
29.3608,86.8881
30.8126,86.5905
32.2644,83.5781
33.7161,82.0022
35.1679,79.9608
36.6197,77.8023
38.0715,88.7658
39.5233,85.8331
40.9751,86.709
42.4269,89.4044
43.8787,95.0938
45.3304,97.1521
46.7822,110.956
48.234,139.138
49.6858,194.348
51.1376,299.84
52.5894,516.413
54.0412,849.295
55.493,1280.15
56.9447,1763.18
58.3965,2292.28
59.8483,2699.91
61.3001,3108.03
62.7519,3449.54
64.2037,3681.5
65.6555,3885.46
67.1073,4012.22
68.559,4094.98
70.0108,4191.12
71.4626,4270.62
72.9144,4225.32
74.3662,4234.06
75.818,4287.18
77.2698,4356.76
78.7216,4460.79
80.1733,4516.49
81.6251,4675.43
83.0769,4793.98
84.5287,4816.38
85.9805,4890.16
87.4323,4779.86
88.8841,4673.91
90.3359,4564.53
91.7877,4383.49
93.2394,4156.03
94.6912,3936.02
96.143,3724.94
97.5948,3535.24
99.0466,3385.78
100.498,3270.33
101.95,3147.77
103.402,3056.31
104.854,3003.33
106.306,2966.4
107.757,2920.26
109.209,2868.4
110.661,2824.14
112.113,2783.24
113.564,2742.68
115.016,2656.35
116.468,2656.17
117.92,2645.85
119.372,2598.61
120.823,2540.09
122.275,2517.53
123.727,2483.64
125.179,2438.17
126.631,2374.77
128.082,2303.78
129.534,2231.86
130.986,2194.77
132.438,2179.83
133.889,2181.72
135.341,2114.75
136.793,2086.75
138.245,2066.87
139.697,2043.5
141.148,1995.12
142.6,1965.41
144.052,1918.87
145.504,1869.08
146.956,1833.74
148.407,1791.32
149.859,1771.81
151.311,1757.16
152.763,1733.58
154.215,1709.94
155.666,1685.83
157.118,1670.65
158.57,1657.08
160.022,1638.09
161.473,1621.24
162.925,1625.63
164.377,1580.8
165.829,1599.76
167.281,1642.99
168.732,1677.17
170.184,1717.24
171.636,1722.85
173.088,1676
174.54,1617.38
175.991,1568.78
177.443,1489.97
178.895,1492.78
180.347,1509.37
181.798,1518.04
183.25,1496.24
184.702,1459.18
186.154,1451.81
187.606,1423.44
189.057,1400.65
190.509,1406.79
191.961,1413.05
193.413,1371.13
194.865,1382.57
196.316,1374.96
197.768,1344.39
199.22,1349.59
200.672,1348.19
202.124,1335.95
203.575,1330.31
205.027,1334.84
206.479,1313.24
207.931,1311.38
209.382,1313.75
210.834,1312.73
212.286,1316.46
213.738,1300.08
215.19,1294.59
216.641,1304.07
218.093,1306.22
219.545,1307.03
220.997,1294.31
222.449,1290.44
223.9,1289.81
225.352,1300.67
226.804,1315.47
228.256,1295.25
229.707,1308.39
231.159,1298.64
232.611,1299.49
234.063,1301.26
235.515,1284.6
236.966,1282.37
238.418,1290.3
239.87,1287.76
241.322,1281.31
242.774,1276.92
244.225,1275.92
245.677,1269.9
247.129,1267.12
248.581,1266.66
250.033,1250.07
251.484,1237.95
252.936,1241.61
254.388,1233.91
255.84,1214.51
257.291,1200.57
258.743,1207.39
260.195,1216.96
261.647,1204.68
263.099,1198.66
264.55,1216.29
266.002,1195.86
267.454,1205.59
268.906,1188.57
270.358,1178.38
271.809,1182.36
273.261,1167.72
274.713,1155.78
276.165,1158.21
277.616,1157.35
279.068,1150.72
280.52,1149.37
281.972,1123.29
283.424,1134
284.875,1135.48
286.327,1127.57
287.779,1129.21
289.231,1104.11
290.683,1085.37
292.134,1075.56
293.586,1072.21
295.038,1051.55
296.49,1063.27
297.941,1072.06
299.393,1070.78
300.845,1071.92
302.297,1069.57
303.749,1061.49
305.2,1046.97
306.652,1044.44
308.104,1039.35
309.556,1022.8
311.008,1012.72
312.459,1000.35
313.911,997.099
315.363,979.646
316.815,963.231
318.267,986.781
319.718,972.284
321.17,949.707
322.622,968.965
324.074,988.914
325.525,950.96
326.977,960.272
328.429,965.744
329.881,966.485
331.333,969.205
332.784,971.905
334.236,971.586
335.688,982.184
337.14,963.53
338.592,946.561
340.043,942.881
341.495,957.777
342.947,981.068
344.399,975.726
345.85,956.625
347.302,942.693
348.754,954.909
350.206,962.836
351.658,936.505
353.109,931.047
354.561,934.374
356.013,932.358
357.465,932.04
358.917,943.655
360.368,952.285
361.82,938.862
363.272,922.567
364.724,927.765
366.176,927.765
367.627,916.325
369.079,903.497
370.531,903.314
371.983,921.255
373.434,938.631
374.886,929.95
376.338,912.187
377.79,890.161
379.242,886.725
380.693,914.748
382.145,916.512
383.597,901.79
385.049,897.799
386.501,903.3
387.952,902.416
389.404,907.602
390.856,931.742
392.308,902.494
393.759,879.992
395.211,897.566
396.663,913.016
398.115,901.305
399.567,903.986
401.018,889.721
402.47,874.622
403.922,904.296
405.374,903.624
406.826,891.719
408.277,890.478
409.729,894.611
411.181,902.474
412.633,909.48
414.085,874.901
415.536,899.833
416.988,908.118
418.44,892.283
419.892,884.641
421.343,907.99
422.795,897.905
424.247,888.15
425.699,890.623
427.151,894.209
428.602,879.788
430.054,875.242
431.506,886.663
432.958,902.76
434.41,907.065
435.861,903.615
437.313,888.915
438.765,894.064
440.217,887.921
441.668,889.83
443.12,897.26
444.572,889.749
446.024,892.651
447.476,881.915
448.927,872.9
450.379,874.935
451.831,875.852
453.283,852.427
454.735,854.211
456.186,873.456
457.638,875.421
459.09,870.803
460.542,877.064
461.993,873.365
463.445,869.512
464.897,878.804
466.349,886.396
467.801,884.286
469.252,862.861
470.704,884.955
472.156,883.929
473.608,879.682
475.06,879.695
476.511,867.121
477.963,878.529
479.415,874.037
480.867,864.887
482.319,868.08
483.77,880.83
485.222,879.009
486.674,867.565
488.126,871.033
489.577,868.135
491.029,865.237
492.481,861.288
493.933,857.609
495.385,863.933
496.836,846.072
498.288,836.067
499.74,840.128
501.192,831.345
502.644,834.693
504.095,850.561
505.547,827.187
506.999,829.043
508.451,843.79
509.902,844.138
511.354,846.608
512.806,848.842
514.258,831.672
515.71,838.493
517.161,848.613
518.613,837.523
520.065,849.474
521.517,855.604
522.969,850.807
524.42,855.068
525.872,850.251
527.324,822.454
528.776,824.127
530.228,829.647
531.679,815.611
533.131,834.034
534.583,856.617
536.035,812.288
537.486,834.01
538.938,833.754
540.39,833.837
541.842,836.209
543.294,851.399
544.745,847.542
546.197,825.257
547.649,840.007
549.101,841.522
550.553,841.937
552.004,841.038
553.456,814.072
554.908,842.73
556.36,838.661
557.811,820.743
559.263,824.068
560.715,837.079
562.167,838.01
563.619,826.601
565.07,833.39
566.522,839.692
567.974,840.399
569.426,831.459
570.878,836.095
572.329,829.882
573.781,827.832
575.233,820.877
576.685,833.951
578.137,847.999
579.588,813.775
581.04,829
582.492,833.584
583.944,826.779
585.395,826.513
586.847,833.039
588.299,834.289
589.751,833.257
591.203,834.279
592.654,821.587
594.106,830.527
595.558,844.284
597.01,818.588
598.462,815.106
599.913,819.987
601.365,820.95
602.817,819.277
604.269,819.822
605.72,830.893
607.172,821.306
608.624,832.832
610.076,840.605
611.528,835.925
612.979,835.891
614.431,830.832
615.883,826.228
617.335,822.26
618.787,818.393
620.238,826.679
621.69,834.028
623.142,821.473
624.594,811.696
626.046,835.616
627.497,850.769
628.949,852.606
630.401,850.957
631.853,843.162
633.304,844.37
634.756,814.695
636.208,841.103
637.66,840.827
639.112,843.432
640.563,849.066
642.015,841.878
643.467,860.826
644.919,847.982
646.371,858.538
647.822,868.008
649.274,854.844
650.726,855.55
652.178,861.46
653.629,855.485
655.081,853.689
656.533,853.194
657.985,850.63
659.437,862.033
660.888,853.655
662.34,895.194
663.792,880.388
665.244,877.929
666.696,878.06
668.147,888.405
669.599,874.04
671.051,862.563
672.503,867.171
673.954,898.289
675.406,915.401
676.858,909.766
678.31,891.474
679.762,873.648
681.213,888.455
682.665,883.865
684.117,888.35
685.569,900.01
687.021,904.434
688.472,889.307
689.924,875.468
691.376,886.381
692.828,888.213
694.28,887.258
695.731,872.743
697.183,871.086
698.635,911.301
700.087,885.884
701.538,871.699
702.99,881.419
704.442,900.969
705.894,889.889
707.346,890.44
708.797,893.596
710.249,862.413
711.701,861.612
713.153,878.489
714.605,879.522
716.056,886.569
717.508,877.627
718.96,905.895
720.412,908.461
721.863,897.783
723.315,892.785
724.767,889.388
726.219,908.296
727.671,883.846
729.122,885.95
730.574,894.973
732.026,883.475
733.478,877.412
734.93,884.172
736.381,871.472
737.833,860.409
739.285,876.549
740.737,883.356
742.189,884.832
743.64,889.961
745.092,871.085
746.544,882.594
747.996,887.519
749.447,883.97
750.899,878.081
752.351,886.281
753.803,889.005
755.255,886.703
756.706,906.864
758.158,899.343
759.61,895.597
761.062,897.872
762.514,905.486
763.965,898.503
765.417,883.723
766.869,892.995
768.321,891.752
769.772,897.288
771.224,894.475
772.676,882.787
774.128,876.824
775.58,885.146
777.031,897.042
778.483,909.141
779.935,904.101
781.387,886.552
782.839,881.152
784.29,867.646
785.742,885.454
787.194,894.905
788.646,887.477
790.098,901.76
791.549,915.487
793.001,901.936
794.453,889.379
795.905,883.999
797.356,898.53
798.808,880.966
800.26,896.117
801.712,908.045
803.164,917.848
804.615,903.441
806.067,892.995
807.519,912.787
808.971,909.098
810.423,915.458
811.874,922.492
813.326,927.112
814.778,933.474
816.23,903.455
817.681,911.374
819.133,943.326
820.585,942.028
822.037,935.203
823.489,939.34
824.94,953.501
826.392,916.113
827.844,902.525
829.296,913.993
830.748,960.554
832.199,952.769
833.651,933.009
835.103,936.276
836.555,942.068
838.007,930.512
839.458,960.341
840.91,974.99
842.362,957.659
843.814,966.261
845.265,954.628
846.717,943.213
848.169,952.077
849.621,972.134
851.073,979.747
852.524,985.849
853.976,991.103
855.428,996.099
856.88,1029.1
858.332,998.776
859.783,975.473
861.235,966.929
862.687,984.804
864.139,1009.37
865.59,1016.29
867.042,960.167
868.494,974.685
869.946,975.808
871.398,991.013
872.849,975.179
874.301,970.095
875.753,970.429
877.205,953.508
878.657,961.205
880.108,969.167
881.56,991.194
883.012,981.863
884.464,962.607
885.915,955.808
887.367,969.315
888.819,974.528
890.271,965.233
891.723,980.966
893.174,968.682
894.626,977.061
896.078,983.115
897.53,990.658
898.982,1012.49
900.433,1004.34
901.885,994.395
903.337,986.24
904.789,986.399
906.241,1002.38
907.692,1022.62
909.144,1025.52
910.596,1013.43
912.048,1023.78
913.499,1005.78
914.951,998.92
916.403,1006.44
917.855,1011.79
919.307,1030.78
920.758,1057.05
922.21,1036.01
923.662,1046.19
925.114,1032.16
926.566,1012.79
928.017,1015.97
929.469,1043.18
930.921,1032.79
932.373,1024.65
933.824,1027.1
935.276,1042.28
936.728,1039.15
938.18,1041.33
939.632,1037.2
941.083,1021.07
942.535,1018.06
943.987,1044.67
945.439,1067.03
946.891,1046.56
948.342,1047.56
949.794,1065.65
951.246,1057.14
952.698,1038.14
954.15,1031.95
955.601,1032.97
957.053,1028.71
958.505,1041.64
959.957,1029.84
961.408,1024.8
962.86,1025.98
964.312,1020.88
965.764,1049.89
967.216,1054.72
968.667,1044.41
970.119,1029.61
971.571,1029.41
973.023,1037.67
974.475,1053.19
975.926,1035.87
977.378,1020.58
978.83,1020.74
980.282,1027.74
981.733,1010.22
983.185,1036.85
984.637,1041
986.089,1033.48
987.541,1037.39
988.992,1030.63
990.444,1072.17
991.896,1084.3
993.348,1077.58
994.8,1062.48
996.251,1062.91
997.703,1072.49
999.155,1093.4
1000.61,1098.44
1002.06,1088.12
1003.51,1087.86
1004.96,1088.36
1006.41,1085.11
1007.87,1088.68
1009.32,1076
1010.77,1068.17
1012.22,1102.64
1013.67,1104.14
1015.12,1107.92
1016.58,1123.46
1018.03,1128.63
1019.48,1115.18
1020.93,1118.58
1022.38,1121.26
1023.84,1154.47
1025.29,1156.87
1026.74,1183.82
1028.19,1187.16
1029.64,1170.9
1031.09,1161.11
1032.55,1194.34
1034,1221.61
1035.45,1184.99
1036.9,1204.15
1038.35,1202.33
1039.8,1189.56
1041.26,1202.02
1042.71,1204.27
1044.16,1213.38
1045.61,1223.95
1047.06,1246.79
1048.52,1262.12
1049.97,1255.03
1051.42,1248.3
1052.87,1275.94
1054.32,1312.57
1055.77,1329.25
1057.23,1311.49
1058.68,1308.6
1060.13,1336.1
1061.58,1358.73
1063.03,1339.36
1064.49,1370.15
1065.94,1399.13
1067.39,1405.64
1068.84,1402.95
1070.29,1424.09
1071.74,1454.42
1073.2,1447
1074.65,1479.73
1076.1,1468.5
1077.55,1470.92
1079,1460.35
1080.46,1477.75
1081.91,1493.7
1083.36,1487.15
1084.81,1516.61
1086.26,1500.63
1087.71,1520.05
1089.17,1503.07
1090.62,1495.73
1092.07,1490.9
1093.52,1471.89
1094.97,1459.58
1096.42,1478.93
1097.88,1485.19
1099.33,1480.55
1100.78,1474.79
1102.23,1473.46
1103.68,1468.16
1105.14,1462.18
1106.59,1448.38
1108.04,1438.51
1109.49,1410.03
1110.94,1402.67
1112.39,1404.03
1113.85,1411.46
1115.3,1390.85
1116.75,1396.66
1118.2,1388.08
1119.65,1371.94
1121.11,1381.32
1122.56,1369.57
1124.01,1376.19
1125.46,1356.96
1126.91,1366.32
1128.36,1381.44
1129.82,1352.25
1131.27,1327.8
1132.72,1344.49
1134.17,1332.62
1135.62,1338.56
1137.07,1333.59
1138.53,1328.34
1139.98,1323.13
1141.43,1320.21
1142.88,1320.23
1144.33,1317.94
1145.79,1312.36
1147.24,1323.05
1148.69,1349.82
1150.14,1353.14
1151.59,1327.4
1153.04,1304.86
1154.5,1307.85
1155.95,1314.36
1157.4,1320.52
1158.85,1323.94
1160.3,1325.22
1161.76,1294.48
1163.21,1316.77
1164.66,1323.98
1166.11,1320.82
1167.56,1326.64
1169.01,1347.74
1170.47,1350.93
1171.92,1337.71
1173.37,1337.9
1174.82,1357.35
1176.27,1371.43
1177.72,1338.03
1179.18,1353.7
1180.63,1342.99
1182.08,1349.81
1183.53,1340.21
1184.98,1348.67
1186.44,1360.2
1187.89,1347.55
1189.34,1353.39
1190.79,1364.76
1192.24,1364.15
1193.69,1391.5
1195.15,1394.71
1196.6,1405.3
1198.05,1399.97
1199.5,1386.37
1200.95,1386.08
1202.41,1351.8
1203.86,1344.04
1205.31,1427.42
1206.76,1422.99
1208.21,1407.63
1209.66,1426.89
1211.12,1421.32
1212.57,1417.31
1214.02,1438.14
1215.47,1444.68
1216.92,1434.58
1218.37,1431.45
1219.83,1412.75
1221.28,1462.81
1222.73,1441.76
1224.18,1421.79
1225.63,1411.24
1227.09,1420.69
1228.54,1440.72
1229.99,1456.97
1231.44,1472.99
1232.89,1481.54
1234.34,1463.4
1235.8,1484.31
1237.25,1491.48
1238.7,1498.84
1240.15,1513.2
1241.6,1518.16
1243.06,1526.58
1244.51,1527.58
1245.96,1485
1247.41,1532.57
1248.86,1546.77
1250.31,1533.17
1251.77,1567.54
1253.22,1579.68
1254.67,1585.95
1256.12,1584.73
1257.57,1593.6
1259.02,1618.55
1260.48,1648.15
1261.93,1673.01
1263.38,1644.18
1264.83,1648.52
1266.28,1667.54
1267.74,1695.59
1269.19,1728.53
1270.64,1744.12
1272.09,1753.75
1273.54,1784.72
1274.99,1845.75
1276.45,1865.11
1277.9,1876.06
1279.35,1864.82
1280.8,1893.81
1282.25,1923.66
1283.71,1956.29
1285.16,1985.95
1286.61,2031
1288.06,2081.39
1289.51,2133.22
1290.96,2150.43
1292.42,2203.87
1293.87,2236.54
1295.32,2355.91
1296.77,2394.79
1298.22,2449.58
1299.67,2550.02
1301.13,2629.85
1302.58,2679.85
1304.03,2774.13
1305.48,2903.12
1306.93,3012.58
1308.39,3105.14
1309.84,3209.02
1311.29,3396.08
1312.74,3490.91
1314.19,3637.63
1315.64,3805.91
1317.1,3960.56
1318.55,4165.21
1320,4384.53
1321.45,4525.2
1322.9,4656.12
1324.36,4848.74
1325.81,4963.53
1327.26,5179.7
1328.71,5325.15
1330.16,5455
1331.61,5473.55
1333.07,5472.15
1334.52,5547.51
1335.97,5593.65
1337.42,5543.42
1338.87,5477.98
1340.33,5389.6
1341.78,5317.12
1343.23,5136.22
1344.68,5008.73
1346.13,4846.36
1347.58,4668.89
1349.04,4493.25
1350.49,4307.23
1351.94,4121.12
1353.39,4013.93
1354.84,3810.87
1356.29,3632.15
1357.75,3477.84
1359.2,3354.39
1360.65,3187.19
1362.1,3079.89
1363.55,2978.27
1365.01,2888.32
1366.46,2811.43
1367.91,2726.79
1369.36,2649.76
1370.81,2590.1
1372.26,2516.48
1373.72,2464.53
1375.17,2379.85
1376.62,2392.64
1378.07,2333.34
1379.52,2293.46
1380.98,2247.65
1382.43,2201.71
1383.88,2177.52
1385.33,2148.44
1386.78,2117.81
1388.23,2113.14
1389.69,2084.18
1391.14,2071.52
1392.59,2072.25
1394.04,2038.58
1395.49,2009.39
1396.94,2005.92
1398.4,1989.11
1399.85,1968.46
1401.3,1967.33
1402.75,1964.13
1404.2,1948.72
1405.66,1988.12
1407.11,2001.4
1408.56,2007.8
1410.01,1947.89
1411.46,1961.28
1412.91,1978.99
1414.37,1974.35
1415.82,1965.23
1417.27,1952.87
1418.72,1944.24
1420.17,1967.11
1421.63,1977.49
1423.08,1971.93
1424.53,1993.71
1425.98,2008.14
1427.43,2003.04
1428.88,2034.21
1430.34,2009.79
1431.79,2005.47
1433.24,2014.52
1434.69,2023.17
1436.14,2042.98
1437.59,2048.85
1439.05,2050.58
1440.5,2083.62
1441.95,2085.16
1443.4,2101.14
1444.85,2103.81
1446.31,2139.4
1447.76,2156.97
1449.21,2165.39
1450.66,2157.89
1452.11,2175.48
1453.56,2223.06
1455.02,2223.17
1456.47,2210.2
1457.92,2229.08
1459.37,2280.77
1460.82,2304.91
1462.28,2333.17
1463.73,2344.31
1465.18,2362.2
1466.63,2384.63
1468.08,2414.78
1469.53,2429.45
1470.99,2474.45
1472.44,2531.46
1473.89,2560.31
1475.34,2600.66
1476.79,2609.81
1478.24,2618.33
1479.7,2676.59
1481.15,2735.08
1482.6,2769.63
1484.05,2834.3
1485.5,2903.76
1486.96,2968.77
1488.41,2966.9
1489.86,3020.43
1491.31,3078.73
1492.76,3148.6
1494.21,3224.55
1495.67,3297.74
1497.12,3354.82
1498.57,3405.23
1500.02,3541.1
1501.47,3617.03
1502.93,3714.3
1504.38,3819.33
1505.83,3927.47
1507.28,4082.2
1508.73,4181.54
1510.18,4254.34
1511.64,4401.23
1513.09,4607.17
1514.54,4800.74
1515.99,4971.53
1517.44,5195.77
1518.89,5371.43
1520.35,5712.66
1521.8,6004.02
1523.25,6358.15
1524.7,6719.21
1526.15,7206.06
1527.61,7702.78
1529.06,8191.44
1530.51,8750.69
1531.96,9379.61
1533.41,9996.83
1534.86,10724.8
1536.32,11589.1
1537.77,12469.4
1539.22,13546.1
1540.67,14718.7
1542.12,16085.6
1543.58,17541.3
1545.03,19097.4
1546.48,20832.1
1547.93,22559.4
1549.38,24601.8
1550.83,26483.2
1552.29,28525.3
1553.74,30727
1555.19,32863.4
1556.64,34979.7
1558.09,37027.7
1559.54,38936.9
1561,40621.4
1562.45,42135.3
1563.9,43068.5
1565.35,43836.1
1566.8,44038.3
1568.26,43998.2
1569.71,43242.5
1571.16,42277.5
1572.61,40837.7
1574.06,39143.3
1575.51,37086.2
1576.97,34909.6
1578.42,32604.6
1579.87,30305.1
1581.32,28052.4
1582.77,25734.5
1584.23,23616.4
1585.68,21482.3
1587.13,19662.9
1588.58,18063.2
1590.03,16527.7
1591.48,15126.2
1592.94,13907.8
1594.39,12750.5
1595.84,11795.8
1597.29,11049.1
1598.74,10392.3
1600.2,9707.85
1601.65,9120.1
1603.1,8623.12
1604.55,8144.16
1606,7758
1607.45,7378.22
1608.91,6958.37
1610.36,6675.03
1611.81,6258.07
1613.26,6014.92
1614.71,5665.35
1616.16,5344.96
1617.62,5144.91
1619.07,4889.16
1620.52,4630.75
1621.97,4445.3
1623.42,4271.9
1624.88,4110.12
1626.33,3940.39
1627.78,3827.77
1629.23,3695.04
1630.68,3552.96
1632.13,3444.31
1633.59,3315.34
1635.04,3277.98
1636.49,3122.34
1637.94,3081.17
1639.39,3048.94
1640.85,2933.72
1642.3,2906.54
1643.75,2852.05
1645.2,2755.46
1646.65,2714.98
1648.1,2621.7
1649.56,2598.33
1651.01,2554.72
1652.46,2514.69
1653.91,2499.11
1655.36,2477.59
1656.81,2444.7
1658.27,2368.38
1659.72,2315.13
1661.17,2292.2
1662.62,2284.68
1664.07,2246.03
1665.53,2190
1666.98,2144.68
1668.43,2108.45
1669.88,2113.88
1671.33,2070.53
1672.78,2073.19
1674.24,2065.99
1675.69,2052.23
1677.14,2012.64
1678.59,1968.49
1680.04,1957.68
1681.5,1912.86
1682.95,1901.25
1684.4,1924.3
1685.85,1891.94
1687.3,1843.63
1688.75,1848.47
1690.21,1835.81
1691.66,1832.54
1693.11,1830.82
1694.56,1780.27
1696.01,1818.17
1697.46,1749.58
1698.92,1759.44
1700.37,1776.36
1701.82,1750.58
1703.27,1756.68
1704.72,1716.93
1706.18,1715.12
1707.63,1721.9
1709.08,1714.74
1710.53,1723.85
1711.98,1710.75
1713.43,1708.07
1714.89,1712.51
1716.34,1687.15
1717.79,1694.72
1719.24,1720.41
1720.69,1693.28
1722.15,1691.72
1723.6,1680.03
1725.05,1649.83
1726.5,1642.91
1727.95,1683.32
1729.4,1685.09
1730.86,1656.04
1732.31,1672.85
1733.76,1682.9
1735.21,1678.24
1736.66,1658.16
1738.11,1652.43
1739.57,1627.44
1741.02,1620.39
1742.47,1653.34
1743.92,1659.97
1745.37,1634.95
1746.83,1607.68
1748.28,1562.64
1749.73,1564.92
1751.18,1564.5
1752.63,1587.3
1754.08,1562.4
1755.54,1578.43
1756.99,1539.31
1758.44,1537.51
1759.89,1516.46
1761.34,1525.39
1762.8,1520.42
1764.25,1499.8
1765.7,1489.81
1767.15,1522.61
1768.6,1500.86
1770.05,1479.56
1771.51,1483.57
1772.96,1470.65
1774.41,1460.35
1775.86,1452.81
1777.31,1454.34
1778.76,1469.79
1780.22,1465.02
1781.67,1434.53
1783.12,1434.08
1784.57,1410.12
1786.02,1412.06
1787.48,1411.45
1788.93,1424.08
1790.38,1397.63
1791.83,1399.53
1793.28,1376.17
1794.73,1425.2
1796.19,1423.42
1797.64,1405.41
1799.09,1378.02
1800.54,1391.29
1801.99,1380.6
1803.45,1366.12
1804.9,1380.29
1806.35,1364.44
1807.8,1351.44
1809.25,1362.89
1810.7,1367.41
1812.16,1365.4
1813.61,1355.25
1815.06,1353.69
1816.51,1367.43
1817.96,1388.37
1819.41,1365.99
1820.87,1368.39
1822.32,1388.08
1823.77,1346.87
1825.22,1330.51
1826.67,1333.54
1828.13,1348.46
1829.58,1367.07
1831.03,1347.08
1832.48,1402.14
1833.93,1411.05
1835.38,1375.12
1836.84,1375.93
1838.29,1411.3
1839.74,1374.53
1841.19,1396.74
1842.64,1401.78
1844.1,1392.23
1845.55,1409.89
1847,1423.21
1848.45,1423.91
1849.9,1412.58
1851.35,1417.23
1852.81,1418.87
1854.26,1436.85
1855.71,1435.2
1857.16,1409.51
1858.61,1435.03
1860.07,1435.52
1861.52,1449.77
1862.97,1466.3
1864.42,1419.7
1865.87,1422.54
1867.32,1420.86
1868.78,1391.17
1870.23,1415.23
1871.68,1440.38
1873.13,1426.5
1874.58,1410.47
1876.03,1386.12
1877.49,1385.08
1878.94,1392.26
1880.39,1392.25
1881.84,1364.26
1883.29,1360.71
1884.75,1365.88
1886.2,1335.37
1887.65,1347.51
1889.1,1338.28
1890.55,1326.11
1892,1307.27
1893.46,1334.46
1894.91,1333.93
1896.36,1303.34
1897.81,1299.38
1899.26,1309.36
1900.72,1321.09
1902.17,1303.62
1903.62,1278.83
1905.07,1278.53
1906.52,1255.19
1907.97,1275.53
1909.43,1278.74
1910.88,1263.88
1912.33,1263.78
1913.78,1232.59
1915.23,1229.4
1916.68,1258.26
1918.14,1245.84
1919.59,1228.13
1921.04,1253.56
1922.49,1247.6
1923.94,1250.01
1925.4,1238.98
1926.85,1231.29
1928.3,1238.33
1929.75,1241.41
1931.2,1246.38
1932.65,1270.32
1934.11,1199.83
1935.56,1214.48
1937.01,1297.82
1938.46,1263.21
1939.91,1232.95
1941.37,1213.17
1942.82,1258.78
1944.27,1259.8
1945.72,1220.14
1947.17,1244.76
1948.62,1260.39
1950.08,1259.58
1951.53,1246.98
1952.98,1266.39
1954.43,1263.92
1955.88,1273.7
1957.33,1257.86
1958.79,1257.31
1960.24,1289.83
1961.69,1277.22
1963.14,1289.68
1964.59,1281.24
1966.05,1269.6
1967.5,1297.17
1968.95,1297.42
1970.4,1282.3
1971.85,1268.87
1973.3,1270.18
1974.76,1290.33
1976.21,1297.56
1977.66,1303.18
1979.11,1294.35
1980.56,1286.12
1982.02,1300.22
1983.47,1313.13
1984.92,1316.32
1986.37,1325.71
1987.82,1303.02
1989.27,1293.27
1990.73,1294.17
1992.18,1294.01
1993.63,1325.3
1995.08,1289.27
1996.53,1289.24
1997.98,1297.48
1999.44,1322.07
2000.89,1283.36
2002.34,1298.86
2003.79,1302.64
2005.24,1304.91
2006.7,1317.67
2008.15,1317.52
2009.6,1272.91
2011.05,1285.34
2012.5,1246.31
2013.95,1237
2015.41,1257.42
2016.86,1272.88
2018.31,1240.36
2019.76,1280.7
2021.21,1262.69
2022.67,1236.07
2024.12,1206.8
2025.57,1240.52
2027.02,1263.27
2028.47,1254.75
2029.92,1219.84
2031.38,1211.51
2032.83,1212.59
2034.28,1184.21
2035.73,1216.13
2037.18,1193.41
2038.63,1184.23
2040.09,1170.58
2041.54,1189.47
2042.99,1169.36
2044.44,1194.09
2045.89,1195.95
2047.35,1170.4
2048.8,1178.27
2050.25,1155.28
2051.7,1170.61
2053.15,1185.46
2054.6,1164.71
2056.06,1158.93
2057.51,1162.64
2058.96,1140.81
2060.41,1130.27
2061.86,1147.49
2063.32,1144.51
2064.77,1144.3
2066.22,1145.41
2067.67,1133.74
2069.12,1113.2
2070.57,1118.6
2072.03,1131.23
2073.48,1136.82
2074.93,1123.34
2076.38,1126.27
2077.83,1139.99
2079.28,1122.31
2080.74,1123.04
2082.19,1114.21
2083.64,1102.87
2085.09,1113.98
2086.54,1102.73
2088,1105.42
2089.45,1126.54
2090.9,1127.43
2092.35,1130.01
2093.8,1098.42
2095.25,1086.26
2096.71,1119.21
2098.16,1105.84
2099.61,1076.06
2101.06,1110.44
2102.51,1111.35
2103.97,1106.26
2105.42,1105.39
2106.87,1120.8
2108.32,1122.24
2109.77,1103.01
2111.22,1123.96
2112.68,1123.21
2114.13,1092.49
2115.58,1113.63
2117.03,1141
2118.48,1124.58
2119.94,1105.3
2121.39,1089.9
2122.84,1108.41
2124.29,1143.99
2125.74,1132.96
2127.19,1111.99
2128.65,1098.42
2130.1,1118.89
2131.55,1123.15
2133,1114.82
2134.45,1123.72
2135.9,1136.1
2137.36,1125.7
2138.81,1130.41
2140.26,1130.59
2141.71,1141.25
2143.16,1138.69
2144.62,1149.34
2146.07,1152.96
2147.52,1155.29
2148.97,1154.72
2150.42,1154.4
2151.87,1146.08
2153.33,1158.57
2154.78,1154.6
2156.23,1135.94
2157.68,1135.95
2159.13,1177.69
2160.58,1176.98
2162.04,1165.58
2163.49,1175.9
2164.94,1172.97
2166.39,1150.14
2167.84,1170.34
2169.3,1179.2
2170.75,1158.42
2172.2,1188.3
2173.65,1187.65
2175.1,1194.84
2176.55,1197.9
2178.01,1189.79
2179.46,1179.8
2180.91,1187.51
2182.36,1181.04
2183.81,1194.43
2185.27,1215.16
2186.72,1204.55
2188.17,1198.85
2189.62,1204.82
2191.07,1205.11
2192.52,1207.16
2193.98,1214.28
2195.43,1214.26
2196.88,1227.49
2198.33,1198.89
2199.78,1214.14
2201.24,1215.85
2202.69,1208.51
2204.14,1210.65
2205.59,1208.79
2207.04,1229.57
2208.49,1223.29
2209.95,1253.34
2211.4,1226.08
2212.85,1215.82
2214.3,1222.55
2215.75,1208.75
2217.2,1209.71
2218.66,1190.92
2220.11,1215.51
2221.56,1223.7
2223.01,1217.85
2224.46,1309.23
2225.92,1217.09
2227.37,1224.88
2228.82,1240.93
2230.27,1219.57
2231.72,1230.2
2233.17,1241.91
2234.63,1242.8
2236.08,1206.56
2237.53,1228.94
2238.98,1262.42
2240.43,1257.62
2241.89,1242.03
2243.34,1243.27
2244.79,1250.15
2246.24,1237.43
2247.69,1244.33
2249.14,1263.38
2250.6,1267.63
2252.05,1272.89
2253.5,1272.87
2254.95,1255.59
2256.4,1253.14
2257.85,1269.35
2259.31,1286.75
2260.76,1293.33
2262.21,1286.35
2263.66,1289.41
2265.11,1279.49
2266.57,1297.34
2268.02,1305.79
2269.47,1327.71
2270.92,1329.16
2272.37,1304.03
2273.82,1286.1
2275.28,1298.55
2276.73,1301.14
2278.18,1304.11
2279.63,1306.77
2281.08,1333.08
2282.54,1317.13
2283.99,1332.81
2285.44,1329.46
2286.89,1336.96
2288.34,1337.63
2289.79,1345.01
2291.25,1346.82
2292.7,1380.32
2294.15,1382.94
2295.6,1364.07
2297.05,1379.79
2298.5,1338.09
2299.96,1369.39
2301.41,1401.56
2302.86,1389.95
2304.31,1401.47
2305.76,1372.1
2307.22,1383.58
2308.67,1408.42
2310.12,1377.66
2311.57,1410.84
2313.02,1418.34
2314.47,1422.32
2315.93,1426.53
2317.38,1440.85
2318.83,1455.39
2320.28,1437.49
2321.73,1440.27
2323.19,1430.46
2324.64,1424.76
2326.09,1467.83
2327.54,1466.87
2328.99,1468.5
2330.44,1481.71
2331.9,1475.19
2333.35,1487.08
2334.8,1509.15
2336.25,1500.87
2337.7,1499.58
2339.16,1498.72
2340.61,1514.17
2342.06,1494.45
2343.51,1532.72
2344.96,1560.21
2346.41,1544.45
2347.87,1565.86
2349.32,1555.17
2350.77,1544.14
2352.22,1528.31
2353.67,1560.65
2355.12,1584.51
2356.58,1566.8
2358.03,1604.18
2359.48,1629.27
2360.93,1622.53
2362.38,1650.81
2363.84,1682.08
2365.29,1651.91
2366.74,1663.68
2368.19,1693.42
2369.64,1698.42
2371.09,1723.23
2372.55,1725.26
2374,1730.91
2375.45,1770.6
2376.9,1832.58
2378.35,1815.79
2379.8,1819.53
2381.26,1859.1
2382.71,1867.97
2384.16,1879.25
2385.61,1918.7
2387.06,1951.73
2388.52,1952.91
2389.97,1979.67
2391.42,2038.01
2392.87,2088.04
2394.32,2088.26
2395.77,2111.69
2397.23,2121.97
2398.68,2173.25
2400.13,2229.63
2401.58,2248.21
2403.03,2269.88
2404.49,2316.02
2405.94,2392.3
2407.39,2379.72
2408.84,2455.24
2410.29,2514.93
2411.74,2536.07
2413.2,2556.45
2414.65,2547.39
2416.1,2590.82
2417.55,2638.29
2419,2682.52
2420.46,2757.52
2421.91,2750.37
2423.36,2750.96
2424.81,2810.11
2426.26,2794.6
2427.71,2781.54
2429.17,2814.76
2430.62,2815.34
2432.07,2800.42
2433.52,2781.31
2434.97,2784.79
2436.42,2790.88
2437.88,2785.24
2439.33,2755.3
2440.78,2769.17
2442.23,2748.32
2443.68,2751.58
2445.14,2762.35
2446.59,2731.69
2448.04,2760.81
2449.49,2692.25
2450.94,2661.63
2452.39,2680.87
2453.85,2671.76
2455.3,2640.79
2456.75,2594.96
2458.2,2548.74
2459.65,2577.88
2461.1,2592.48
2462.56,2589.34
2464.01,2578.27
2465.46,2542.35
2466.91,2489.71
2468.36,2489.35
2469.82,2494.21
2471.27,2524.58
2472.72,2545.65
2474.17,2528.58
2475.62,2473.75
2477.07,2479.2
2478.53,2500.23
2479.98,2474.76
2481.43,2478.12
2482.88,2427.12
2484.33,2425.6
2485.79,2438.96
2487.24,2445.46
2488.69,2433.17
2490.14,2473.75
2491.59,2483.12
2493.04,2486.51
2494.5,2483.32
2495.95,2472.54
2497.4,2517.18
2498.85,2499.02
2500.3,2496.24
2501.76,2474.64
2503.21,2543.5
2504.66,2494.44
2506.11,2523.65
2507.56,2539.71
2509.01,2550.01
2510.47,2508.51
2511.92,2524.64
2513.37,2555.46
2514.82,2587.43
2516.27,2603.63
2517.72,2638.51
2519.18,2669.48
2520.63,2671.86
2522.08,2661.13
2523.53,2693.14
2524.98,2697.07
2526.44,2702.15
2527.89,2742.9
2529.34,2842.4
2530.79,2822.17
2532.24,2800.49
2533.69,2878.57
2535.15,2881.13
2536.6,2934.3
2538.05,3000.16
2539.5,3015.14
2540.95,3023.07
2542.41,3066.91
2543.86,3115.8
2545.31,3125.94
2546.76,3158.2
2548.21,3166.98
2549.66,3249.14
2551.12,3280.01
2552.57,3301.4
2554.02,3383.84
2555.47,3440.3
2556.92,3530.24
2558.37,3642.99
2559.83,3611.11
2561.28,3667.37
2562.73,3743.99
2564.18,3810.6
2565.63,3895.62
2567.09,3990.8
2568.54,4044.88
2569.99,4135.71
2571.44,4197.99
2572.89,4296.61
2574.34,4411.94
2575.8,4518.86
2577.25,4638.47
2578.7,4753.78
2580.15,4834.65
2581.6,4868.24
2583.06,5096.14
2584.51,5219.14
2585.96,5344.51
2587.41,5512.86
2588.86,5675.34
2590.31,5819.47
2591.77,6001.23
2593.22,6133.32
2594.67,6331.95
2596.12,6484.35
2597.57,6765.57
2599.02,6987.57
2600.48,7174.69
2601.93,7393.83
2603.38,7717.05
2604.83,7974.68
2606.28,8283.51
2607.74,8601.41
2609.19,8852.46
2610.64,9200.47
2612.09,9571.5
2613.54,9900.97
2614.99,10309.2
2616.45,10690.3
2617.9,11135.9
2619.35,11545.5
2620.8,11971.9
2622.25,12447.4
2623.71,12867.1
2625.16,13471.3
2626.61,13893.4
2628.06,14374.1
2629.51,15018.8
2630.96,15520.6
2632.42,16037.5
2633.87,16610.8
2635.32,17131.6
2636.77,17664
2638.22,18108.2
2639.68,18626.5
2641.13,19130.2
2642.58,19655.1
2644.03,20153
2645.48,20639.2
2646.93,21000.8
2648.39,21319.8
2649.84,21700.5
2651.29,21829
2652.74,22205.7
2654.19,22309.6
2655.64,22321.5
2657.1,22481.2
2658.55,22455.5
2660,22411.5
2661.45,22294.3
2662.9,22097.7
2664.36,21908.7
2665.81,21708.6
2667.26,21343.8
2668.71,21125.6
2670.16,20597.8
2671.61,20278.3
2673.07,19869.1
2674.52,19420.2
2675.97,18926.5
2677.42,18353.8
2678.87,17863.5
2680.32,17346.6
2681.78,16800.5
2683.23,16189
2684.68,15702.4
2686.13,15097.3
2687.58,14494.4
2689.04,14026.8
2690.49,13506.5
2691.94,13003.8
2693.39,12508.7
2694.84,11950.5
2696.29,11481.3
2697.75,10981.8
2699.2,10458.5
2700.65,10044.6
2702.1,9671.13
2703.55,9348.22
2705.01,8930.9
2706.46,8595.1
2707.91,8227.92
2709.36,7826.87
2710.81,7525.65
2712.26,7202.19
2713.72,7000.71
2715.17,6734.91
2716.62,6438.29
2718.07,6213.52
2719.52,6031.66
2720.98,5778.65
2722.43,5629.87
2723.88,5410.12
2725.33,5259.92
2726.78,5060.93
2728.23,4856.36
2729.69,4722.45
2731.14,4600.91
2732.59,4473.46
2734.04,4334.39
2735.49,4256.78
2736.94,4120.27
2738.4,4032.71
2739.85,3985.53
2741.3,3866.52
2742.75,3779.9
2744.2,3712.62
2745.66,3553.2
2747.11,3487.81
2748.56,3475.37
2750.01,3333.18
2751.46,3232.81
2752.91,3212.05
2754.37,3173.12
2755.82,3118.24
2757.27,3065.54
2758.72,3044.03
2760.17,2979.58
2761.63,2983.84
2763.08,2923.79
2764.53,2859.37
2765.98,2827.33
2767.43,2830.47
2768.88,2780.9
2770.34,2704.97
2771.79,2669.86
2773.24,2627.8
2774.69,2640.32
2776.14,2589.87
2777.59,2547.31
2779.05,2534.71
2780.5,2508.2
2781.95,2416.06
2783.4,2427.37
2784.85,2410.56
2786.31,2387.19
2787.76,2367.41
2789.21,2382.23
2790.66,2333.34
2792.11,2283.21
2793.56,2282.42
2795.02,2310.28
2796.47,2274.6
2797.92,2168.18
2799.37,2233.07
2800.82,2244.43
2802.28,2184.98
2803.73,2141.16
2805.18,2122.15
2806.63,2120.45
2808.08,2106.06
2809.53,2093.75
2810.99,2056.3
2812.44,2037.89
2813.89,2041.34
2815.34,2046.17
2816.79,2012.26
2818.24,2025.98
2819.7,2059.69
2821.15,2024.41
2822.6,2011.07
2824.05,1986.69
2825.5,1983.61
2826.96,1919.72
2828.41,1985.28
2829.86,1959.93
2831.31,1929.49
2832.76,1947.23
2834.21,1947.68
2835.67,1934.24
2837.12,1913.18
2838.57,1887.93
2840.02,1883.05
2841.47,1882.54
2842.93,1896.07
2844.38,1867.97
2845.83,1879.67
2847.28,1894.71
2848.73,1917.44
2850.18,1887.36
2851.64,1878.59
2853.09,1854.63
2854.54,1866.09
2855.99,1850.99
2857.44,1842.92
2858.9,1882.76
2860.35,1849.36
2861.8,1855.24
2863.25,1861.47
2864.7,1869.79
2866.15,1855.02
2867.61,1875.26
2869.06,1887.91
2870.51,1856.55
2871.96,1884.59
2873.41,1853.02
2874.86,1865.92
2876.32,1896.31
2877.77,1868.58
2879.22,1912.55
2880.67,1895.61
2882.12,1887.3
2883.58,1897.89
2885.03,1889.3
2886.48,1894.11
2887.93,1878.65
2889.38,1890.81
2890.83,1891.46
2892.29,1918.38
2893.74,1912.03
2895.19,1896.73
2896.64,1906.89
2898.09,1940.48
2899.54,1919.14
2901,1872.58
2902.45,1923.75
2903.9,1883.91
2905.35,1917.19
2906.8,1876.26
2908.26,1896.11
2909.71,1896.43
2911.16,1889.5
2912.61,1873.29
2914.06,1865.34
2915.51,1828.25
2916.97,1879.68
2918.42,1843.37
2919.87,1834.93
2921.32,1824.08
2922.77,1823.65
2924.23,1796.1
2925.68,1819.62
2927.13,1782.28
2928.58,1746.99
2930.03,1766.95
2931.48,1753.7
2932.94,1701.71
2934.39,1702.11
2935.84,1712.75
2937.29,1686.63
2938.74,1661.09
2940.2,1662.07
2941.65,1663.18
2943.1,1616.34
2944.55,1607.62
2946,1603.23
2947.45,1618.89
2948.91,1576.51
2950.36,1554.8
2951.81,1565.64
2953.26,1550.76
2954.71,1539.21
2956.16,1515.53
2957.62,1499.97
2959.07,1495.98
2960.52,1513.66
2961.97,1489.53
2963.42,1456.84
2964.88,1450.91
2966.33,1423.8
2967.78,1398.76
2969.23,1433.57
2970.68,1401.46
2972.13,1408.74
2973.59,1405.36
2975.04,1374.62
2976.49,1371.61
2977.94,1336.82
2979.39,1339.7
2980.84,1335.33
2982.3,1357.54
2983.75,1334.28
2985.2,1327.58
2986.65,1313.41
2988.1,1302.82
2989.56,1304.33
2991.01,1315.74
2992.46,1312.07
2993.91,1333.24
2995.36,1262.59
2996.81,1295.71
2998.27,1282.72
2999.72,1269.5
3001.17,1270.81
3002.62,1277.12
3004.07,1264.39
3005.53,1230.32
3006.98,1285.09
3008.43,1262.09
3009.88,1268.98
3011.33,1269.59
3012.78,1240.36
3014.24,1232.37
3015.69,1250.44
3017.14,1264.77
3018.59,1266.38
3020.04,1240.65
3021.5,1249.97
3022.95,1272.58
3024.4,1232.83
3025.85,1237.27
3027.3,1255.05
3028.75,1224.9
3030.21,1234.12
3031.66,1248.45
3033.11,1212.17
3034.56,1236.1
3036.01,1243.08
3037.46,1228.39
3038.92,1211.19
3040.37,1213.28
3041.82,1253.91
3043.27,1248.83
3044.72,1229.09
3046.18,1215.36
3047.63,1196.98
3049.08,1226.72
3050.53,1216.42
3051.98,1228.31
3053.43,1229.77
3054.89,1233.28
3056.34,1229.66
3057.79,1241.63
3059.24,1232.59
3060.69,1226.12
3062.15,1227.26
3063.6,1270.7
3065.05,1232.01
3066.5,1253
3067.95,1251.45
3069.4,1268.12
3070.86,1260.89
3072.31,1287.69
3073.76,1292.33
3075.21,1266.08
3076.66,1262.74
3078.11,1279.55
3079.57,1311.49
3081.02,1295.67
3082.47,1312.12
3083.92,1340.59
3085.37,1326.78
3086.83,1338.06
3088.28,1329.17
3089.73,1353.17
3091.18,1367.18
3092.63,1378.87
3094.08,1401.84
3095.54,1426.48
3096.99,1419.37
3098.44,1456.61
3099.89,1482.42
3101.34,1508.62
3102.8,1496.91
3104.25,1519.59
3105.7,1541.73
3107.15,1564.56
3108.6,1535.77
3110.05,1635.19
3111.51,1626.48
3112.96,1644.76
3114.41,1664.35
3115.86,1701.74
3117.31,1717.43
3118.76,1731.71
3120.22,1739.19
3121.67,1752.92
3123.12,1776.03
3124.57,1826.62
3126.02,1870.44
3127.48,1905.62
3128.93,1872.77
3130.38,1859.33
3131.83,1959.01
3133.28,1964.61
3134.73,1973.78
3136.19,2014.81
3137.64,2019.53
3139.09,2038.02
3140.54,2016.63
3141.99,2041.38
3143.45,2031.39
3144.9,2085.37
3146.35,2089.19
3147.8,2108.26
3149.25,2087.01
3150.7,2121.94
3152.16,2083.62
3153.61,2063.74
3155.06,2073.35
3156.51,2097.26
3157.96,2066.24
3159.42,2086.72
3160.87,2087.85
3162.32,2100.98
3163.77,2133.96
3165.22,2143.6
3166.67,2146.55
3168.13,2135.3
3169.58,2153.07
3171.03,2205.6
3172.48,2235.51
3173.93,2187.41
3175.38,2188.32
3176.84,2206.4
3178.29,2206.68
3179.74,2203.11
3181.19,2235.61
3182.64,2215.74
3184.1,2287.24
3185.55,2306.39
3187,2296.2
3188.45,2340.1
3189.9,2380.33
3191.35,2379.21
3192.81,2434.58
3194.26,2438.08
3195.71,2437.73
3197.16,2415.33
3198.61,2400.92
3200.06,2432.6
3201.52,2416.09
3202.97,2460.84
3204.42,2465.68
3205.87,2489.45
3207.32,2432.98
3208.78,2386.57
3210.23,2386.47
3211.68,2402.16
3213.13,2330.2
3214.58,2304.56
3216.03,2262.69
3217.49,2202.27
3218.94,2145.33
3220.39,2120.54
3221.84,2104.16
3223.29,2034.9
3224.75,1982.85
3226.2,1914.32
3227.65,1853.14
3229.1,1829.81
3230.55,1783.06
3232,1733.18
3233.46,1694.81
3234.91,1666.06
3236.36,1624.56
3237.81,1539.9
3239.26,1550.18
3240.72,1457.95
3242.17,1432.44
3243.62,1411.49
3245.07,1392.73
3246.52,1362.4
3247.97,1324.56
3249.43,1329.14
3250.88,1280.25
3252.33,1269.88
3253.78,1268.04
3255.23,1232.89
3256.68,1216.01
3258.14,1212.9
3259.59,1157.32
3261.04,1172.24
3262.49,1151.61
3263.94,1134.64
3265.4,1131.94
3266.85,1132.72
3268.3,1114.17
3269.75,1126.85
3271.2,1119.89
3272.65,1092.1
3274.11,1079.3
3275.56,1088.17
3277.01,1057.08
3278.46,1105.85
3279.91,1065.6
3281.37,1079.14
3282.82,1055.05
3284.27,1040.27
3285.72,1039.37
3287.17,1072.18
3288.62,1046.93
3290.08,1058.11
3291.53,1048.47
3292.98,1035.53
3294.43,1004.06
3295.88,1036.61
3297.33,1036.04
3298.79,999.858
3300.24,1013.42
3301.69,1027.51
3303.14,1004.53
3304.59,1023.57
3306.05,1019.19
3307.5,1034.55
3308.95,996.34
3310.4,1000.61
3311.85,1003.98
3313.3,1027.63
3314.76,996.225
3316.21,1035.67
3317.66,1001.28
3319.11,993.491
3320.56,1001.37
3322.02,1011.19
3323.47,1007.92
3324.92,1016.41
3326.37,993.941
3327.82,1006.2
3329.27,976.293
3330.73,996.218
3332.18,997.571
3333.63,1019.58
3335.08,1007.57
3336.53,975.223
3337.98,980.813
3339.44,978.58
3340.89,958.036
3342.34,986.128
3343.79,978.869
3345.24,986.552
3346.7,1003.31
3348.15,980.75
3349.6,966.261
3351.05,975.805
3352.5,993.119
3353.95,1010.99
3355.41,985.438
3356.86,987.826
3358.31,993.638
3359.76,1026.48
3361.21,993.672
3362.67,969.909
3364.12,995.559
3365.57,960.523
3367.02,968.222
3368.47,959.87
3369.92,983.124
3371.38,981.926
3372.83,999.274
3374.28,981.692
3375.73,981.105
3377.18,963.596
3378.63,945.632
3380.09,979.189
3381.54,953.498
3382.99,973.055
3384.44,983.733
3385.89,952.143
3387.35,972.818
3388.8,952.431
3390.25,953.799
3391.7,950.305
3393.15,970.392
3394.6,959.887
3396.06,962.345
3397.51,935.872
3398.96,968.481
3400.41,975.985
3401.86,972.788
3403.32,968.979
3404.77,978.985
3406.22,974.839
3407.67,966.706
3409.12,972.988
3410.57,959.939
3412.03,961.189
3413.48,958.264
3414.93,958.896
3416.38,959.378
3417.83,939.717
3419.28,959.697
3420.74,960.441
3422.19,948.36
3423.64,942.154
3425.09,940.182
3426.54,931.865
3428,961.881
3429.45,951.581
3430.9,993.878
3432.35,971.843
3433.8,973.162
3435.25,933.89
3436.71,986.355
3438.16,958.753
3439.61,959.776
3441.06,965.467
3442.51,936.809
3443.97,918.503
3445.42,937.237
3446.87,940.716
3448.32,946.729
3449.77,953.722
3451.22,961.722
3452.68,961.431
3454.13,936.289
3455.58,951.009
3457.03,959.133
3458.48,953.217
3459.94,932.051
3461.39,915.393
3462.84,935.946
3464.29,926.804
3465.74,912.468
3467.19,954.129
3468.65,950.166
3470.1,937.757
3471.55,944.146
3473,946.052
3474.45,935.991
3475.9,957.686
3477.36,936.625
3478.81,935.497
3480.26,948.147
3481.71,938.441
3483.16,955.398
3484.62,948.011
3486.07,949.483
3487.52,922.907
3488.97,923.08
3490.42,939.496
3491.87,965.653
3493.33,964.025
3494.78,943.607
3496.23,941.35
3497.68,930.395
3499.13,961.137
3500.58,953.98
3502.04,962.278
3503.49,967.976
3504.94,929.573
3506.39,931.013
3507.84,957.739
3509.3,939.403
3510.75,951.671
3512.2,964.885
3513.65,951.431
3515.1,970.825
3516.55,962.667
3518.01,951.956
3519.46,943.362
3520.91,962.846
3522.36,972.931
3523.81,970.564
3525.27,959.076
3526.72,945.06
3528.17,921.841
3529.62,944.485
3531.07,936.644
3532.52,926.753
3533.98,953.869
3535.43,930.48
3536.88,939.538
3538.33,967.117
3539.78,965.094
3541.24,934.347
3542.69,946.999
3544.14,925.465
3545.59,939.619
3547.04,941.175
3548.49,926.32
3549.95,935.725
3551.4,922.203
3552.85,951.245
3554.3,970.223
3555.75,952.366
3557.2,923.518
3558.66,922.898
3560.11,916.767
3561.56,949.774
3563.01,957.778
3564.46,953.94
3565.92,943.229
3567.37,942.507
3568.82,899.732
3570.27,941.47
3571.72,944.063
3573.17,910.467
3574.63,932.72
3576.08,933.839
3577.53,934.442
3578.98,948.754
3580.43,933.914
3581.89,940.535
3583.34,937.122
3584.79,954.063
3586.24,930.644
3587.69,915.759
3589.14,935.126
3590.6,947.351
3592.05,942.418
3593.5,946.559
3594.95,951.642
3596.4,936.256
3597.85,946.401
3599.31,928.218
3600.76,935.021
3602.21,923.521
3603.66,920.862
3605.11,907.744
3606.57,920.144
3608.02,928.365
3609.47,931.132
3610.92,952.603
3612.37,918.599
3613.82,924.429
3615.28,944.932
3616.73,938.541
3618.18,926.785
3619.63,933.516
3621.08,938.459
3622.54,934.77
3623.99,923.279
3625.44,940.054
3626.89,947.568
3628.34,933.566
3629.79,929.679
3631.25,941.497
3632.7,930.745
3634.15,929.83
3635.6,942.913
3637.05,954.049
3638.5,937.634
3639.96,943.636
3641.41,945.004
3642.86,945.033
3644.31,928.399
3645.76,923.261
3647.22,946.68
3648.67,956.671
3650.12,962.62
3651.57,955.135
3653.02,932.837
3654.47,938.832
3655.93,916.363
3657.38,962.331
3658.83,969.056
3660.28,944.543
3661.73,941.81
3663.19,933.789
3664.64,940.537
3666.09,951.805
3667.54,945.719
3668.99,932.575
3670.44,951.894
3671.9,944.759
3673.35,944.95
3674.8,955.424
3676.25,953.944
3677.7,975.1
3679.16,929.546
3680.61,940.968
3682.06,934.693
3683.51,934.953
3684.96,956.516
3686.41,953.165
3687.87,946.596
3689.32,944.163
3690.77,963.323
3692.22,972.436
3693.67,929.524
3695.12,935.917
3696.58,935.581
3698.03,984.008
3699.48,969.76
3700.93,963.558
3702.38,987.499
3703.84,949.296
3705.29,927.262
3706.74,917.442
3708.19,932.085
3709.64,974.826
3711.09,970.307
3712.55,963.629
3714,962.939
3715.45,963.393
3716.9,955.267
3718.35,945.904
3719.8,926.361
3721.26,965.799
3722.71,900.85
3724.16,979.059
3725.61,969.951
3727.06,943.831
3728.52,946.961
3729.97,959.159
3731.42,940.604
3732.87,951.383
3734.32,973.581
3735.77,921.529
3737.23,974.655
3738.68,980.076
3740.13,970.353
3741.58,989.2
3743.03,946.18
3744.49,966.926
3745.94,966.956
3747.39,966.815
3748.84,973.764
3750.29,991.026
3751.74,980.4
3753.2,969.642
3754.65,970.749
3756.1,960.739
3757.55,982.067
3759,996.802
3760.46,963.496
3761.91,971.982
3763.36,969.638
3764.81,963.83
3766.26,984.939
3767.71,970.391
3769.17,999.566
3770.62,994.881
3772.07,998.239
3773.52,980.935
3774.97,972.794
3776.42,981.81
3777.88,962.972
3779.33,958.476
3780.78,976.584
3782.23,978.527
3783.68,971.742
3785.14,1008.85
3786.59,974.423
3788.04,972.372
3789.49,952.681
3790.94,967.056
3792.39,958.417
3793.85,990.109
3795.3,963.696
3796.75,1003.13
3798.2,998.07
3799.65,1010.75
3801.1,1009.67
3802.56,983.496
3804.01,994.395
3805.46,991.781
3806.91,1007.66
3808.36,978.983
3809.82,979.978
3811.27,981.542
3812.72,1006.87
3814.17,1022.86
3815.62,1000.06
3817.07,1000.94
3818.53,1007.34
3819.98,1004.99
3821.43,1002.39
3822.88,987.203
3824.33,996.029
3825.79,998.811
3827.24,1010.68
3828.69,1013.8
3830.14,1005.81
3831.59,991.092
3833.04,1011.28
3834.5,1002.59
3835.95,997.411
3837.4,993.039
3838.85,989.344
3840.3,1001.8
3841.76,1004.11
3843.21,990.118
3844.66,992.868
3846.11,997.093
3847.56,1014.11
3849.01,1010.75
3850.47,1002.5
3851.92,997.403
3853.37,1026.64
3854.82,1003.16
3856.27,1013.54
3857.72,1031.83
3859.18,1048.02
3860.63,1014.99
3862.08,1014.33
3863.53,1036.2
3864.98,1036.77
3866.44,1040.3
3867.89,1024.24
3869.34,1036.58
3870.79,1012.49
3872.24,1027.38
3873.69,1026.22
3875.15,1011.75
3876.6,1050.81
3878.05,1034.84
3879.5,1029.05
3880.95,1028.17
3882.41,1027.8
3883.86,1049.16
3885.31,1030.99
3886.76,1050.03
3888.21,1075.94
3889.66,1017.93
3891.12,1041.46
3892.57,1072.37
3894.02,1037.37
3895.47,1057.97
3896.92,1067.03
3898.37,1075.77
3899.83,1035.75
3901.28,1069.21
3902.73,1077.31
3904.18,1080.44
3905.63,1088.35
3907.09,1060.78
3908.54,1066.03
3909.99,1066.61
3911.44,1086.93
3912.89,1093.8
3914.34,1060.59
3915.8,1108.26
3917.25,1103.52
3918.7,1075.81
3920.15,1095.7
3921.6,1089.85
3923.06,1109.8
3924.51,1103.6
3925.96,1089.37
3927.41,1100.75
3928.86,1115.8
3930.31,1111.24
3931.77,1134.2
3933.22,1109.75
3934.67,1104.13
3936.12,1108.58
3937.57,1082.57
3939.02,1136.24
3940.48,1134.26
3941.93,1129.86
3943.38,1123.41
3944.83,1141.87
3946.28,1147.54
3947.74,1116.19
3949.19,1153.2
3950.64,1157.13
3952.09,1166.03
3953.54,1154.17
3954.99,1174.89
3956.45,1138.05
3957.9,1175.66
3959.35,1150.02
3960.8,1150.19
3962.25,1153.4
3963.71,1131.58
3965.16,1189.46
3966.61,1189.8
3968.06,1147.23
3969.51,1205.15
3970.96,1168.99
3972.42,1182.91
3973.87,1199.39
3975.32,1213.95
3976.77,1187.79
3978.22,1205.51
3979.68,1197.12
3981.13,1223.09
3982.58,1208.72
3984.03,1209.54
3985.48,1237.05
3986.93,1232.18
3988.39,1236.33
3989.84,1230.06
3991.29,1212.77
3992.74,1220.53
3994.19,1218.33
3995.64,1206.52
3997.1,1246.44
3998.55,1249.23
4000,1229.52
