-20,37.0725
-18.5482,45.8206
-17.0964,51.3883
-15.6446,45.6646
-14.1928,68.3
-12.7411,75.9579
-11.2893,79.9885
-9.83749,94.6869
-8.3857,122.521
-6.93391,185.251
-5.48212,104.92
-4.03034,104.92
-2.57855,104.92
-1.12676,104.92
0.325027,104.92
1.77681,104.92
3.2286,104.92
4.68039,104.92
6.13218,104.92
7.58397,302.857
9.03575,134.127
10.4875,119.735
11.9393,105.513
13.3911,91.6467
14.8429,80.7072
16.2947,77.5903
17.7465,67.4501
19.1983,61.107
20.6501,52.8722
22.1018,45.3789
23.5536,39.5687
25.0054,25.7293
26.4572,15.2043
27.909,8.4145
29.3608,3.73242
30.8126,-2.08773
32.2644,-5.70599
33.7161,-2.66454
35.1679,-4.55557
36.6197,-11.8539
38.0715,-7.76117
39.5233,-13.5171
40.9751,-12.3108
42.4269,-5.97038
43.8787,-6.68268
45.3304,2.85008
46.7822,10.3782
48.234,28.9019
49.6858,70.6252
51.1376,146.272
52.5894,290.77
54.0412,504.304
55.493,752.904
56.9447,1028.21
58.3965,1294.85
59.8483,1505.61
61.3001,1670.48
62.7519,1795.3
64.2037,1895.27
65.6555,1970.28
67.1073,2035.8
68.559,2084.39
70.0108,2114.01
71.4626,2138.47
72.9144,2144.69
74.3662,2204.91
75.818,2241.44
77.2698,2254.82
78.7216,2314.05
80.1733,2373.42
81.6251,2422.64
83.0769,2473.15
84.5287,2538.35
85.9805,2507.88
87.4323,2420.76
88.8841,2321.14
90.3359,2229.43
91.7877,2142.55
93.2394,1975.51
94.6912,1888.21
96.143,1789.67
97.5948,1739.82
99.0466,1767.99
100.498,1683.64
101.95,1649.76
103.402,1620.24
104.854,1580.72
106.306,1557.91
107.757,1538.45
109.209,1536.44
110.661,1511.59
112.113,1463.02
113.564,1429.24
115.016,1416.93
116.468,1430.1
117.92,1411.66
119.372,1352.59
120.823,1330.85
122.275,1307.03
123.727,1263.44
125.179,1227.33
126.631,1206.05
128.082,1147.12
129.534,1150.94
130.986,1147.45
132.438,1135.04
133.889,1126.33
135.341,1102.41
136.793,1081.67
138.245,1076.69
139.697,1066.72
141.148,1053.63
142.6,1019.7
144.052,985.805
145.504,965.368
146.956,952.105
148.407,946.667
149.859,945.897
151.311,926.669
152.763,913.892
154.215,905.877
155.666,897.288
157.118,921.81
158.57,918.167
160.022,918.45
161.473,925.06
162.925,915.815
164.377,907.466
165.829,907.288
167.281,916.512
168.732,906.679
170.184,884.354
171.636,850.702
173.088,813.961
174.54,798.514
175.991,797.953
177.443,767.739
178.895,772.314
180.347,760.961
181.798,752.921
183.25,748.199
184.702,731.23
186.154,722.834
187.606,721.212
189.057,729.926
190.509,740.549
191.961,719.865
193.413,715.456
194.865,703.498
196.316,693.772
197.768,709.709
199.22,698.311
200.672,689.4
202.124,683.649
203.575,674.242
205.027,672.662
206.479,673.308
207.931,682.321
209.382,671.732
210.834,666.634
212.286,676.949
213.738,694.061
215.19,697.764
216.641,692.512
218.093,682.471
219.545,677.072
220.997,663.625
222.449,657.005
223.9,673.984
225.352,673.837
226.804,660.341
228.256,660.453
229.707,683.426
231.159,686.499
232.611,684.359
234.063,673.645
235.515,683.35
236.966,670.161
238.418,670.227
239.87,662.931
241.322,650.21
242.774,661.268
244.225,632.827
245.677,646.71
247.129,660.592
248.581,659.687
250.033,658.477
251.484,620.505
252.936,636.126
254.388,630.783
255.84,624.214
257.291,649.89
258.743,640.404
260.195,644.554
261.647,630.249
263.099,610.551
264.55,615.648
266.002,625.599
267.454,625.345
268.906,627.703
270.358,622.35
271.809,607.994
273.261,619.925
274.713,606.961
276.165,588.743
277.616,575.357
279.068,574.657
280.52,579.172
281.972,581.661
283.424,578.34
284.875,571.846
286.327,557.759
287.779,549.841
289.231,549.642
290.683,564.006
292.134,560.41
293.586,541.131
295.038,524.987
296.49,556.245
297.941,558.107
299.393,538.552
300.845,525.122
302.297,530.974
303.749,508.667
305.2,510.251
306.652,502.322
308.104,496.651
309.556,501.515
311.008,499.632
312.459,501.889
313.911,507.082
315.363,502.384
316.815,489.69
318.267,469.102
319.718,472.499
321.17,482.718
322.622,476.244
324.074,472.488
325.525,483.387
326.977,480.515
328.429,470.838
329.881,472.612
331.333,485.356
332.784,498.914
334.236,499.082
335.688,478.443
337.14,465.635
338.592,460.147
340.043,457.759
341.495,470.706
342.947,451.934
344.399,449.453
345.85,457.583
347.302,460.712
348.754,451.633
350.206,449.43
351.658,465.252
353.109,462.389
354.561,456.603
356.013,464.181
357.465,462.772
358.917,467.195
360.368,459.152
361.82,448.932
363.272,440.188
364.724,423.341
366.176,431.772
367.627,438.239
369.079,440.841
370.531,443.773
371.983,449.058
373.434,450.697
374.886,444.927
376.338,437.839
377.79,439.535
379.242,447.067
380.693,441.73
382.145,459.252
383.597,447.124
385.049,428.036
386.501,421.696
387.952,428.45
389.404,431.874
390.856,415.814
392.308,422.027
393.759,439.579
395.211,445.231
396.663,439.967
398.115,417.108
399.567,432.352
401.018,452.674
402.47,446.583
403.922,414.998
405.374,433.148
406.826,419.117
408.277,423.435
409.729,435.358
411.181,443.581
412.633,441.059
414.085,422.507
415.536,403.397
416.988,411.974
418.44,433.574
419.892,451.716
421.343,435.053
422.795,430.26
424.247,427.463
425.699,417.732
427.151,407.717
428.602,421.931
430.054,422.552
431.506,416.757
432.958,417.182
434.41,417.105
435.861,413.599
437.313,408.932
438.765,417.853
440.217,423.195
441.668,429.794
443.12,432.262
444.572,414.742
446.024,420.57
447.476,414.739
448.927,404.685
450.379,404.478
451.831,411.376
453.283,406.193
454.735,421.669
456.186,416.663
457.638,410.034
459.09,414.054
460.542,426.012
461.993,412.127
463.445,416.618
464.897,411.067
466.349,417.764
467.801,427.527
469.252,398.337
470.704,396.212
472.156,417.515
473.608,437.476
475.06,438.063
476.511,418.934
477.963,398.555
479.415,405.561
480.867,420.826
482.319,421.372
483.77,409.791
485.222,408.378
486.674,398.023
488.126,413.168
489.577,437.141
491.029,435.092
492.481,408.512
493.933,393.594
495.385,411.878
496.836,404.953
498.288,401.786
499.74,411.895
501.192,419.8
502.644,398.767
504.095,401.938
505.547,395.43
506.999,395.504
508.451,387.122
509.902,380.191
511.354,399.617
512.806,389.191
514.258,401.558
515.71,402.107
517.161,390.769
518.613,393.119
520.065,407.551
521.517,401.365
522.969,398.7
524.42,393.079
525.872,389.514
527.324,391.539
528.776,411.041
530.228,397.628
531.679,400.231
533.131,408.91
534.583,411.885
536.035,416.196
537.486,406.116
538.938,399.062
540.39,401.134
541.842,392.686
543.294,392.796
544.745,403.574
546.197,403.912
547.649,396.879
549.101,396.361
550.553,398.547
552.004,396.745
553.456,404.255
554.908,392.296
556.36,389.695
557.811,400.503
559.263,409.052
560.715,404.726
562.167,404.164
563.619,409.767
565.07,378.474
566.522,379.634
567.974,392.585
569.426,396.122
570.878,388.376
572.329,393.765
573.781,396.158
575.233,392.664
576.685,388.963
578.137,394.783
579.588,396.067
581.04,385.876
582.492,385.654
583.944,383.086
585.395,384.309
586.847,394.702
588.299,389.287
589.751,386.315
591.203,384.092
592.654,388.639
594.106,400.22
595.558,400.387
597.01,383.091
598.462,385.862
599.913,382.687
601.365,386.806
602.817,398.819
604.269,401.739
605.72,387.815
607.172,418.27
608.624,403.358
610.076,399.376
611.528,395.735
612.979,384.018
614.431,381.274
615.883,397.709
617.335,400.724
618.787,405.198
620.238,410.918
621.69,414.504
623.142,404.663
624.594,390.368
626.046,381.799
627.497,406.362
628.949,403.979
630.401,404.819
631.853,419.837
633.304,409.624
634.756,384.41
636.208,406.441
637.66,410.84
639.112,420.862
640.563,428.726
642.015,431.167
643.467,421.036
644.919,429.028
646.371,420.261
647.822,411.952
649.274,418.278
650.726,423.832
652.178,415.74
653.629,420.793
655.081,412.884
656.533,422.351
657.985,421.598
659.437,407.539
660.888,427.286
662.34,442.548
663.792,431.009
665.244,430.362
666.696,429.257
668.147,424.627
669.599,431.692
671.051,408.834
672.503,426.673
673.954,426.141
675.406,421.314
676.858,421.379
678.31,430.336
679.762,428.77
681.213,434.696
682.665,430.326
684.117,426.358
685.569,431.342
687.021,436.317
688.472,420.084
689.924,413.632
691.376,426.255
692.828,422.706
694.28,434.141
695.731,431.975
697.183,412.445
698.635,435.629
700.087,413.564
701.538,416.963
702.99,423.506
704.442,428.364
705.894,443.017
707.346,442.773
708.797,436.049
710.249,418.768
711.701,440.164
713.153,458.039
714.605,448.615
716.056,437.582
717.508,427.954
718.96,429.785
720.412,428.616
721.863,437.916
723.315,439.756
724.767,428.36
726.219,419.438
727.671,446.744
729.122,433.195
730.574,437.169
732.026,445.107
733.478,438.934
734.93,433.672
736.381,435.536
737.833,435.421
739.285,436.446
740.737,441.724
742.189,447.524
743.64,450.962
745.092,447.029
746.544,439.413
747.996,455.822
749.447,452.02
750.899,446.196
752.351,441.697
753.803,441.157
755.255,440.819
756.706,439.137
758.158,450.81
759.61,435.963
761.062,431.434
762.514,439.756
763.965,442.369
765.417,445.295
766.869,446.307
768.321,445.634
769.772,456.686
771.224,458.352
772.676,449.605
774.128,445.04
775.58,450.324
777.031,446.577
778.483,448.046
779.935,448.3
781.387,441.173
782.839,454.542
784.29,467.302
785.742,446.839
787.194,465.579
788.646,454.574
790.098,456.804
791.549,456.854
793.001,463.069
794.453,481.188
795.905,468.818
797.356,459.02
798.808,463.629
800.26,465.322
801.712,462.052
803.164,455.038
804.615,463.569
806.067,476.541
807.519,460.555
808.971,455.968
810.423,463.771
811.874,462.785
813.326,459.303
814.778,465.128
816.23,485.155
817.681,491.351
819.133,461.379
820.585,474.87
822.037,486.631
823.489,483.446
824.94,468.489
826.392,472.577
827.844,478.475
829.296,469.077
830.748,458.917
832.199,470.59
833.651,485.4
835.103,477.464
836.555,488.646
838.007,497.593
839.458,506.391
840.91,502.579
842.362,489.941
843.814,483.325
845.265,480.648
846.717,484.813
848.169,490.981
849.621,492.151
851.073,506.321
852.524,508.571
853.976,504.993
855.428,508.497
856.88,518.451
858.332,524.685
859.783,510.616
861.235,515.885
862.687,521.633
864.139,516.339
865.59,524.31
867.042,513.339
868.494,501.692
869.946,512.821
871.398,510.762
872.849,494.741
874.301,484.801
875.753,496.523
877.205,497.491
878.657,507.273
880.108,491.778
881.56,515.211
883.012,504.08
884.464,486.993
885.915,499.489
887.367,506.826
888.819,506.029
890.271,520.315
891.723,527.932
893.174,514.586
894.626,518.469
896.078,531.069
897.53,517.716
898.982,501.596
900.433,510.421
901.885,522.145
903.337,514.002
904.789,510.396
906.241,519.584
907.692,530.877
909.144,526.537
910.596,527.323
912.048,548.29
913.499,544.823
914.951,543.726
916.403,542.717
917.855,545.834
919.307,543.644
920.758,529.614
922.21,547.204
923.662,538.612
925.114,536.238
926.566,537.644
928.017,537.452
929.469,535.817
930.921,542.049
932.373,552.256
933.824,551.824
935.276,541.73
936.728,538.909
938.18,557.105
939.632,572.856
941.083,561.147
942.535,539.889
943.987,558.101
945.439,539.831
946.891,533.705
948.342,537.41
949.794,545.998
951.246,549.648
952.698,529.745
954.15,530.508
955.601,554.404
957.053,541.383
958.505,539.937
959.957,549.409
961.408,553.389
962.86,549.136
964.312,554.111
965.764,550.466
967.216,554.14
968.667,567.349
970.119,564.851
971.571,561.405
973.023,555.352
974.475,537.436
975.926,535.599
977.378,553.394
978.83,552.742
980.282,562.927
981.733,544.457
983.185,532.469
984.637,549.623
986.089,570.405
987.541,551.244
988.992,570.278
990.444,561.723
991.896,566.03
993.348,549.164
994.8,554.783
996.251,565.869
997.703,548.025
999.155,567.202
1000.61,578.223
1002.06,555.23
1003.51,580.93
1004.96,570.174
1006.41,567.552
1007.87,582.946
1009.32,594.8
1010.77,601.981
1012.22,591.788
1013.67,566.912
1015.12,590.407
1016.58,611.118
1018.03,603.647
1019.48,606.003
1020.93,622.154
1022.38,615.583
1023.84,639.309
1025.29,619.648
1026.74,637.656
1028.19,632.541
1029.64,632.966
1031.09,640.363
1032.55,649.497
1034,642.373
1035.45,656.464
1036.9,655.302
1038.35,675.409
1039.8,676.152
1041.26,682.074
1042.71,688.816
1044.16,688.618
1045.61,700.586
1047.06,704.229
1048.52,720.622
1049.97,697.637
1051.42,724.569
1052.87,722.549
1054.32,738.558
1055.77,743.215
1057.23,738.483
1058.68,745.599
1060.13,782.131
1061.58,778.681
1063.03,787.094
1064.49,808.457
1065.94,803.066
1067.39,797.295
1068.84,789.266
1070.29,804.07
1071.74,827.483
1073.2,828.036
1074.65,825.746
1076.1,826.096
1077.55,834.95
1079,848.361
1080.46,867.928
1081.91,874.409
1083.36,841.333
1084.81,863.174
1086.26,834.758
1087.71,853.163
1089.17,855.986
1090.62,854.852
1092.07,846.874
1093.52,851.976
1094.97,852.066
1096.42,849.788
1097.88,817.193
1099.33,840.254
1100.78,831.774
1102.23,844.367
1103.68,838.325
1105.14,823.973
1106.59,828.289
1108.04,835.556
1109.49,849.488
1110.94,836.181
1112.39,810.763
1113.85,820.55
1115.3,817.687
1116.75,811.559
1118.2,806.609
1119.65,809.609
1121.11,806.488
1122.56,789.649
1124.01,769.227
1125.46,788.328
1126.91,776
1128.36,787.605
1129.82,801.137
1131.27,789.151
1132.72,765.797
1134.17,763.272
1135.62,767.155
1137.07,776.657
1138.53,751.538
1139.98,761.834
1141.43,758.227
1142.88,757.505
1144.33,763.493
1145.79,758.934
1147.24,736.628
1148.69,744.24
1150.14,742.168
1151.59,754.533
1153.04,762.912
1154.5,752.438
1155.95,778.288
1157.4,782.651
1158.85,756.58
1160.3,760.726
1161.76,769.646
1163.21,770.686
1164.66,745.18
1166.11,744.21
1167.56,752.816
1169.01,768.394
1170.47,752.132
1171.92,749.771
1173.37,770.84
1174.82,776.112
1176.27,782.075
1177.72,776.13
1179.18,784.798
1180.63,800.323
1182.08,787.509
1183.53,783.001
1184.98,782.165
1186.44,772.922
1187.89,774.42
1189.34,784.426
1190.79,789.606
1192.24,792.282
1193.69,782.601
1195.15,794.646
1196.6,803.896
1198.05,805.883
1199.5,809.377
1200.95,809.561
1202.41,825.359
1203.86,805.469
1205.31,811.983
1206.76,818.686
1208.21,828.12
1209.66,815.306
1211.12,804.014
1212.57,800.989
1214.02,804.607
1215.47,821.963
1216.92,799.135
1218.37,799.121
1219.83,832.136
1221.28,824.051
1222.73,843.736
1224.18,839.345
1225.63,835.577
1227.09,838.988
1228.54,846.168
1229.99,860.539
1231.44,841.379
1232.89,831.063
1234.34,826.168
1235.8,841.698
1237.25,881.59
1238.7,866.79
1240.15,848.037
1241.6,860.62
1243.06,878.801
1244.51,871.751
1245.96,860.661
1247.41,865.684
1248.86,929.808
1250.31,919.963
1251.77,908.801
1253.22,922.258
1254.67,932.34
1256.12,934.72
1257.57,946.553
1259.02,946.553
1260.48,928.97
1261.93,984.091
1263.38,998.755
1264.83,994.721
1266.28,1035.69
1267.74,1033.64
1269.19,1035.39
1270.64,1040.59
1272.09,1055.01
1273.54,1078.61
1274.99,1087.76
1276.45,1097.24
1277.9,1117.44
1279.35,1135.45
1280.8,1176.02
1282.25,1199.78
1283.71,1219.57
1285.16,1256.59
1286.61,1277.89
1288.06,1278.94
1289.51,1321.84
1290.96,1354.12
1292.42,1412.5
1293.87,1448.31
1295.32,1474.86
1296.77,1517.24
1298.22,1565.73
1299.67,1610.85
1301.13,1689.24
1302.58,1761.84
1304.03,1788.49
1305.48,1878.92
1306.93,1952.44
1308.39,2031.95
1309.84,2082.5
1311.29,2194.32
1312.74,2267.82
1314.19,2405.94
1315.64,2516.6
1317.1,2643.46
1318.55,2783.92
1320,2858.54
1321.45,2920.57
1322.9,3034.84
1324.36,3150.2
1325.81,3281.06
1327.26,3366.73
1328.71,3372.05
1330.16,3439.67
1331.61,3491.31
1333.07,3467.28
1334.52,3448.43
1335.97,3510.58
1337.42,3457.45
1338.87,3368.32
1340.33,3338.5
1341.78,3262.28
1343.23,3132.09
1344.68,3040.65
1346.13,2925.65
1347.58,2826.04
1349.04,2710.73
1350.49,2585.71
1351.94,2466.48
1353.39,2353.26
1354.84,2234.9
1356.29,2127.83
1357.75,2109.6
1359.2,1980.54
1360.65,1912.55
1362.1,1832.03
1363.55,1778.44
1365.01,1753.59
1366.46,1686.89
1367.91,1591.82
1369.36,1580.53
1370.81,1533.7
1372.26,1476.28
1373.72,1472.62
1375.17,1444.75
1376.62,1411.76
1378.07,1381.7
1379.52,1357.17
1380.98,1313.37
1382.43,1294.68
1383.88,1285.49
1385.33,1263.3
1386.78,1244.23
1388.23,1230.56
1389.69,1237.17
1391.14,1184.58
1392.59,1236.69
1394.04,1162.88
1395.49,1181.69
1396.94,1186.21
1398.4,1175.38
1399.85,1170.45
1401.3,1175.2
1402.75,1160.38
1404.2,1159.96
1405.66,1156.54
1407.11,1169.78
1408.56,1170.29
1410.01,1180.39
1411.46,1171.63
1412.91,1157.53
1414.37,1165.25
1415.82,1163.39
1417.27,1158.89
1418.72,1157.6
1420.17,1179.19
1421.63,1180.68
1423.08,1162.5
1424.53,1158.63
1425.98,1153.53
1427.43,1200.96
1428.88,1200.02
1430.34,1167.27
1431.79,1176.39
1433.24,1192.13
1434.69,1201.17
1436.14,1211.71
1437.59,1204.45
1439.05,1204.67
1440.5,1225.34
1441.95,1239.92
1443.4,1226.91
1444.85,1250.68
1446.31,1225.06
1447.76,1238
1449.21,1273.45
1450.66,1319.53
1452.11,1306.37
1453.56,1277.16
1455.02,1303.63
1456.47,1337.15
1457.92,1331.38
1459.37,1338.8
1460.82,1348.22
1462.28,1360.7
1463.73,1394.71
1465.18,1388.65
1466.63,1414.12
1468.08,1445.15
1469.53,1473.62
1470.99,1491.68
1472.44,1488.65
1473.89,1495.39
1475.34,1513.1
1476.79,1541.56
1478.24,1591.23
1479.7,1654.37
1481.15,1661.01
1482.6,1645.54
1484.05,1688.36
1485.5,1724.96
1486.96,1707.57
1488.41,1738.86
1489.86,1804.65
1491.31,1862.72
1492.76,1887.01
1494.21,1913.12
1495.67,1955.2
1497.12,2009.21
1498.57,2048.43
1500.02,2088.71
1501.47,2172.04
1502.93,2255.64
1504.38,2303.29
1505.83,2376.58
1507.28,2437.8
1508.73,2519.45
1510.18,2590.51
1511.64,2686.68
1513.09,2804.64
1514.54,2912.79
1515.99,3032.13
1517.44,3176.44
1518.89,3288.95
1520.35,3466.21
1521.8,3725.14
1523.25,3892.47
1524.7,4134.57
1526.15,4419.75
1527.61,4729.19
1529.06,5055.12
1530.51,5361.8
1531.96,5764.25
1533.41,6213.85
1534.86,6740.91
1536.32,7330.2
1537.77,7976.8
1539.22,8774.88
1540.67,9603.42
1542.12,10298.6
1543.58,11233.3
1545.03,12174.7
1546.48,13127.2
1547.93,14262.8
1549.38,15375.2
1550.83,16484.8
1552.29,17545.3
1553.74,18592.4
1555.19,19732.1
1556.64,20646.9
1558.09,21522.4
1559.54,22361.5
1561,23011.6
1562.45,23508.7
1563.9,23846.8
1565.35,23918.6
1566.8,23714.5
1568.26,23538
1569.71,23038.9
1571.16,22219.3
1572.61,21263.4
1574.06,20221.6
1575.51,19148
1576.97,17951.1
1578.42,16713.5
1579.87,15575.2
1581.32,14429.3
1582.77,13256.1
1584.23,12227.7
1585.68,11279.7
1587.13,10333.2
1588.58,9413.14
1590.03,8741.79
1591.48,7991.04
1592.94,7406.68
1594.39,6887.06
1595.84,6497.94
1597.29,6104.45
1598.74,5759.55
1600.2,5378.29
1601.65,5064.7
1603.1,4836.63
1604.55,4610.25
1606,4375.42
1607.45,4155.17
1608.91,3951.33
1610.36,3705.6
1611.81,3575.24
1613.26,3378.4
1614.71,3210.27
1616.16,3044.98
1617.62,2877.35
1619.07,2790.01
1620.52,2678.71
1621.97,2579.9
1623.42,2471.8
1624.88,2365.02
1626.33,2285.62
1627.78,2187.33
1629.23,2132.33
1630.68,2098.76
1632.13,2003.94
1633.59,1965.32
1635.04,1841.81
1636.49,1853.62
1637.94,1802.91
1639.39,1740.27
1640.85,1675.73
1642.3,1663.81
1643.75,1633.16
1645.2,1616.46
1646.65,1583.63
1648.1,1564.95
1649.56,1546.31
1651.01,1474.23
1652.46,1435.27
1653.91,1431.33
1655.36,1422.47
1656.81,1408.95
1658.27,1371.64
1659.72,1343.49
1661.17,1379.7
1662.62,1291.41
1664.07,1322.29
1665.53,1280.97
1666.98,1282.03
1668.43,1283.97
1669.88,1222.31
1671.33,1214.71
1672.78,1207.19
1674.24,1202.89
1675.69,1182.9
1677.14,1169.05
1678.59,1165.48
1680.04,1173.1
1681.5,1144.34
1682.95,1102.81
1684.4,1120.51
1685.85,1132.53
1687.3,1098.1
1688.75,1091.13
1690.21,1078.35
1691.66,1068.37
1693.11,1061.58
1694.56,1047.78
1696.01,1041.18
1697.46,1030.74
1698.92,1024.82
1700.37,1005.07
1701.82,1011.52
1703.27,1002.94
1704.72,1005.11
1706.18,1014.83
1707.63,1007.59
1709.08,997.491
1710.53,987.187
1711.98,993.046
1713.43,998.08
1714.89,989.72
1716.34,987.944
1717.79,974.734
1719.24,967.367
1720.69,1001.73
1722.15,976.763
1723.6,1005.46
1725.05,986.929
1726.5,974.084
1727.95,982.009
1729.4,1005.52
1730.86,987.787
1732.31,990.833
1733.76,970.453
1735.21,993.495
1736.66,999.821
1738.11,992.943
1739.57,972.544
1741.02,952.752
1742.47,965.221
1743.92,940.045
1745.37,924.985
1746.83,946.454
1748.28,933.399
1749.73,937.844
1751.18,945.209
1752.63,888.217
1754.08,916.545
1755.54,916.811
1756.99,922.726
1758.44,900.397
1759.89,909.928
1761.34,879.337
1762.8,903.533
1764.25,891.886
1765.7,881.777
1767.15,881.141
1768.6,851.557
1770.05,864.828
1771.51,876.432
1772.96,868.166
1774.41,860.001
1775.86,857.678
1777.31,837.227
1778.76,830.601
1780.22,852.875
1781.67,842.3
1783.12,825.669
1784.57,861.847
1786.02,858.53
1787.48,846.962
1788.93,793.92
1790.38,842.363
1791.83,853.689
1793.28,838.752
1794.73,841.372
1796.19,805.041
1797.64,811.967
1799.09,813.185
1800.54,806.512
1801.99,792.762
1803.45,822.6
1804.9,819.992
1806.35,810.454
1807.8,830.246
1809.25,834.406
1810.7,817.167
1812.16,803.852
1813.61,806.198
1815.06,785.97
1816.51,774.166
1817.96,799.924
1819.41,798.401
1820.87,806.522
1822.32,801.916
1823.77,793.315
1825.22,785.608
1826.67,805.231
1828.13,817.866
1829.58,823.369
1831.03,828.209
1832.48,808.603
1833.93,838.351
1835.38,805.467
1836.84,829.922
1838.29,814.327
1839.74,828.352
1841.19,834.012
1842.64,831.94
1844.1,856.669
1845.55,843.304
1847,838.701
1848.45,840.963
1849.9,848.748
1851.35,840.158
1852.81,854.856
1854.26,864.874
1855.71,866.066
1857.16,862.013
1858.61,856.874
1860.07,871.824
1861.52,879.084
1862.97,879.716
1864.42,854.811
1865.87,855.599
1867.32,851.521
1868.78,839.577
1870.23,850.581
1871.68,856.754
1873.13,839.39
1874.58,844.776
1876.03,844.356
1877.49,849.87
1878.94,817.115
1880.39,844.287
1881.84,844.293
1883.29,834.391
1884.75,817.864
1886.2,808.907
1887.65,821.198
1889.1,807.229
1890.55,809.941
1892,792.344
1893.46,790.435
1894.91,787.874
1896.36,795.023
1897.81,785.148
1899.26,787.179
1900.72,794.605
1902.17,772.68
1903.62,766.679
1905.07,763.341
1906.52,744.44
1907.97,760.485
1909.43,769.014
1910.88,749.124
1912.33,774.21
1913.78,772.706
1915.23,747.393
1916.68,725.286
1918.14,755.121
1919.59,739.999
1921.04,751.387
1922.49,726.654
1923.94,743.128
1925.4,725.154
1926.85,709.188
1928.3,718.998
1929.75,769.937
1931.2,726.077
1932.65,751.807
1934.11,750.375
1935.56,748.743
1937.01,736.734
1938.46,733.594
1939.91,732.371
1941.37,753.923
1942.82,720.144
1944.27,734.885
1945.72,739.457
1947.17,715.375
1948.62,750.288
1950.08,782.476
1951.53,757.54
1952.98,744.52
1954.43,739.545
1955.88,747.557
1957.33,737.049
1958.79,742.47
1960.24,733.181
1961.69,742.172
1963.14,763.256
1964.59,775.362
1966.05,776.767
1967.5,771.332
1968.95,774.962
1970.4,777.15
1971.85,766.278
1973.3,774.649
1974.76,800.803
1976.21,785.339
1977.66,773.572
1979.11,784.251
1980.56,792.22
1982.02,794.625
1983.47,788.84
1984.92,782.484
1986.37,783.946
1987.82,793.964
1989.27,804.386
1990.73,778.449
1992.18,764.916
1993.63,790.847
1995.08,805.332
1996.53,792.837
1997.98,782.294
1999.44,781.385
2000.89,792.683
2002.34,780.688
2003.79,798.085
2005.24,789.641
2006.7,781.695
2008.15,763.192
2009.6,761.214
2011.05,781.204
2012.5,781.132
2013.95,773.866
2015.41,776.536
2016.86,795.471
2018.31,769.637
2019.76,738.11
2021.21,743.468
2022.67,730.222
2024.12,761.844
2025.57,762.21
2027.02,742.197
2028.47,730.662
2029.92,757.472
2031.38,738.87
2032.83,752.364
2034.28,728.802
2035.73,729.658
2037.18,731.962
2038.63,736.493
2040.09,727.559
2041.54,727.292
2042.99,725.937
2044.44,701.481
2045.89,688.742
2047.35,699.598
2048.8,727.907
2050.25,693.573
2051.7,694.841
2053.15,694.563
2054.6,700.153
2056.06,687.979
2057.51,703.417
2058.96,705.718
2060.41,687.164
2061.86,692.583
2063.32,695.299
2064.77,675.011
2066.22,686.575
2067.67,672.201
2069.12,682.133
2070.57,679.877
2072.03,676.415
2073.48,669.734
2074.93,688.19
2076.38,680.793
2077.83,677.385
2079.28,657.264
2080.74,655.844
2082.19,654.459
2083.64,653.336
2085.09,660.942
2086.54,651.971
2088,661
2089.45,666.298
2090.9,661.769
2092.35,665.893
2093.8,651.807
2095.25,670.067
2096.71,688.791
2098.16,662.865
2099.61,642.591
2101.06,665.915
2102.51,669.178
2103.97,670.921
2105.42,669.456
2106.87,666.351
2108.32,658.191
2109.77,654.491
2111.22,660.692
2112.68,674.411
2114.13,678.669
2115.58,678.112
2117.03,669.112
2118.48,678.496
2119.94,693.327
2121.39,691.279
2122.84,687.233
2124.29,673.425
2125.74,670.677
2127.19,670.348
2128.65,669.936
2130.1,684.074
2131.55,681.69
2133,681.95
2134.45,696.017
2135.9,697.905
2137.36,692.804
2138.81,686.4
2140.26,681.312
2141.71,683.534
2143.16,687.803
2144.62,688.324
2146.07,695.246
2147.52,717.863
2148.97,713.54
2150.42,698.062
2151.87,711.503
2153.33,696.895
2154.78,703.008
2156.23,703.014
2157.68,707.176
2159.13,715.865
2160.58,697.643
2162.04,695.794
2163.49,709.834
2164.94,709.495
2166.39,715.073
2167.84,716.09
2169.3,736.889
2170.75,739.564
2172.2,729.169
2173.65,725.456
2175.1,717.316
2176.55,704.095
2178.01,730.492
2179.46,713.792
2180.91,708.738
2182.36,734.674
2183.81,771.093
2185.27,735.252
2186.72,742.614
2188.17,733.087
2189.62,747.105
2191.07,752.392
2192.52,740.05
2193.98,759.564
2195.43,738.714
2196.88,735.165
2198.33,761.65
2199.78,770.138
2201.24,752.845
2202.69,755.219
2204.14,728.197
2205.59,755.635
2207.04,723.881
2208.49,772.679
2209.95,755.945
2211.4,755.489
2212.85,733.272
2214.3,736.933
2215.75,767.891
2217.2,756.658
2218.66,756.8
2220.11,735.898
2221.56,762.559
2223.01,743.859
2224.46,749.777
2225.92,747.01
2227.37,731.321
2228.82,729.409
2230.27,740.295
2231.72,766.286
2233.17,764.79
2234.63,768.14
2236.08,758.63
2237.53,750.381
2238.98,759.485
2240.43,783.567
2241.89,763.476
2243.34,771.235
2244.79,772.433
2246.24,787.607
2247.69,796.218
2249.14,792.846
2250.6,793.831
2252.05,790.83
2253.5,796.011
2254.95,810.211
2256.4,811.618
2257.85,789.127
2259.31,790.95
2260.76,796.591
2262.21,790.844
2263.66,803.802
2265.11,819.427
2266.57,819.993
2268.02,819.474
2269.47,809.517
2270.92,802.602
2272.37,820.02
2273.82,821.682
2275.28,837.139
2276.73,818.332
2278.18,836.891
2279.63,837.61
2281.08,835.478
2282.54,842.248
2283.99,857.246
2285.44,847.369
2286.89,853.801
2288.34,852.157
2289.79,840.257
2291.25,883.095
2292.7,842.978
2294.15,856.05
2295.6,853.455
2297.05,871.733
2298.5,863.804
2299.96,863.023
2301.41,876.206
2302.86,867.051
2304.31,877.618
2305.76,896.905
2307.22,886.738
2308.67,903.717
2310.12,899.757
2311.57,886.262
2313.02,903.682
2314.47,914.536
2315.93,896.991
2317.38,918.147
2318.83,920.213
2320.28,902.816
2321.73,914.66
2323.19,926.421
2324.64,920.705
2326.09,939.329
2327.54,949.843
2328.99,951.387
2330.44,959.487
2331.9,974.811
2333.35,969.413
2334.8,960.624
2336.25,948.456
2337.7,953.902
2339.16,971.175
2340.61,990.722
2342.06,998.781
2343.51,1003.81
2344.96,1008.69
2346.41,1015.56
2347.87,998.679
2349.32,1038.08
2350.77,1006.26
2352.22,1055.1
2353.67,1050.56
2355.12,1060.84
2356.58,1069.5
2358.03,1060.35
2359.48,1059.99
2360.93,1070.57
2362.38,1102.11
2363.84,1117.23
2365.29,1128.22
2366.74,1143.6
2368.19,1142.39
2369.64,1136.74
2371.09,1152.7
2372.55,1180.13
2374,1192.23
2375.45,1201.47
2376.9,1191.93
2378.35,1226.35
2379.8,1229.91
2381.26,1240.76
2382.71,1286.91
2384.16,1305.09
2385.61,1347.28
2387.06,1374.27
2388.52,1398.75
2389.97,1416.36
2391.42,1405.38
2392.87,1423.26
2394.32,1469.05
2395.77,1488.68
2397.23,1538.04
2398.68,1537.2
2400.13,1608.76
2401.58,1629.66
2403.03,1638.78
2404.49,1649.37
2405.94,1687.27
2407.39,1690.63
2408.84,1734.06
2410.29,1752.67
2411.74,1796.47
2413.2,1832.7
2414.65,1837.41
2416.1,1848.93
2417.55,1860.33
2419,1869.53
2420.46,1907.2
2421.91,1933.35
2423.36,1901.63
2424.81,1901.87
2426.26,1917.43
2427.71,1911.54
2429.17,1943.64
2430.62,1975.27
2432.07,1979.64
2433.52,1898.03
2434.97,1904.64
2436.42,1863.89
2437.88,1908.27
2439.33,1895.4
2440.78,1906.29
2442.23,1857.16
2443.68,1861.55
2445.14,1861.37
2446.59,1831.28
2448.04,1835.9
2449.49,1838.52
2450.94,1816.91
2452.39,1786.81
2453.85,1799.8
2455.3,1799.39
2456.75,1767.12
2458.2,1742.98
2459.65,1737.02
2461.1,1747.45
2462.56,1747.08
2464.01,1722.52
2465.46,1695.54
2466.91,1707.67
2468.36,1700.52
2469.82,1699.77
2471.27,1730.52
2472.72,1698.94
2474.17,1721.3
2475.62,1670.46
2477.07,1639.1
2478.53,1679.87
2479.98,1663.63
2481.43,1680.35
2482.88,1695.76
2484.33,1663.64
2485.79,1664.18
2487.24,1667.47
2488.69,1656.35
2490.14,1690.75
2491.59,1663.21
2493.04,1688.97
2494.5,1695.67
2495.95,1709.06
2497.4,1674.11
2498.85,1709.29
2500.3,1698.99
2501.76,1694.99
2503.21,1719.89
2504.66,1712.27
2506.11,1708.7
2507.56,1752.64
2509.01,1743.4
2510.47,1746.62
2511.92,1758.66
2513.37,1798.55
2514.82,1791.19
2516.27,1805.55
2517.72,1815.07
2519.18,1836.41
2520.63,1833.25
2522.08,1864.39
2523.53,1863.05
2524.98,1879.92
2526.44,1927.48
2527.89,1936.21
2529.34,1938.19
2530.79,1969.43
2532.24,1994.67
2533.69,2006.5
2535.15,2007.08
2536.6,2028.56
2538.05,2050.43
2539.5,2038.66
2540.95,2098.07
2542.41,2139.42
2543.86,2168.31
2545.31,2205.94
2546.76,2239.47
2548.21,2276.96
2549.66,2314.15
2551.12,2347.44
2552.57,2332.84
2554.02,2404.64
2555.47,2435.47
2556.92,2535.35
2558.37,2524.2
2559.83,2649.3
2561.28,2634.44
2562.73,2676.57
2564.18,2762.34
2565.63,2787.14
2567.09,2836.7
2568.54,2935.55
2569.99,3004.36
2571.44,3103.09
2572.89,3101.17
2574.34,3138.12
2575.8,3252.31
2577.25,3339.57
2578.7,3459.49
2580.15,3558.29
2581.6,3627.16
2583.06,3705.34
2584.51,3848.32
2585.96,3943.73
2587.41,4088.16
2588.86,4227.41
2590.31,4314.82
2591.77,4406.99
2593.22,4560.95
2594.67,4767.7
2596.12,4964.48
2597.57,5132.22
2599.02,5323.95
2600.48,5505.27
2601.93,5693.66
2603.38,5894.44
2604.83,6095.42
2606.28,6294.77
2607.74,6599.71
2609.19,6803.41
2610.64,7133.7
2612.09,7403.78
2613.54,7705.73
2614.99,7963.77
2616.45,8246.13
2617.9,8661.54
2619.35,8912.9
2620.8,9309.11
2622.25,9727.48
2623.71,10062
2625.16,10353.8
2626.61,10836.4
2628.06,11202.4
2629.51,11605.9
2630.96,12033
2632.42,12384.6
2633.87,12751.5
2635.32,13165
2636.77,13472.7
2638.22,13943.6
2639.68,14215.5
2641.13,14465
2642.58,14848.4
2644.03,15107.3
2645.48,15414.3
2646.93,15519.9
2648.39,15696
2649.84,16123.7
2651.29,16062.8
2652.74,16193
2654.19,16285.5
2655.64,16263.4
2657.1,16317.7
2658.55,16377.5
2660,16245.6
2661.45,16044
2662.9,15887.1
2664.36,15764.8
2665.81,15551
2667.26,15229.8
2668.71,14850.4
2670.16,14623.5
2671.61,14303.9
2673.07,14000.2
2674.52,13515.5
2675.97,13241.7
2677.42,12926
2678.87,12560.8
2680.32,12120.5
2681.78,11715.8
2683.23,11328
2684.68,10933
2686.13,10479.4
2687.58,10144.7
2689.04,9765.52
2690.49,9336.94
2691.94,9033.25
2693.39,8697.43
2694.84,8330.91
2696.29,7954.06
2697.75,7629.74
2699.2,7317.85
2700.65,7001.79
2702.1,6696.77
2703.55,6502.09
2705.01,6274.67
2706.46,5988.65
2707.91,5714.86
2709.36,5468.87
2710.81,5276.58
2712.26,5112.81
2713.72,4914.56
2715.17,4719.46
2716.62,4565.58
2718.07,4409.87
2719.52,4261.95
2720.98,4138.95
2722.43,3960.25
2723.88,3814.42
2725.33,3714.74
2726.78,3639.03
2728.23,3471.31
2729.69,3396.18
2731.14,3290.65
2732.59,3179.7
2734.04,3098.55
2735.49,2991.09
2736.94,2901.88
2738.4,2835.42
2739.85,2815.67
2741.3,2755.19
2742.75,2668.08
2744.2,2620.95
2745.66,2540.66
2747.11,2499.81
2748.56,2456.93
2750.01,2387.3
2751.46,2356.74
2752.91,2308.66
2754.37,2285.54
2755.82,2221.88
2757.27,2180.28
2758.72,2154.65
2760.17,2084.71
2761.63,2069.39
2763.08,2026.43
2764.53,1987.91
2765.98,1994.27
2767.43,1958.88
2768.88,1958.74
2770.34,1929.53
2771.79,1907.98
2773.24,1867.18
2774.69,1827.25
2776.14,1787.31
2777.59,1808.88
2779.05,1770.06
2780.5,1751.43
2781.95,1733.94
2783.4,1733.19
2784.85,1701.89
2786.31,1690.06
2787.76,1672.59
2789.21,1643.41
2790.66,1667.52
2792.11,1609.41
2793.56,1590.72
2795.02,1561.8
2796.47,1586.18
2797.92,1570.93
2799.37,1544.97
2800.82,1539.93
2802.28,1521.08
2803.73,1494.07
2805.18,1510.61
2806.63,1500.24
2808.08,1486.36
2809.53,1478.84
2810.99,1488.15
2812.44,1455.35
2813.89,1448.93
2815.34,1442.82
2816.79,1429.94
2818.24,1422.42
2819.7,1432.86
2821.15,1423.03
2822.6,1383.36
2824.05,1374.23
2825.5,1392.47
2826.96,1361.35
2828.41,1399.56
2829.86,1358.38
2831.31,1343.07
2832.76,1353.67
2834.21,1356.45
2835.67,1351.73
2837.12,1332.73
2838.57,1333
2840.02,1345.46
2841.47,1320.52
2842.93,1361.36
2844.38,1305.44
2845.83,1342.41
2847.28,1319.79
2848.73,1299.4
2850.18,1320.96
2851.64,1326.68
2853.09,1323.6
2854.54,1285.15
2855.99,1302.14
2857.44,1275.81
2858.9,1275.39
2860.35,1316.38
2861.8,1283.26
2863.25,1301.51
2864.7,1317.88
2866.15,1323.66
2867.61,1320.83
2869.06,1310.91
2870.51,1319.23
2871.96,1315.82
2873.41,1330.82
2874.86,1331.54
2876.32,1339.75
2877.77,1322.2
2879.22,1333.58
2880.67,1318.95
2882.12,1331.96
2883.58,1331.71
2885.03,1315.94
2886.48,1329.64
2887.93,1326.37
2889.38,1321.81
2890.83,1338.84
2892.29,1348.16
2893.74,1348.51
2895.19,1343.07
2896.64,1332.78
2898.09,1311.5
2899.54,1313.77
2901,1305.61
2902.45,1329.86
2903.9,1312.03
2905.35,1324.1
2906.8,1282.37
2908.26,1285.14
2909.71,1304.36
2911.16,1290.57
2912.61,1286.2
2914.06,1319.5
2915.51,1281.28
2916.97,1291.46
2918.42,1263.55
2919.87,1257.27
2921.32,1261.58
2922.77,1257.82
2924.23,1237.92
2925.68,1231.56
2927.13,1223.51
2928.58,1223.87
2930.03,1180.96
2931.48,1191.56
2932.94,1171.94
2934.39,1179.96
2935.84,1161.94
2937.29,1153.48
2938.74,1151.98
2940.2,1114.02
2941.65,1131.62
2943.1,1131.32
2944.55,1104.04
2946,1122.48
2947.45,1102.32
2948.91,1077.26
2950.36,1075.96
2951.81,1061.73
2953.26,1046.09
2954.71,1039.29
2956.16,1054.6
2957.62,1004.92
2959.07,1010.18
2960.52,986.619
2961.97,1018.95
2963.42,1006.37
2964.88,991.015
2966.33,984.527
2967.78,991.548
2969.23,995.706
2970.68,959.082
2972.13,973.681
2973.59,976.295
2975.04,970.826
2976.49,956.267
2977.94,935.993
2979.39,954.282
2980.84,918.854
2982.3,938.669
2983.75,926.782
2985.2,939.329
2986.65,923.626
2988.1,920.053
2989.56,892.315
2991.01,895.298
2992.46,904.929
2993.91,875.697
2995.36,883.927
2996.81,888.595
2998.27,898.407
2999.72,901.359
3001.17,887.508
3002.62,878.874
3004.07,888.358
3005.53,886.253
3006.98,856.904
3008.43,847.624
3009.88,864.546
3011.33,838.174
3012.78,855.676
3014.24,865.96
3015.69,843.153
3017.14,861.002
3018.59,839.512
3020.04,895.223
3021.5,882.208
3022.95,884.505
3024.4,866.021
3025.85,876.16
3027.3,848.173
3028.75,832.495
3030.21,877.016
3031.66,848.656
3033.11,879.843
3034.56,864.338
3036.01,846.871
3037.46,839.401
3038.92,852.377
3040.37,841.949
3041.82,844.724
3043.27,834.006
3044.72,850.345
3046.18,842.752
3047.63,842.051
3049.08,845.985
3050.53,866.448
3051.98,858.384
3053.43,866.493
3054.89,868.186
3056.34,842.843
3057.79,874.81
3059.24,862.706
3060.69,855.81
3062.15,851.4
3063.6,879.615
3065.05,885.16
3066.5,865.796
3067.95,913.275
3069.4,881.061
3070.86,878.902
3072.31,878.034
3073.76,902.184
3075.21,876.121
3076.66,908.284
3078.11,918.299
3079.57,909.427
3081.02,911.062
3082.47,920.448
3083.92,946.8
3085.37,951.881
3086.83,971.32
3088.28,940.13
3089.73,959.113
3091.18,982.327
3092.63,973.441
3094.08,989.244
3095.54,986.343
3096.99,988.406
3098.44,1010.82
3099.89,1015.43
3101.34,1040.35
3102.8,1067.08
3104.25,1062.09
3105.7,1088.72
3107.15,1096.63
3108.6,1119.19
3110.05,1137.42
3111.51,1162.87
3112.96,1178.69
3114.41,1169.98
3115.86,1172.32
3117.31,1191.19
3118.76,1250.54
3120.22,1261.87
3121.67,1278.02
3123.12,1259.86
3124.57,1276.97
3126.02,1296.8
3127.48,1280.16
3128.93,1274.16
3130.38,1336.94
3131.83,1319.94
3133.28,1343.47
3134.73,1367.24
3136.19,1362.88
3137.64,1341.25
3139.09,1379.15
3140.54,1371.98
3141.99,1391.62
3143.45,1388.15
3144.9,1390.12
3146.35,1415.9
3147.8,1416.98
3149.25,1410.09
3150.7,1421.97
3152.16,1407.23
3153.61,1459.21
3155.06,1447.84
3156.51,1481.13
3157.96,1511.17
3159.42,1474.1
3160.87,1460.65
3162.32,1448.87
3163.77,1484.72
3165.22,1490.98
3166.67,1485.12
3168.13,1501.24
3169.58,1507.03
3171.03,1535.07
3172.48,1572.57
3173.93,1585.28
3175.38,1573.74
3176.84,1583.99
3178.29,1622.58
3179.74,1672.89
3181.19,1657.2
3182.64,1647.5
3184.1,1673.59
3185.55,1688.89
3187,1693.69
3188.45,1711.92
3189.9,1771.01
3191.35,1714.07
3192.81,1780.9
3194.26,1766.6
3195.71,1771.57
3197.16,1804.39
3198.61,1792.75
3200.06,1777.92
3201.52,1816.03
3202.97,1756.7
3204.42,1715.05
3205.87,1721.6
3207.32,1739.99
3208.78,1709.96
3210.23,1681.67
3211.68,1633.85
3213.13,1638.89
3214.58,1600.44
3216.03,1570.16
3217.49,1509.18
3218.94,1493.89
3220.39,1463.84
3221.84,1402.4
3223.29,1367.42
3224.75,1319.52
3226.2,1312.08
3227.65,1263.78
3229.1,1223.98
3230.55,1184.51
3232,1169.72
3233.46,1190.89
3234.91,1111.09
3236.36,1103.12
3237.81,1077.91
3239.26,1061.43
3240.72,1018.12
3242.17,1016.46
3243.62,997.281
3245.07,977.142
3246.52,929.317
3247.97,890.559
3249.43,896.181
3250.88,886.391
3252.33,876.215
3253.78,866.462
3255.23,855.912
3256.68,875.793
3258.14,854.438
3259.59,832.126
3261.04,834.13
3262.49,819.812
3263.94,802.698
3265.4,784.902
3266.85,832.489
3268.3,804.338
3269.75,793.995
3271.2,796.822
3272.65,781.413
3274.11,792.642
3275.56,769.355
3277.01,773.65
3278.46,761.971
3279.91,760.124
3281.37,769.825
3282.82,756.164
3284.27,737.467
3285.72,763.087
3287.17,762.42
3288.62,733.439
3290.08,745.538
3291.53,753.37
3292.98,745.687
3294.43,738.805
3295.88,746.917
3297.33,743.578
3298.79,721.439
3300.24,723.547
3301.69,714.332
3303.14,725.886
3304.59,741.913
3306.05,745.096
3307.5,737.38
3308.95,733.142
3310.4,718.085
3311.85,719.049
3313.3,738.741
3314.76,712.087
3316.21,738.644
3317.66,719.308
3319.11,713.79
3320.56,733.363
3322.02,742.61
3323.47,704.601
3324.92,730.613
3326.37,725.163
3327.82,714.322
3329.27,716.147
3330.73,701.143
3332.18,708.708
3333.63,692.914
3335.08,708.085
3336.53,713.381
3337.98,718.193
3339.44,749.224
3340.89,728.536
3342.34,734.376
3343.79,751.364
3345.24,717.916
3346.7,714.658
3348.15,724.508
3349.6,688.383
3351.05,713.923
3352.5,713.925
3353.95,697.269
3355.41,732.565
3356.86,750.472
3358.31,726.383
3359.76,735.686
3361.21,711.047
3362.67,713.704
3364.12,714.973
3365.57,709.914
3367.02,708.934
3368.47,709.733
3369.92,727.439
3371.38,712.311
3372.83,717.131
3374.28,709.831
3375.73,688.162
3377.18,728.905
3378.63,719.45
3380.09,720.304
3381.54,693.222
3382.99,717.504
3384.44,716.512
3385.89,723.104
3387.35,720.809
3388.8,719.157
3390.25,727.598
3391.7,717.342
3393.15,724.122
3394.6,708.806
3396.06,715.966
3397.51,719.98
3398.96,728.408
3400.41,707.971
3401.86,720.721
3403.32,721.118
3404.77,710.192
3406.22,736.102
3407.67,743.584
3409.12,710.669
3410.57,710.66
3412.03,710.322
3413.48,702.41
3414.93,710.739
3416.38,711.422
3417.83,712.334
3419.28,706.247
3420.74,715.523
3422.19,714.998
3423.64,724.603
3425.09,707.275
3426.54,709.065
3428,697.343
3429.45,720.23
3430.9,738.735
3432.35,726.838
3433.8,713.193
3435.25,707.387
3436.71,708.775
3438.16,725.91
3439.61,713.763
3441.06,702.778
3442.51,723.254
3443.97,699.427
3445.42,693.651
3446.87,712.547
3448.32,703.261
3449.77,727.282
3451.22,716.555
3452.68,723.856
3454.13,714.151
3455.58,717.898
3457.03,735.603
3458.48,707.403
3459.94,707.056
3461.39,737.823
3462.84,727.815
3464.29,710.001
3465.74,705.642
3467.19,723.07
3468.65,700.196
3470.1,722.474
3471.55,725.095
3473,716.959
3474.45,722.172
3475.9,737.806
3477.36,729.261
3478.81,718.522
3480.26,723.658
3481.71,725.655
3483.16,745.559
3484.62,697.476
3486.07,712.524
3487.52,741.393
3488.97,737.147
3490.42,715.445
3491.87,725.403
3493.33,727.176
3494.78,733.875
3496.23,728.814
3497.68,740.679
3499.13,723.732
3500.58,725.632
3502.04,708.675
3503.49,713.057
3504.94,730.501
3506.39,739.188
3507.84,716.656
3509.3,713.326
3510.75,722.415
3512.2,726.513
3513.65,724.466
3515.1,741.767
3516.55,744.294
3518.01,750.747
3519.46,736.183
3520.91,772.786
3522.36,728.831
3523.81,740.025
3525.27,738.522
3526.72,725.523
3528.17,727.832
3529.62,733.526
3531.07,712.765
3532.52,725.886
3533.98,718.052
3535.43,727.343
3536.88,732.004
3538.33,737.61
3539.78,738.26
3541.24,716.735
3542.69,755.94
3544.14,741.616
3545.59,742.729
3547.04,750.686
3548.49,720.168
3549.95,746.017
3551.4,737.449
3552.85,726.442
3554.3,744.498
3555.75,728.856
3557.2,706.321
3558.66,726.178
3560.11,721.813
3561.56,727.851
3563.01,741.305
3564.46,722.928
3565.92,749.972
3567.37,744.477
3568.82,724.033
3570.27,772.849
3571.72,753.397
3573.17,711.493
3574.63,719.26
3576.08,729.621
3577.53,722.748
3578.98,755.381
3580.43,739.254
3581.89,729.986
3583.34,726.756
3584.79,741.211
3586.24,738.706
3587.69,727.062
3589.14,751.244
3590.6,724.554
3592.05,713.712
3593.5,730.505
3594.95,729.467
3596.4,739.813
3597.85,745.528
3599.31,732.356
3600.76,746.907
3602.21,727.333
3603.66,735.382
3605.11,752.628
3606.57,704.235
3608.02,701.717
3609.47,733.24
3610.92,751.576
3612.37,761.112
3613.82,728.41
3615.28,742.776
3616.73,744.822
3618.18,721.477
3619.63,743.572
3621.08,733.114
3622.54,734.674
3623.99,754.208
3625.44,726.576
3626.89,778.229
3628.34,714.579
3629.79,730.389
3631.25,724.97
3632.7,748.142
3634.15,759.801
3635.6,765.12
3637.05,749.079
3638.5,744.846
3639.96,779.45
3641.41,766.648
3642.86,746.284
3644.31,738.359
3645.76,744.242
3647.22,729.981
3648.67,773.146
3650.12,761.935
3651.57,760.829
3653.02,743.964
3654.47,743.407
3655.93,749.47
3657.38,742.753
3658.83,735.988
3660.28,769.887
3661.73,779.443
3663.19,758.595
3664.64,774.357
3666.09,775.607
3667.54,756.119
3668.99,782.907
3670.44,771.94
3671.9,782.979
3673.35,784.601
3674.8,782.74
3676.25,778.827
3677.7,765.493
3679.16,777.496
3680.61,765.996
3682.06,783.582
3683.51,790.065
3684.96,763.937
3686.41,774.038
3687.87,766.52
3689.32,758.907
3690.77,777.871
3692.22,776.416
3693.67,791.312
3695.12,773.894
3696.58,768.985
3698.03,782.073
3699.48,773.977
3700.93,786.904
3702.38,792.83
3703.84,786.343
3705.29,785.89
3706.74,786.742
3708.19,778.837
3709.64,752.857
3711.09,764.676
3712.55,774.182
3714,790.435
3715.45,775.095
3716.9,782.962
3718.35,783.47
3719.8,791.35
3721.26,762.701
3722.71,779.86
3724.16,791.64
3725.61,805.17
3727.06,796.361
3728.52,793.84
3729.97,800.265
3731.42,798.233
3732.87,789.848
3734.32,758.911
3735.77,812.438
3737.23,803.739
3738.68,812.638
3740.13,804.443
3741.58,778.818
3743.03,780.97
3744.49,790.761
3745.94,809.999
3747.39,797.758
3748.84,796.239
3750.29,833.169
3751.74,807.869
3753.2,806.032
3754.65,813.395
3756.1,797.651
3757.55,812.941
3759,828.606
3760.46,767.87
3761.91,806.849
3763.36,799.268
3764.81,815.258
3766.26,817.841
3767.71,825.72
3769.17,835.392
3770.62,809.137
3772.07,832.786
3773.52,794.587
3774.97,821.151
3776.42,811.244
3777.88,788.401
3779.33,804.75
3780.78,842.493
3782.23,829.683
3783.68,833.442
3785.14,803.738
3786.59,829.965
3788.04,823.673
3789.49,818.711
3790.94,843.351
3792.39,843.382
3793.85,844.382
3795.3,839.889
3796.75,817.497
3798.2,830.95
3799.65,831.983
3801.1,840.835
3802.56,844.966
3804.01,821.73
3805.46,841.956
3806.91,804.201
3808.36,834.806
3809.82,862.152
3811.27,876.904
3812.72,862.785
3814.17,856.23
3815.62,844.099
3817.07,838.95
3818.53,852.11
3819.98,845.042
3821.43,845.46
3822.88,850.454
3824.33,845.569
3825.79,864.193
3827.24,863.659
3828.69,850.33
3830.14,851.73
3831.59,845.132
3833.04,876.279
3834.5,867.408
3835.95,836.527
3837.4,873.969
3838.85,849.503
3840.3,835.504
3841.76,873.736
3843.21,868.817
3844.66,859.54
3846.11,845.534
3847.56,844.043
3849.01,855.584
3850.47,874.721
3851.92,870.153
3853.37,889.215
3854.82,867.747
3856.27,863.459
3857.72,874.977
3859.18,882.885
3860.63,891.614
3862.08,863.019
3863.53,870.273
3864.98,864.07
3866.44,891.15
3867.89,891.203
3869.34,896.67
3870.79,884.685
3872.24,893.443
3873.69,896.475
3875.15,895.401
3876.6,911.758
3878.05,888.292
3879.5,879.408
3880.95,909.876
3882.41,898.591
3883.86,911.133
3885.31,926.592
3886.76,950.436
3888.21,905.166
3889.66,919.135
3891.12,920.381
3892.57,933.835
3894.02,938.071
3895.47,924.597
3896.92,907.352
3898.37,916.516
3899.83,923.676
3901.28,953.201
3902.73,944.358
3904.18,964.578
3905.63,978.78
3907.09,947.841
3908.54,941.122
3909.99,948.309
3911.44,973.918
3912.89,944.34
3914.34,947.572
3915.8,941.816
3917.25,936.409
3918.7,966.181
3920.15,977.08
3921.6,982.149
3923.06,971.004
3924.51,979.654
3925.96,962.692
3927.41,943.547
3928.86,974.695
3930.31,977.519
3931.77,983.692
3933.22,977.266
3934.67,981.635
3936.12,996.199
3937.57,977.991
3939.02,1006.16
3940.48,996.874
3941.93,967.368
3943.38,985.528
3944.83,1013.38
3946.28,1010.08
3947.74,1035.38
3949.19,1006.15
3950.64,1037.3
3952.09,1029.09
3953.54,1051.7
3954.99,1018.58
3956.45,999.896
3957.9,1019.84
3959.35,1071.4
3960.8,1065.16
3962.25,1053.34
3963.71,1078.79
3965.16,1046.86
3966.61,1077.1
3968.06,1060.28
3969.51,1064.59
3970.96,1073.8
3972.42,1081.45
3973.87,1060.14
3975.32,1083.73
3976.77,1076.45
3978.22,1081.44
3979.68,1102.58
3981.13,1100.47
3982.58,1089.05
3984.03,1105.79
3985.48,1087.63
3986.93,1103.3
3988.39,1086.67
3989.84,1073.59
3991.29,1143.04
3992.74,1123.85
3994.19,1081.26
3995.64,1113.23
3997.1,1127.22
3998.55,1130.59
4000,1111.31
