-20,88.4216
-18.5482,87.6646
-17.0964,85.1769
-15.6446,90.2771
-14.1928,95.2386
-12.7411,101.975
-11.2893,107.982
-9.83749,113.696
-8.3857,118.886
-6.93391,154.362
-5.48212,719.834
-4.03034,6539.14
-2.57855,23388
-1.12676,41749.7
0.325027,55889.9
1.77681,53145.9
3.2286,34080.2
4.68039,9857.1
6.13218,1680.83
7.58397,304.015
9.03575,189.69
10.4875,176.47
11.9393,175.486
13.3911,174.75
14.8429,172.409
16.2947,169.647
17.7465,165.373
19.1983,157.561
20.6501,150.848
22.1018,143.264
23.5536,137.705
25.0054,133.76
26.4572,125.403
27.909,115.494
29.3608,107.323
30.8126,95.1025
32.2644,92.9369
33.7161,91.4819
35.1679,90.1581
36.6197,90.1587
38.0715,86.5932
39.5233,86.5123
40.9751,90.0089
42.4269,94.0384
43.8787,94.4747
45.3304,103.338
46.7822,121.766
48.234,150.328
49.6858,208.5
51.1376,323.736
52.5894,548.111
54.0412,856.729
55.493,1237.56
56.9447,1648.82
58.3965,2116.84
59.8483,2494.55
61.3001,2833.18
62.7519,3093.01
64.2037,3276.99
65.6555,3342.48
67.1073,3445.86
68.559,3521.71
70.0108,3559.62
71.4626,3586.54
72.9144,3602.8
74.3662,3631.27
75.818,3695.91
77.2698,3738.91
78.7216,3819.37
80.1733,3946.92
81.6251,4019.53
83.0769,4107.48
84.5287,4163.39
85.9805,4139.8
87.4323,4040.03
88.8841,3901.79
90.3359,3735.65
91.7877,3544.39
93.2394,3349.27
94.6912,3184.1
96.143,3012.73
97.5948,2867.86
99.0466,2786.89
100.498,2751.61
101.95,2676.42
103.402,2602.53
104.854,2569.8
106.306,2552.24
107.757,2512.63
109.209,2462.22
110.661,2403.84
112.113,2373.75
113.564,2371.77
115.016,2332
116.468,2276.5
117.92,2245.13
119.372,2226.64
120.823,2164.9
122.275,2183.55
123.727,2139.92
125.179,2074.91
126.631,2043.46
128.082,2041.13
129.534,1988.37
130.986,1954.33
132.438,1933.13
133.889,1900.7
135.341,1865.57
136.793,1822.83
138.245,1796.9
139.697,1796.96
141.148,1801.59
142.6,1782.32
144.052,1783.32
145.504,1777.72
146.956,1762.79
148.407,1728.47
149.859,1692.21
151.311,1663.12
152.763,1668.16
154.215,1669.07
155.666,1653.81
157.118,1582.36
158.57,1550.44
160.022,1547.01
161.473,1545.25
162.925,1518.39
164.377,1528.2
165.829,1533.48
167.281,1517.78
168.732,1491.44
170.184,1509.3
171.636,1477.27
173.088,1439.56
174.54,1428.21
175.991,1432.78
177.443,1364.44
178.895,1375.25
180.347,1375.24
181.798,1361.15
183.25,1326.49
184.702,1348.75
186.154,1340.76
187.606,1329.06
189.057,1307.45
190.509,1286.36
191.961,1267.07
193.413,1279.29
194.865,1304.19
196.316,1305.75
197.768,1284.26
199.22,1278.46
200.672,1280.04
202.124,1290.23
203.575,1276.77
205.027,1239.23
206.479,1235.37
207.931,1246.1
209.382,1242.08
210.834,1244.58
212.286,1271.56
213.738,1258.06
215.19,1243.44
216.641,1258.26
218.093,1280.12
219.545,1292.22
220.997,1292.32
222.449,1234.18
223.9,1249.08
225.352,1265.29
226.804,1260.29
228.256,1223.57
229.707,1229.13
231.159,1247.03
232.611,1247.68
234.063,1256.34
235.515,1253.66
236.966,1263.66
238.418,1260.32
239.87,1254.35
241.322,1249.31
242.774,1237.77
244.225,1234.32
245.677,1235.21
247.129,1240.83
248.581,1227.04
250.033,1199.56
251.484,1214.99
252.936,1185.12
254.388,1168.33
255.84,1180.94
257.291,1200.86
258.743,1179.57
260.195,1174.72
261.647,1171.66
263.099,1176.43
264.55,1176.74
266.002,1155.7
267.454,1164.94
268.906,1175.18
270.358,1178.58
271.809,1162.6
273.261,1135.93
274.713,1146.64
276.165,1146.78
277.616,1139.13
279.068,1127.75
280.52,1125.3
281.972,1116.22
283.424,1086.76
284.875,1070.24
286.327,1077.75
287.779,1083.82
289.231,1083.71
290.683,1089.9
292.134,1083.52
293.586,1058.02
295.038,1029.23
296.49,1052.15
297.941,1050.7
299.393,1043.39
300.845,1038.87
302.297,1033.13
303.749,1029.63
305.2,1012.2
306.652,1012.39
308.104,1007.08
309.556,984.588
311.008,999.217
312.459,1019.76
313.911,995.548
315.363,986.473
316.815,997.127
318.267,958.221
319.718,986.904
321.17,981.983
322.622,984.917
324.074,989.532
325.525,975.926
326.977,989.075
328.429,990.116
329.881,954.157
331.333,929.176
332.784,954.864
334.236,945.345
335.688,923.22
337.14,949.631
338.592,959.554
340.043,940.409
341.495,933.28
342.947,948.903
344.399,943.643
345.85,931.458
347.302,931.062
348.754,941.524
350.206,932.872
351.658,922.947
353.109,923.234
354.561,929.437
356.013,927.964
357.465,897.653
358.917,902.224
360.368,905.782
361.82,905.21
363.272,909.05
364.724,919.677
366.176,903.213
367.627,890.637
369.079,892.731
370.531,907.544
371.983,912.596
373.434,888.893
374.886,893.101
376.338,898.385
377.79,899.078
379.242,893.047
380.693,899.906
382.145,868.046
383.597,882.871
385.049,901.739
386.501,914.768
387.952,918.364
389.404,905.63
390.856,891.63
392.308,892.7
393.759,898.209
395.211,899.767
396.663,881.697
398.115,908.041
399.567,897.854
401.018,883.727
402.47,877.734
403.922,892.8
405.374,892.289
406.826,895.708
408.277,894.142
409.729,891.307
411.181,893.688
412.633,909.443
414.085,896.707
415.536,881.314
416.988,885.902
418.44,897.402
419.892,893.487
421.343,922.202
422.795,890.238
424.247,877.969
425.699,880.251
427.151,883.622
428.602,876.799
430.054,863.659
431.506,892.876
432.958,897.648
434.41,888.685
435.861,894.436
437.313,866.571
438.765,865.618
440.217,900.028
441.668,915.468
443.12,897.872
444.572,856.705
446.024,887.267
447.476,872.617
448.927,868.227
450.379,869.409
451.831,871.183
453.283,878.611
454.735,852.812
456.186,861.55
457.638,873.946
459.09,883.305
460.542,886.163
461.993,883.681
463.445,883.062
464.897,867.886
466.349,869.695
467.801,876.233
469.252,854.02
470.704,856.967
472.156,870.149
473.608,883.494
475.06,879.685
476.511,855.708
477.963,849.545
479.415,868.263
480.867,878.836
482.319,872.919
483.77,854.482
485.222,841.103
486.674,866.971
488.126,881.559
489.577,866.207
491.029,857.987
492.481,856.163
493.933,834.164
495.385,837.27
496.836,837.339
498.288,850.95
499.74,850.607
501.192,837.516
502.644,831.249
504.095,839.406
505.547,847.699
506.999,854.485
508.451,852.616
509.902,839.534
511.354,855.432
512.806,836.381
514.258,839.886
515.71,845.856
517.161,849.601
518.613,838.524
520.065,812.09
521.517,845.29
522.969,845.001
524.42,829.309
525.872,815.511
527.324,827.597
528.776,829.338
530.228,841.847
531.679,857.723
533.131,844.828
534.583,828.552
536.035,834.946
537.486,863.267
538.938,854.567
540.39,834.147
541.842,831.15
543.294,838.785
544.745,846.623
546.197,845.63
547.649,839.73
549.101,829.968
550.553,845.97
552.004,857.629
553.456,837.92
554.908,840.837
556.36,825.855
557.811,827.487
559.263,831.802
560.715,843.512
562.167,847.332
563.619,874.487
565.07,850.793
566.522,846.905
567.974,851.443
569.426,839.885
570.878,824.031
572.329,839.673
573.781,821.777
575.233,836.542
576.685,847.872
578.137,847.241
579.588,828.154
581.04,817.75
582.492,833.565
583.944,825.64
585.395,827.589
586.847,834.175
588.299,832.041
589.751,827.345
591.203,825.816
592.654,818.246
594.106,828.8
595.558,843.332
597.01,836.481
598.462,821.653
599.913,835.825
601.365,813.661
602.817,811.343
604.269,831.539
605.72,829.562
607.172,848.156
608.624,853.367
610.076,855.455
611.528,840.543
612.979,824.984
614.431,828.268
615.883,815.047
617.335,823.819
618.787,834.351
620.238,852.093
621.69,847.079
623.142,818.537
624.594,841.689
626.046,838.398
627.497,848.578
628.949,841.937
630.401,846.721
631.853,853.817
633.304,826.811
634.756,818.73
636.208,839.517
637.66,844.202
639.112,847.144
640.563,853.53
642.015,849.13
643.467,839.127
644.919,844.52
646.371,859.637
647.822,865.555
649.274,863.166
650.726,862.012
652.178,874.434
653.629,842.412
655.081,845.217
656.533,861.023
657.985,869.612
659.437,867.659
660.888,878.923
662.34,863.103
663.792,851.686
665.244,860.471
666.696,860.904
668.147,859.878
669.599,888.554
671.051,893.694
672.503,866.073
673.954,864.585
675.406,863.344
676.858,855.165
678.31,872.643
679.762,895.431
681.213,878.002
682.665,860.236
684.117,857.928
685.569,873.327
687.021,900.701
688.472,900.747
689.924,884.578
691.376,877.015
692.828,884.322
694.28,894.253
695.731,883.175
697.183,881.692
698.635,862.681
700.087,864.183
701.538,868.517
702.99,870.675
704.442,866.13
705.894,874.352
707.346,897.714
708.797,905.029
710.249,884.208
711.701,888.871
713.153,889.298
714.605,872.811
716.056,876.969
717.508,878.701
718.96,899.192
720.412,886.086
721.863,876.795
723.315,881.429
724.767,887.757
726.219,888.217
727.671,889.646
729.122,866.067
730.574,863.822
732.026,871.761
733.478,892.314
734.93,905.645
736.381,896.514
737.833,872.07
739.285,881.073
740.737,883.509
742.189,886.839
743.64,895.552
745.092,890.326
746.544,888.198
747.996,900.417
749.447,886.355
750.899,898.892
752.351,900.581
753.803,877.789
755.255,890.552
756.706,878.701
758.158,877.482
759.61,903.057
761.062,911.548
762.514,914.177
763.965,905.517
765.417,888.692
766.869,890.173
768.321,902.356
769.772,898.646
771.224,904.187
772.676,909.59
774.128,887.604
775.58,893.498
777.031,879.827
778.483,896.112
779.935,882.311
781.387,877.702
782.839,890.795
784.29,898.833
785.742,907.328
787.194,926.364
788.646,912.555
790.098,918.469
791.549,921.394
793.001,914.638
794.453,925.556
795.905,913.995
797.356,892.057
798.808,894.452
800.26,886.481
801.712,896.968
803.164,921.175
804.615,922.969
806.067,932.467
807.519,908.414
808.971,916.002
810.423,915.025
811.874,915.668
813.326,907.698
814.778,922.817
816.23,925.303
817.681,925.584
819.133,911.745
820.585,928.534
822.037,930.615
823.489,919.779
824.94,914.173
826.392,933.205
827.844,943.103
829.296,949.314
830.748,952.561
832.199,955.334
833.651,940.986
835.103,944.047
836.555,946.814
838.007,945.93
839.458,939.582
840.91,947.536
842.362,954.458
843.814,960.309
845.265,939.804
846.717,935.987
848.169,966.64
849.621,991.651
851.073,995.613
852.524,985.542
853.976,982.611
855.428,974.985
856.88,979.499
858.332,975.205
859.783,985.339
861.235,987.862
862.687,978.103
864.139,969.425
865.59,964.497
867.042,969.026
868.494,958.16
869.946,957.172
871.398,976.295
872.849,966.781
874.301,938.962
875.753,948.643
877.205,954.618
878.657,968.982
880.108,962.093
881.56,964.402
883.012,965.566
884.464,970.725
885.915,973.107
887.367,976.257
888.819,969.903
890.271,996.084
891.723,984.54
893.174,1005.1
894.626,999.123
896.078,983.373
897.53,991.803
898.982,993.588
900.433,987.413
901.885,1005.91
903.337,975.898
904.789,985.802
906.241,1009.41
907.692,1012.64
909.144,993.551
910.596,988.922
912.048,1009.54
913.499,1010.05
914.951,1013.06
916.403,1013.16
917.855,1011.43
919.307,1021.55
920.758,1025.11
922.21,1021.67
923.662,1030.98
925.114,1034.77
926.566,1033.88
928.017,1022.42
929.469,1015.16
930.921,1029.04
932.373,1029.26
933.824,1028.02
935.276,1027.07
936.728,1059.86
938.18,1049.64
939.632,1033.76
941.083,1044.74
942.535,1005.55
943.987,1039.2
945.439,1045.92
946.891,1028.3
948.342,1027.48
949.794,1027.26
951.246,1029.94
952.698,1036.17
954.15,1028.75
955.601,1036.78
957.053,1041.4
958.505,1032.85
959.957,1047.88
961.408,1041.2
962.86,1016.98
964.312,1021.57
965.764,1060.05
967.216,1030.58
968.667,1035.55
970.119,1045.19
971.571,1043.85
973.023,1029.88
974.475,1028.7
975.926,1052.02
977.378,1051.19
978.83,1035.37
980.282,1042.17
981.733,1038.05
983.185,1051.55
984.637,1064.62
986.089,1051.84
987.541,1054.07
988.992,1046.33
990.444,1052.05
991.896,1062.3
993.348,1044.04
994.8,1052.09
996.251,1082.68
997.703,1082.09
999.155,1063.68
1000.61,1088.21
1002.06,1086.36
1003.51,1090.34
1004.96,1082.45
1006.41,1088.09
1007.87,1086.26
1009.32,1110.15
1010.77,1115.18
1012.22,1093.65
1013.67,1128.6
1015.12,1098.96
1016.58,1115.34
1018.03,1123.64
1019.48,1128.36
1020.93,1131.42
1022.38,1119.34
1023.84,1132.05
1025.29,1161.69
1026.74,1178.4
1028.19,1173.41
1029.64,1176.68
1031.09,1200.13
1032.55,1207.84
1034,1190.7
1035.45,1203.66
1036.9,1220.36
1038.35,1214.08
1039.8,1214.84
1041.26,1224.15
1042.71,1234.14
1044.16,1264.34
1045.61,1269.99
1047.06,1244.93
1048.52,1254.15
1049.97,1290.62
1051.42,1270.3
1052.87,1287.89
1054.32,1309.58
1055.77,1285.26
1057.23,1286.82
1058.68,1335.26
1060.13,1320.79
1061.58,1359.6
1063.03,1352
1064.49,1359.77
1065.94,1384.85
1067.39,1401.69
1068.84,1391.97
1070.29,1404.85
1071.74,1423.69
1073.2,1417.91
1074.65,1451
1076.1,1443.69
1077.55,1486.06
1079,1480.57
1080.46,1471.95
1081.91,1485.42
1083.36,1500.6
1084.81,1471.79
1086.26,1511.89
1087.71,1505.63
1089.17,1476.99
1090.62,1485.66
1092.07,1494.52
1093.52,1461.1
1094.97,1442.24
1096.42,1503.68
1097.88,1509.07
1099.33,1459.26
1100.78,1465.39
1102.23,1466.54
1103.68,1460.84
1105.14,1466.48
1106.59,1456.03
1108.04,1435.71
1109.49,1424.73
1110.94,1456.93
1112.39,1446.46
1113.85,1438.44
1115.3,1412.31
1116.75,1402.61
1118.2,1398.51
1119.65,1394.86
1121.11,1406.48
1122.56,1387.81
1124.01,1396.36
1125.46,1350.15
1126.91,1374.47
1128.36,1349.62
1129.82,1344.9
1131.27,1357.75
1132.72,1369.07
1134.17,1368.16
1135.62,1352.95
1137.07,1348.95
1138.53,1341.83
1139.98,1345
1141.43,1342.19
1142.88,1324.06
1144.33,1338.82
1145.79,1354.12
1147.24,1327.42
1148.69,1304.32
1150.14,1339.4
1151.59,1343.84
1153.04,1352.21
1154.5,1340.56
1155.95,1338.97
1157.4,1339.64
1158.85,1331.55
1160.3,1338.21
1161.76,1352.89
1163.21,1333.45
1164.66,1341.39
1166.11,1345.14
1167.56,1329.62
1169.01,1325.9
1170.47,1341.17
1171.92,1356.88
1173.37,1347.01
1174.82,1350.85
1176.27,1341.05
1177.72,1356.36
1179.18,1367.81
1180.63,1386.89
1182.08,1378.07
1183.53,1358.76
1184.98,1357.5
1186.44,1358.44
1187.89,1362.72
1189.34,1378.26
1190.79,1361.91
1192.24,1388.85
1193.69,1361.56
1195.15,1377.38
1196.6,1385.81
1198.05,1396.06
1199.5,1397.85
1200.95,1404.49
1202.41,1418.3
1203.86,1402.46
1205.31,1419.06
1206.76,1433.65
1208.21,1428.43
1209.66,1413.45
1211.12,1405.93
1212.57,1415.44
1214.02,1423.94
1215.47,1423.73
1216.92,1412.7
1218.37,1446.96
1219.83,1449.61
1221.28,1441.75
1222.73,1460.34
1224.18,1448.89
1225.63,1424.83
1227.09,1419.12
1228.54,1454.72
1229.99,1475.72
1231.44,1439.99
1232.89,1432.02
1234.34,1481.38
1235.8,1473.64
1237.25,1468.48
1238.7,1487.13
1240.15,1496.92
1241.6,1488.77
1243.06,1491.08
1244.51,1516.43
1245.96,1514.01
1247.41,1540.43
1248.86,1561.26
1250.31,1548.41
1251.77,1527.97
1253.22,1546.98
1254.67,1563.02
1256.12,1579.84
1257.57,1614.34
1259.02,1627.2
1260.48,1629.95
1261.93,1653.52
1263.38,1624.95
1264.83,1681.13
1266.28,1677.68
1267.74,1671.74
1269.19,1699.1
1270.64,1731.86
1272.09,1751.03
1273.54,1773.94
1274.99,1787.56
1276.45,1807.86
1277.9,1828.59
1279.35,1884.89
1280.8,1844.95
1282.25,1894.45
1283.71,1938.29
1285.16,1972.67
1286.61,2000.33
1288.06,2028.49
1289.51,2086.4
1290.96,2157.69
1292.42,2149.35
1293.87,2224.77
1295.32,2281.56
1296.77,2323.93
1298.22,2408.93
1299.67,2497.66
1301.13,2575.86
1302.58,2634.55
1304.03,2690.97
1305.48,2783.07
1306.93,2901.77
1308.39,2987.75
1309.84,3145.98
1311.29,3263.14
1312.74,3379.9
1314.19,3545.91
1315.64,3710.51
1317.1,3850.27
1318.55,4012.93
1320,4192.92
1321.45,4338.5
1322.9,4511.56
1324.36,4698.41
1325.81,4888.35
1327.26,5093.06
1328.71,5180.52
1330.16,5273.88
1331.61,5422.81
1333.07,5530.81
1334.52,5592.54
1335.97,5688.88
1337.42,5658.28
1338.87,5625.48
1340.33,5537.91
1341.78,5490.29
1343.23,5336.76
1344.68,5166.74
1346.13,5039.46
1347.58,4894.31
1349.04,4718.56
1350.49,4524.54
1351.94,4306.1
1353.39,4155.76
1354.84,4008.39
1356.29,3762.65
1357.75,3636.65
1359.2,3487.32
1360.65,3363.83
1362.1,3214.49
1363.55,3073.48
1365.01,2996.04
1366.46,2889.98
1367.91,2750.66
1369.36,2691.85
1370.81,2599.82
1372.26,2514.1
1373.72,2503.12
1375.17,2440.97
1376.62,2401.25
1378.07,2334.41
1379.52,2275.06
1380.98,2235.67
1382.43,2193.73
1383.88,2179.78
1385.33,2146.42
1386.78,2104.59
1388.23,2104.53
1389.69,2063.57
1391.14,2032.6
1392.59,2035.86
1394.04,2033.27
1395.49,1991.1
1396.94,1963.08
1398.4,1951.7
1399.85,1947.28
1401.3,1944.37
1402.75,1935.54
1404.2,1941.89
1405.66,1944.22
1407.11,1914.13
1408.56,1927.76
1410.01,1908.41
1411.46,1928.65
1412.91,1943.01
1414.37,1908.01
1415.82,1915.06
1417.27,1924.6
1418.72,1936.41
1420.17,1935.73
1421.63,1936.4
1423.08,1944.99
1424.53,1943.52
1425.98,1932.47
1427.43,1984.6
1428.88,1936.5
1430.34,1969.27
1431.79,1967.08
1433.24,1979.78
1434.69,1973.84
1436.14,1994.26
1437.59,2027.31
1439.05,2022.24
1440.5,2041.84
1441.95,2027.39
1443.4,2028.84
1444.85,2027.48
1446.31,2048.27
1447.76,2046.7
1449.21,2053.76
1450.66,2084.06
1452.11,2119.32
1453.56,2139.86
1455.02,2152.17
1456.47,2143.73
1457.92,2141.71
1459.37,2189.26
1460.82,2224.98
1462.28,2238.95
1463.73,2228.65
1465.18,2294.39
1466.63,2261.28
1468.08,2311.76
1469.53,2337.23
1470.99,2339.75
1472.44,2357.97
1473.89,2386.32
1475.34,2433.67
1476.79,2505.32
1478.24,2519.74
1479.7,2527.59
1481.15,2590.33
1482.6,2624.5
1484.05,2667.36
1485.5,2731.56
1486.96,2759.87
1488.41,2803.53
1489.86,2847.9
1491.31,2900.33
1492.76,2934.88
1494.21,2955.61
1495.67,3061.16
1497.12,3193.06
1498.57,3228.02
1500.02,3263.38
1501.47,3351.19
1502.93,3461.14
1504.38,3461.42
1505.83,3623.69
1507.28,3682.95
1508.73,3829.61
1510.18,3964.35
1511.64,4092.73
1513.09,4244.52
1514.54,4363.21
1515.99,4553.74
1517.44,4792.41
1518.89,4992.31
1520.35,5155.76
1521.8,5351.71
1523.25,5635.92
1524.7,5934.81
1526.15,6391.82
1527.61,6705.69
1529.06,7195.55
1530.51,7657.7
1531.96,8214.25
1533.41,8854.94
1534.86,9514.62
1536.32,10273.9
1537.77,11185.6
1539.22,12172.1
1540.67,13240.7
1542.12,14335.4
1543.58,15772.3
1545.03,17228.4
1546.48,18866.9
1547.93,20448.2
1549.38,22128.1
1550.83,23863.5
1552.29,25766.2
1553.74,27601.3
1555.19,29395.5
1556.64,31285.8
1558.09,33035.6
1559.54,34622.6
1561,36036.7
1562.45,37180.2
1563.9,37892.5
1565.35,38387.5
1566.8,38481.9
1568.26,38221
1569.71,37233.7
1571.16,36023.8
1572.61,34566.7
1574.06,32814.2
1575.51,30941.6
1576.97,28949.2
1578.42,26949.8
1579.87,25040.6
1581.32,23139.7
1582.77,21347.1
1584.23,19685.9
1585.68,18073.4
1587.13,16730.9
1588.58,15325.3
1590.03,14072.6
1591.48,12972.2
1592.94,11907.9
1594.39,11144.8
1595.84,10466.4
1597.29,9747.85
1598.74,9260.48
1600.2,8776.25
1601.65,8294.38
1603.1,7845.89
1604.55,7467.88
1606,7094.23
1607.45,6736.82
1608.91,6439.53
1610.36,6160.53
1611.81,5877.2
1613.26,5527.66
1614.71,5264.5
1616.16,5020.87
1617.62,4772.25
1619.07,4570.34
1620.52,4320.8
1621.97,4190.98
1623.42,4027.3
1624.88,3847
1626.33,3731.41
1627.78,3586.73
1629.23,3463.78
1630.68,3349.7
1632.13,3208.75
1633.59,3144.22
1635.04,3112.74
1636.49,3052
1637.94,2944.22
1639.39,2838.51
1640.85,2807.01
1642.3,2745.35
1643.75,2691.81
1645.2,2633.26
1646.65,2621.52
1648.1,2591.98
1649.56,2554.77
1651.01,2478.32
1652.46,2442.89
1653.91,2404.25
1655.36,2369.87
1656.81,2364.85
1658.27,2299.42
1659.72,2241.94
1661.17,2231.61
1662.62,2207.35
1664.07,2166.92
1665.53,2158.73
1666.98,2158.51
1668.43,2103.95
1669.88,2045.87
1671.33,2034.76
1672.78,2028.52
1674.24,1973.46
1675.69,1935.9
1677.14,1952.97
1678.59,1954.65
1680.04,1922.84
1681.5,1893.17
1682.95,1890.92
1684.4,1896.61
1685.85,1881.73
1687.3,1863.11
1688.75,1840.58
1690.21,1817.84
1691.66,1804.06
1693.11,1758.12
1694.56,1780.35
1696.01,1786.82
1697.46,1758.51
1698.92,1747.68
1700.37,1726.92
1701.82,1717.96
1703.27,1714.95
1704.72,1728.51
1706.18,1729.08
1707.63,1717.82
1709.08,1697.55
1710.53,1706.46
1711.98,1698.75
1713.43,1661.59
1714.89,1673.02
1716.34,1671.94
1717.79,1673.71
1719.24,1653.54
1720.69,1670.74
1722.15,1707.5
1723.6,1671.04
1725.05,1691.25
1726.5,1669.52
1727.95,1642.95
1729.4,1659.95
1730.86,1659.65
1732.31,1681.58
1733.76,1696.46
1735.21,1640.99
1736.66,1625.69
1738.11,1644.52
1739.57,1634.75
1741.02,1610.9
1742.47,1619.18
1743.92,1626.17
1745.37,1598.61
1746.83,1583.56
1748.28,1586.69
1749.73,1599.97
1751.18,1608.1
1752.63,1589.6
1754.08,1559.93
1755.54,1591.73
1756.99,1595.67
1758.44,1571.68
1759.89,1529.08
1761.34,1554.32
1762.8,1540.27
1764.25,1530.14
1765.7,1520.2
1767.15,1534.25
1768.6,1540.44
1770.05,1536.32
1771.51,1520.09
1772.96,1480.66
1774.41,1477.56
1775.86,1488.6
1777.31,1492.16
1778.76,1470.61
1780.22,1450.18
1781.67,1474.82
1783.12,1489.65
1784.57,1477.57
1786.02,1439.11
1787.48,1442.99
1788.93,1470.98
1790.38,1443.57
1791.83,1426.52
1793.28,1461.47
1794.73,1499.28
1796.19,1432.17
1797.64,1406.28
1799.09,1430.86
1800.54,1421.53
1801.99,1420.38
1803.45,1434.68
1804.9,1436.22
1806.35,1433.96
1807.8,1439.74
1809.25,1428.89
1810.7,1411.91
1812.16,1403.52
1813.61,1403.31
1815.06,1404.73
1816.51,1396.09
1817.96,1411.02
1819.41,1419.79
1820.87,1406.96
1822.32,1392.03
1823.77,1410.15
1825.22,1417.8
1826.67,1442.51
1828.13,1397.36
1829.58,1431.33
1831.03,1418.57
1832.48,1407.56
1833.93,1401.44
1835.38,1381.17
1836.84,1448.64
1838.29,1434.64
1839.74,1462.99
1841.19,1470.82
1842.64,1462.34
1844.1,1473.2
1845.55,1466.07
1847,1471.82
1848.45,1466.69
1849.9,1455.86
1851.35,1476.88
1852.81,1508.44
1854.26,1510.6
1855.71,1502.81
1857.16,1523.6
1858.61,1528.64
1860.07,1500.85
1861.52,1488.18
1862.97,1485.8
1864.42,1502.03
1865.87,1509.01
1867.32,1548.26
1868.78,1523.43
1870.23,1486.97
1871.68,1472.56
1873.13,1494.78
1874.58,1459.07
1876.03,1451.79
1877.49,1496.67
1878.94,1469.01
1880.39,1435.09
1881.84,1441.82
1883.29,1456.65
1884.75,1452.73
1886.2,1450.36
1887.65,1418.63
1889.1,1401.11
1890.55,1414.61
1892,1419.09
1893.46,1394.19
1894.91,1398.35
1896.36,1403.77
1897.81,1382.74
1899.26,1375.54
1900.72,1367.16
1902.17,1365.16
1903.62,1359.49
1905.07,1368.45
1906.52,1344.13
1907.97,1341.01
1909.43,1360.65
1910.88,1347.25
1912.33,1350.65
1913.78,1335.96
1915.23,1349.8
1916.68,1350.04
1918.14,1322.13
1919.59,1334
1921.04,1296.24
1922.49,1331.09
1923.94,1325.4
1925.4,1333.39
1926.85,1337.63
1928.3,1316.2
1929.75,1281.72
1931.2,1325.95
1932.65,1340.64
1934.11,1331.46
1935.56,1337.36
1937.01,1307.79
1938.46,1329.89
1939.91,1326.95
1941.37,1340.06
1942.82,1340.4
1944.27,1342.47
1945.72,1367.09
1947.17,1343.67
1948.62,1341.99
1950.08,1326.51
1951.53,1335.39
1952.98,1340.06
1954.43,1341.52
1955.88,1325.62
1957.33,1356.17
1958.79,1368.06
1960.24,1329.66
1961.69,1313.38
1963.14,1341.55
1964.59,1337.82
1966.05,1356.19
1967.5,1361.2
1968.95,1359.23
1970.4,1376.57
1971.85,1376.24
1973.3,1371.58
1974.76,1387.97
1976.21,1381.5
1977.66,1375.75
1979.11,1377.51
1980.56,1366.79
1982.02,1383.66
1983.47,1369.31
1984.92,1362.42
1986.37,1379.84
1987.82,1399.42
1989.27,1394.85
1990.73,1387.45
1992.18,1384.46
1993.63,1387.11
1995.08,1391.2
1996.53,1413.39
1997.98,1367.66
1999.44,1367.44
2000.89,1425.85
2002.34,1371.16
2003.79,1390.04
2005.24,1380.52
2006.7,1413.43
2008.15,1381.09
2009.6,1402.25
2011.05,1396.71
2012.5,1392.53
2013.95,1405.1
2015.41,1373.9
2016.86,1350.17
2018.31,1349.81
2019.76,1344.6
2021.21,1338.44
2022.67,1327.19
2024.12,1314.58
2025.57,1353.63
2027.02,1342.61
2028.47,1351.92
2029.92,1301.09
2031.38,1324.53
2032.83,1332.4
2034.28,1328.39
2035.73,1297.1
2037.18,1308.62
2038.63,1292.88
2040.09,1289.34
2041.54,1258.15
2042.99,1286.86
2044.44,1295.14
2045.89,1277.33
2047.35,1263.74
2048.8,1276.97
2050.25,1268.84
2051.7,1270.56
2053.15,1287.24
2054.6,1271.44
2056.06,1237.94
2057.51,1258.77
2058.96,1252.54
2060.41,1239.76
2061.86,1246.47
2063.32,1255.99
2064.77,1243.65
2066.22,1230.77
2067.67,1232.29
2069.12,1250.31
2070.57,1223.32
2072.03,1245.62
2073.48,1241.17
2074.93,1227.89
2076.38,1219.78
2077.83,1240.29
2079.28,1243.14
2080.74,1226.08
2082.19,1220.14
2083.64,1240.62
2085.09,1258.39
2086.54,1246.61
2088,1232.19
2089.45,1224.54
2090.9,1203.55
2092.35,1198.68
2093.8,1209.31
2095.25,1216.81
2096.71,1203.59
2098.16,1234.18
2099.61,1247.2
2101.06,1252.27
2102.51,1250.14
2103.97,1243.89
2105.42,1217.09
2106.87,1212.02
2108.32,1209.22
2109.77,1199
2111.22,1201.69
2112.68,1198.89
2114.13,1206.43
2115.58,1199.08
2117.03,1207.2
2118.48,1227.77
2119.94,1219.62
2121.39,1243.78
2122.84,1227.06
2124.29,1235.84
2125.74,1243.64
2127.19,1247.45
2128.65,1276.38
2130.1,1237.74
2131.55,1229.24
2133,1243.51
2134.45,1236.4
2135.9,1235.2
2137.36,1248.31
2138.81,1231.75
2140.26,1225.04
2141.71,1205.34
2143.16,1244.1
2144.62,1247.79
2146.07,1239.3
2147.52,1233.55
2148.97,1237.98
2150.42,1257.35
2151.87,1237.25
2153.33,1276.17
2154.78,1267.29
2156.23,1256.48
2157.68,1248.14
2159.13,1260.01
2160.58,1272.31
2162.04,1264.25
2163.49,1304.97
2164.94,1297.88
2166.39,1266.79
2167.84,1274.53
2169.3,1272.72
2170.75,1282.72
2172.2,1285.52
2173.65,1282.72
2175.1,1299.61
2176.55,1313.26
2178.01,1309.24
2179.46,1283.16
2180.91,1305.19
2182.36,1312.55
2183.81,1327.91
2185.27,1319.51
2186.72,1336.16
2188.17,1346.59
2189.62,1320.74
2191.07,1322.1
2192.52,1332.34
2193.98,1331.59
2195.43,1314.75
2196.88,1330.26
2198.33,1329.42
2199.78,1309.2
2201.24,1311.92
2202.69,1330.67
2204.14,1346.84
2205.59,1298.69
2207.04,1347.99
2208.49,1335.33
2209.95,1332.26
2211.4,1360.5
2212.85,1336.82
2214.3,1329.4
2215.75,1309.4
2217.2,1333.83
2218.66,1335.49
2220.11,1360.5
2221.56,1354.65
2223.01,1337.66
2224.46,1354.72
2225.92,1364.13
2227.37,1362.35
2228.82,1313.96
2230.27,1370.91
2231.72,1322.68
2233.17,1323.26
2234.63,1361.54
2236.08,1363.18
2237.53,1355.9
2238.98,1345.38
2240.43,1390.15
2241.89,1359.97
2243.34,1377.48
2244.79,1356.49
2246.24,1385.24
2247.69,1380.48
2249.14,1379.98
2250.6,1370.1
2252.05,1375.23
2253.5,1357.7
2254.95,1373.22
2256.4,1377.58
2257.85,1407.12
2259.31,1407.66
2260.76,1403.45
2262.21,1391.35
2263.66,1411.79
2265.11,1415.8
2266.57,1407.93
2268.02,1409.54
2269.47,1441.64
2270.92,1433.38
2272.37,1416.79
2273.82,1430.2
2275.28,1438.19
2276.73,1434.86
2278.18,1415.67
2279.63,1440.36
2281.08,1450.77
2282.54,1436.66
2283.99,1456.28
2285.44,1459.64
2286.89,1465.35
2288.34,1464.41
2289.79,1438.19
2291.25,1472.1
2292.7,1482.55
2294.15,1468.73
2295.6,1482.08
2297.05,1512.73
2298.5,1511.6
2299.96,1452.08
2301.41,1472.85
2302.86,1496.38
2304.31,1513.27
2305.76,1520.6
2307.22,1491.44
2308.67,1516.25
2310.12,1501.87
2311.57,1534.94
2313.02,1539.18
2314.47,1543.88
2315.93,1543.18
2317.38,1543.02
2318.83,1533.46
2320.28,1542.9
2321.73,1534.86
2323.19,1556.71
2324.64,1559.62
2326.09,1558.07
2327.54,1570.74
2328.99,1585.89
2330.44,1586.88
2331.9,1594.34
2333.35,1630.33
2334.8,1615.87
2336.25,1630.56
2337.7,1618.28
2339.16,1628.3
2340.61,1653.57
2342.06,1661.26
2343.51,1647.08
2344.96,1682.9
2346.41,1657.27
2347.87,1644.94
2349.32,1674.31
2350.77,1700.89
2352.22,1740.66
2353.67,1702
2355.12,1706.39
2356.58,1711.71
2358.03,1757.93
2359.48,1747.57
2360.93,1791.52
2362.38,1756.24
2363.84,1772.86
2365.29,1799.66
2366.74,1832.33
2368.19,1801.9
2369.64,1851.59
2371.09,1845.51
2372.55,1871.53
2374,1887.04
2375.45,1901.67
2376.9,1938.53
2378.35,1954.39
2379.8,1954.9
2381.26,1986.02
2382.71,1981.78
2384.16,2008.76
2385.61,2066.98
2387.06,2121.05
2388.52,2125.88
2389.97,2100.23
2391.42,2116.52
2392.87,2212.16
2394.32,2250.6
2395.77,2334.92
2397.23,2335.42
2398.68,2346.48
2400.13,2373.64
2401.58,2435.89
2403.03,2458.41
2404.49,2521.38
2405.94,2560.29
2407.39,2587.57
2408.84,2635
2410.29,2700.78
2411.74,2705.75
2413.2,2734.51
2414.65,2785.17
2416.1,2808.33
2417.55,2854.91
2419,2879.71
2420.46,2900.35
2421.91,2886.85
2423.36,2911.87
2424.81,2961.06
2426.26,2981.02
2427.71,2927.75
2429.17,2959.09
2430.62,3001.67
2432.07,2970.63
2433.52,2942.61
2434.97,2980.19
2436.42,2970.98
2437.88,2963.16
2439.33,2935.26
2440.78,2943.13
2442.23,2899.9
2443.68,2881.45
2445.14,2868.2
2446.59,2840.34
2448.04,2812.84
2449.49,2797.29
2450.94,2841.4
2452.39,2790.88
2453.85,2819.5
2455.3,2789.16
2456.75,2714.55
2458.2,2680.94
2459.65,2675.17
2461.1,2707.25
2462.56,2669.65
2464.01,2647.26
2465.46,2681.86
2466.91,2653.95
2468.36,2621.29
2469.82,2623.48
2471.27,2583.66
2472.72,2594.61
2474.17,2602.21
2475.62,2582.92
2477.07,2644.66
2478.53,2601.97
2479.98,2589.34
2481.43,2553.04
2482.88,2577.66
2484.33,2600.84
2485.79,2594
2487.24,2565.46
2488.69,2549.09
2490.14,2564.2
2491.59,2588.33
2493.04,2591.08
2494.5,2548.67
2495.95,2634.9
2497.4,2592.91
2498.85,2592.07
2500.3,2574.18
2501.76,2630.24
2503.21,2599.98
2504.66,2589.18
2506.11,2644.26
2507.56,2610.51
2509.01,2629.05
2510.47,2635.23
2511.92,2647.47
2513.37,2679.19
2514.82,2679.84
2516.27,2695.07
2517.72,2699.39
2519.18,2751.62
2520.63,2759.07
2522.08,2785.24
2523.53,2813.92
2524.98,2796.91
2526.44,2819.73
2527.89,2830.14
2529.34,2854.37
2530.79,2926.73
2532.24,2954.33
2533.69,2976.67
2535.15,3029.11
2536.6,3037.32
2538.05,3037.89
2539.5,3077.1
2540.95,3141.15
2542.41,3149.54
2543.86,3167.36
2545.31,3226.96
2546.76,3291.29
2548.21,3333.51
2549.66,3360.6
2551.12,3427.99
2552.57,3483.99
2554.02,3507.15
2555.47,3583.09
2556.92,3599.56
2558.37,3665.83
2559.83,3704.29
2561.28,3819.66
2562.73,3859.92
2564.18,3937.98
2565.63,4008.61
2567.09,4111.97
2568.54,4182.17
2569.99,4237.88
2571.44,4304.38
2572.89,4362.31
2574.34,4517.14
2575.8,4626.95
2577.25,4709.86
2578.7,4817.47
2580.15,4911.42
2581.6,5086.38
2583.06,5239.85
2584.51,5286.27
2585.96,5440.44
2587.41,5612.65
2588.86,5741.04
2590.31,5888.25
2591.77,6095.94
2593.22,6293.73
2594.67,6445.09
2596.12,6616.34
2597.57,6846.92
2599.02,7141.96
2600.48,7371.19
2601.93,7559.18
2603.38,7876.66
2604.83,8178.41
2606.28,8423.18
2607.74,8643.5
2609.19,9045.11
2610.64,9470.35
2612.09,9810.19
2613.54,10201.9
2614.99,10519.2
2616.45,10937.2
2617.9,11418.2
2619.35,11851.9
2620.8,12186.2
2622.25,12618.7
2623.71,13196.5
2625.16,13710.9
2626.61,14251.1
2628.06,14797.9
2629.51,15377.8
2630.96,15950.7
2632.42,16478.7
2633.87,17046.9
2635.32,17669
2636.77,18115.7
2638.22,18697.6
2639.68,19273.9
2641.13,19746.8
2642.58,20260.8
2644.03,20837.6
2645.48,21212.8
2646.93,21696.1
2648.39,22252.1
2649.84,22343.5
2651.29,22740.7
2652.74,23030.9
2654.19,23231.7
2655.64,23471
2657.1,23558.2
2658.55,23576.9
2660,23547
2661.45,23493.1
2662.9,23219.9
2664.36,23189.6
2665.81,22879.1
2667.26,22662
2668.71,22393.6
2670.16,21928.9
2671.61,21439
2673.07,20923
2674.52,20634.6
2675.97,19967.3
2677.42,19422.8
2678.87,18839.9
2680.32,18310.4
2681.78,17774.1
2683.23,17248.3
2684.68,16583.8
2686.13,15926.6
2687.58,15289.2
2689.04,14687.9
2690.49,14164.7
2691.94,13640.7
2693.39,12978.9
2694.84,12549.3
2696.29,12026
2697.75,11529.3
2699.2,11032
2700.65,10619.9
2702.1,10199.4
2703.55,9687.87
2705.01,9289.44
2706.46,8860.7
2707.91,8523.71
2709.36,8311.08
2710.81,7911.43
2712.26,7509.1
2713.72,7286.12
2715.17,7085.23
2716.62,6821.41
2718.07,6536.72
2719.52,6246.89
2720.98,6051.1
2722.43,5840.79
2723.88,5683.05
2725.33,5487.8
2726.78,5291.53
2728.23,5116.75
2729.69,4957.55
2731.14,4824.54
2732.59,4724.8
2734.04,4587.61
2735.49,4453.25
2736.94,4344.95
2738.4,4246.89
2739.85,4126.17
2741.3,4044.81
2742.75,3945.68
2744.2,3895.77
2745.66,3750.82
2747.11,3716.82
2748.56,3622.63
2750.01,3554.03
2751.46,3470.69
2752.91,3387.31
2754.37,3335.06
2755.82,3325.17
2757.27,3239.63
2758.72,3183.32
2760.17,3157.54
2761.63,3090.86
2763.08,3020.64
2764.53,3067.06
2765.98,2936.54
2767.43,2951.19
2768.88,2881.44
2770.34,2815.71
2771.79,2795.49
2773.24,2760.04
2774.69,2781.29
2776.14,2788.53
2777.59,2688.49
2779.05,2720.82
2780.5,2616.65
2781.95,2563.27
2783.4,2608.48
2784.85,2537.65
2786.31,2475.39
2787.76,2482.32
2789.21,2458.09
2790.66,2466.08
2792.11,2462.41
2793.56,2404.32
2795.02,2410.89
2796.47,2344.61
2797.92,2313.35
2799.37,2333.3
2800.82,2281.35
2802.28,2294.14
2803.73,2254.98
2805.18,2263.63
2806.63,2285.95
2808.08,2253.76
2809.53,2212.71
2810.99,2218.07
2812.44,2153.26
2813.89,2194.15
2815.34,2178.12
2816.79,2154.7
2818.24,2141.34
2819.7,2110.05
2821.15,2088.71
2822.6,2110.52
2824.05,2029.57
2825.5,2035.83
2826.96,2054.74
2828.41,2077.58
2829.86,2043.33
2831.31,2058.14
2832.76,2031.73
2834.21,1996.79
2835.67,2027.66
2837.12,2019.58
2838.57,1984.45
2840.02,2034.51
2841.47,1989.54
2842.93,1999.6
2844.38,1960.89
2845.83,1985.2
2847.28,1976.53
2848.73,1968.63
2850.18,1950.98
2851.64,1997.62
2853.09,1980.34
2854.54,1975.26
2855.99,1953.02
2857.44,1934.5
2858.9,1908.1
2860.35,1974.02
2861.8,1923.68
2863.25,1969.48
2864.7,1980.34
2866.15,1966.86
2867.61,1951.49
2869.06,1946.89
2870.51,1994.18
2871.96,1952.24
2873.41,1910.59
2874.86,1957.55
2876.32,1926.55
2877.77,1993.7
2879.22,1975.47
2880.67,1957.47
2882.12,1915.45
2883.58,1915.75
2885.03,1939.53
2886.48,1973.86
2887.93,1970.53
2889.38,2013.55
2890.83,1975.28
2892.29,1977
2893.74,1960.52
2895.19,1987.53
2896.64,1978.14
2898.09,1942.86
2899.54,1979.32
2901,1969.24
2902.45,1976.54
2903.9,1981.52
2905.35,2013.76
2906.8,1995.81
2908.26,1971.31
2909.71,1961.34
2911.16,1942.78
2912.61,1971.59
2914.06,1981.08
2915.51,1961.88
2916.97,1965.83
2918.42,1927.05
2919.87,1942.33
2921.32,1886.38
2922.77,1919.37
2924.23,1885.6
2925.68,1874.88
2927.13,1885.07
2928.58,1895.4
2930.03,1852.47
2931.48,1873.65
2932.94,1819.78
2934.39,1802.27
2935.84,1787.35
2937.29,1769.62
2938.74,1807.22
2940.2,1790.71
2941.65,1718.07
2943.1,1693.02
2944.55,1717.56
2946,1693.31
2947.45,1683.12
2948.91,1687.22
2950.36,1656.77
2951.81,1647.13
2953.26,1624.11
2954.71,1579.89
2956.16,1608.61
2957.62,1578.52
2959.07,1547.69
2960.52,1554.83
2961.97,1543.18
2963.42,1538.57
2964.88,1510.01
2966.33,1526.84
2967.78,1517.31
2969.23,1492.6
2970.68,1495.64
2972.13,1492.6
2973.59,1496.48
2975.04,1486.51
2976.49,1452.65
2977.94,1458.78
2979.39,1421.99
2980.84,1439.34
2982.3,1431.01
2983.75,1436.2
2985.2,1406.86
2986.65,1406.73
2988.1,1416.6
2989.56,1389.8
2991.01,1390.52
2992.46,1405.11
2993.91,1371.88
2995.36,1387.42
2996.81,1417.64
2998.27,1381.56
2999.72,1372.73
3001.17,1343.67
3002.62,1334.77
3004.07,1336.04
3005.53,1369.89
3006.98,1349.31
3008.43,1358.69
3009.88,1365.22
3011.33,1347.82
3012.78,1351.51
3014.24,1341.87
3015.69,1353.89
3017.14,1339.67
3018.59,1333.86
3020.04,1307.27
3021.5,1340.66
3022.95,1336.92
3024.4,1322.77
3025.85,1317.28
3027.3,1320.27
3028.75,1353.74
3030.21,1316.59
3031.66,1318.31
3033.11,1329.02
3034.56,1305.1
3036.01,1300.61
3037.46,1324.84
3038.92,1325.01
3040.37,1301.84
3041.82,1322.69
3043.27,1292.29
3044.72,1321.97
3046.18,1299.73
3047.63,1310.62
3049.08,1304.86
3050.53,1340.65
3051.98,1328.43
3053.43,1320.9
3054.89,1324.25
3056.34,1350.31
3057.79,1333.26
3059.24,1311.04
3060.69,1317.49
3062.15,1334.26
3063.6,1309.46
3065.05,1312.28
3066.5,1350.88
3067.95,1345.5
3069.4,1363.19
3070.86,1365.94
3072.31,1371.79
3073.76,1339.14
3075.21,1352.68
3076.66,1387.36
3078.11,1377.18
3079.57,1373.71
3081.02,1402.35
3082.47,1391.62
3083.92,1399.69
3085.37,1404.92
3086.83,1448.81
3088.28,1419.13
3089.73,1421.46
3091.18,1450.26
3092.63,1478.26
3094.08,1493.99
3095.54,1473.72
3096.99,1497.86
3098.44,1571.97
3099.89,1526.88
3101.34,1573.43
3102.8,1574.41
3104.25,1584.02
3105.7,1613.77
3107.15,1617.22
3108.6,1653.95
3110.05,1684.69
3111.51,1636.31
3112.96,1690.96
3114.41,1727.13
3115.86,1750.16
3117.31,1775.41
3118.76,1799.25
3120.22,1854.54
3121.67,1819.86
3123.12,1849.68
3124.57,1906.6
3126.02,1899.84
3127.48,1897.79
3128.93,1914.92
3130.38,1937.5
3131.83,1980.28
3133.28,1996.26
3134.73,1986.44
3136.19,2025.58
3137.64,2040.65
3139.09,2028
3140.54,2053.78
3141.99,2046.67
3143.45,2042.43
3144.9,2099.67
3146.35,2080.77
3147.8,2059.1
3149.25,2124
3150.7,2075.46
3152.16,2094.55
3153.61,2067.47
3155.06,2108.05
3156.51,2096.06
3157.96,2101.03
3159.42,2062.78
3160.87,2112.49
3162.32,2109.03
3163.77,2079.54
3165.22,2118.73
3166.67,2149.12
3168.13,2115.3
3169.58,2116.98
3171.03,2185.88
3172.48,2167.88
3173.93,2173.27
3175.38,2181.96
3176.84,2226.54
3178.29,2252.48
3179.74,2322.13
3181.19,2244.85
3182.64,2279.38
3184.1,2352.22
3185.55,2315.56
3187,2314.69
3188.45,2354.42
3189.9,2444.94
3191.35,2438.7
3192.81,2453.29
3194.26,2407.29
3195.71,2470.96
3197.16,2508.97
3198.61,2495.02
3200.06,2489.48
3201.52,2516.84
3202.97,2528.71
3204.42,2508.88
3205.87,2468.86
3207.32,2458.79
3208.78,2441.89
3210.23,2425.72
3211.68,2355.55
3213.13,2299.51
3214.58,2305.45
3216.03,2260.54
3217.49,2252.39
3218.94,2235.43
3220.39,2145.02
3221.84,2113.52
3223.29,2035.26
3224.75,1987.15
3226.2,1948.66
3227.65,1906.41
3229.1,1881.3
3230.55,1817.73
3232,1751.42
3233.46,1723.31
3234.91,1676.27
3236.36,1626.33
3237.81,1584.98
3239.26,1576.14
3240.72,1528.41
3242.17,1509.08
3243.62,1449.58
3245.07,1434.12
3246.52,1412.3
3247.97,1404.12
3249.43,1381.09
3250.88,1333.61
3252.33,1307.09
3253.78,1320.15
3255.23,1288.9
3256.68,1279.21
3258.14,1264.65
3259.59,1214.1
3261.04,1220.87
3262.49,1202.18
3263.94,1187.24
3265.4,1210.97
3266.85,1178.91
3268.3,1196.57
3269.75,1158.59
3271.2,1186.14
3272.65,1171.23
3274.11,1140.69
3275.56,1118.65
3277.01,1166.33
3278.46,1159.18
3279.91,1147.2
3281.37,1128.75
3282.82,1120.62
3284.27,1126.13
3285.72,1132.59
3287.17,1110.33
3288.62,1108.1
3290.08,1138.73
3291.53,1133.08
3292.98,1113.85
3294.43,1108.52
3295.88,1115.49
3297.33,1125.69
3298.79,1100.54
3300.24,1068.55
3301.69,1067.02
3303.14,1071.65
3304.59,1103.76
3306.05,1079.52
3307.5,1068.66
3308.95,1066.64
3310.4,1080.12
3311.85,1115.74
3313.3,1091.83
3314.76,1082.34
3316.21,1079.73
3317.66,1075.86
3319.11,1055.07
3320.56,1069
3322.02,1084.46
3323.47,1087.35
3324.92,1071.94
3326.37,1054.9
3327.82,1047.24
3329.27,1073.06
3330.73,1064.42
3332.18,1040.58
3333.63,1049.02
3335.08,1043.42
3336.53,1061.95
3337.98,1083.28
3339.44,1071.17
3340.89,1070.8
3342.34,1054.38
3343.79,1062.71
3345.24,1062.24
3346.7,1050.15
3348.15,1049.69
3349.6,1047.82
3351.05,1066.95
3352.5,1055.16
3353.95,1060.52
3355.41,1078.51
3356.86,1038.21
3358.31,1052.37
3359.76,1045.39
3361.21,1038.35
3362.67,1050.24
3364.12,1008.19
3365.57,1056.99
3367.02,1047.31
3368.47,1043.45
3369.92,1056.54
3371.38,1049.7
3372.83,1076.8
3374.28,1046.63
3375.73,1035.87
3377.18,1038.83
3378.63,1054.42
3380.09,1033.02
3381.54,1014.82
3382.99,1025.12
3384.44,1035.35
3385.89,1044.9
3387.35,1036.3
3388.8,1051.21
3390.25,1050.43
3391.7,1041.63
3393.15,1037.45
3394.6,1046.02
3396.06,1057.23
3397.51,1014.58
3398.96,1026.69
3400.41,1021.61
3401.86,1015.12
3403.32,1042.72
3404.77,1060.4
3406.22,1067.83
3407.67,1032.94
3409.12,1029.87
3410.57,1027.81
3412.03,1041.68
3413.48,1028.77
3414.93,1046.5
3416.38,1019.84
3417.83,1030.76
3419.28,1047.56
3420.74,1040.25
3422.19,1058.2
3423.64,1038.8
3425.09,1033.81
3426.54,1031.38
3428,1013.38
3429.45,1015.99
3430.9,1016.26
3432.35,1016.12
3433.8,1010.05
3435.25,988.793
3436.71,1012.21
3438.16,1029.98
3439.61,1023.6
3441.06,1034.25
3442.51,1018.44
3443.97,1028.44
3445.42,1051.84
3446.87,1015.65
3448.32,1013.63
3449.77,1015.98
3451.22,1015.56
3452.68,1028.69
3454.13,1012.2
3455.58,1004.09
3457.03,1009.8
3458.48,1013.13
3459.94,986.734
3461.39,998.701
3462.84,991.543
3464.29,1011.65
3465.74,1024.34
3467.19,1038.87
3468.65,1009.16
3470.1,1021.77
3471.55,1008.92
3473,1002.66
3474.45,1021.36
3475.9,1004.01
3477.36,999.241
3478.81,977.279
3480.26,989.098
3481.71,1022.85
3483.16,1019.39
3484.62,1038.65
3486.07,1018.63
3487.52,1029.33
3488.97,1034.84
3490.42,1053.55
3491.87,991.803
3493.33,1010.12
3494.78,1027.27
3496.23,1004.96
3497.68,1000.9
3499.13,1021.44
3500.58,1029.15
3502.04,1011.45
3503.49,1033.92
3504.94,1018.15
3506.39,1029.49
3507.84,1015.22
3509.3,983.94
3510.75,1024.35
3512.2,1015.05
3513.65,1015.16
3515.1,1022.43
3516.55,1054.5
3518.01,1042.39
3519.46,1031.27
3520.91,1009.92
3522.36,1017.93
3523.81,1038.18
3525.27,983.828
3526.72,998.036
3528.17,1006.26
3529.62,1018.58
3531.07,1033.46
3532.52,1019.76
3533.98,1043.4
3535.43,1016.39
3536.88,1032.34
3538.33,1019.79
3539.78,1017.91
3541.24,1023.97
3542.69,992.258
3544.14,1024.57
3545.59,1039.2
3547.04,997.015
3548.49,1008.24
3549.95,1010.3
3551.4,1011.67
3552.85,984.519
3554.3,1010.48
3555.75,1002.53
3557.2,1015.97
3558.66,986.929
3560.11,999.869
3561.56,1013.47
3563.01,993.832
3564.46,1009.11
3565.92,1022.38
3567.37,1009.39
3568.82,1016.44
3570.27,1007.55
3571.72,1018.55
3573.17,1000.08
3574.63,1014.98
3576.08,1024.98
3577.53,985.524
3578.98,997.522
3580.43,1005.28
3581.89,1016.81
3583.34,1030.22
3584.79,1013.06
3586.24,1004.54
3587.69,1007.81
3589.14,1007.92
3590.6,1012.42
3592.05,996.12
3593.5,996.335
3594.95,1012.51
3596.4,991.32
3597.85,1004.67
3599.31,999.128
3600.76,999.789
3602.21,998.667
3603.66,1008.67
3605.11,1007.16
3606.57,1003.25
3608.02,1016.27
3609.47,1002.28
3610.92,1008.43
3612.37,1013.76
3613.82,1002.16
3615.28,1010.33
3616.73,997.988
3618.18,986.771
3619.63,1025.41
3621.08,981.511
3622.54,1002.14
3623.99,983.063
3625.44,1011.91
3626.89,1024.79
3628.34,1003.18
3629.79,1009.73
3631.25,1005.51
3632.7,1015.85
3634.15,993.114
3635.6,998.13
3637.05,1032.67
3638.5,1017.7
3639.96,1034.21
3641.41,990.537
3642.86,992.702
3644.31,1009.74
3645.76,991.922
3647.22,997.622
3648.67,1005.96
3650.12,980.456
3651.57,1011.33
3653.02,1000.4
3654.47,1009.1
3655.93,1001.44
3657.38,975.26
3658.83,1029.15
3660.28,1013.35
3661.73,1006.65
3663.19,999.889
3664.64,1007.13
3666.09,1020.43
3667.54,1029.22
3668.99,1001
3670.44,989.453
3671.9,1023.9
3673.35,1041.88
3674.8,1028.36
3676.25,1009.56
3677.7,1026.52
3679.16,1017.36
3680.61,1029.53
3682.06,1004.78
3683.51,1010.51
3684.96,1013.41
3686.41,1032.83
3687.87,1004.01
3689.32,999.294
3690.77,992.88
3692.22,1041.26
3693.67,1001.42
3695.12,1004.93
3696.58,1036.86
3698.03,994.922
3699.48,1003.25
3700.93,1024.39
3702.38,1032.31
3703.84,1010.02
3705.29,1030.58
3706.74,1028.07
3708.19,1019.65
3709.64,999.728
3711.09,998.924
3712.55,1011.46
3714,1009.95
3715.45,1034.33
3716.9,1030.58
3718.35,1014.82
3719.8,1033.27
3721.26,1006.04
3722.71,1027.57
3724.16,1027.84
3725.61,1037.78
3727.06,1041.47
3728.52,1048.74
3729.97,1045.41
3731.42,1059.38
3732.87,1022.69
3734.32,1033.81
3735.77,1022.34
3737.23,1037.81
3738.68,1036.81
3740.13,1025.83
3741.58,1016.01
3743.03,1067.73
3744.49,1038.01
3745.94,1029.84
3747.39,1035.11
3748.84,1028.63
3750.29,1031.75
3751.74,1029.17
3753.2,1024.79
3754.65,1024.05
3756.1,1045.38
3757.55,1026.27
3759,1039.2
3760.46,1058.47
3761.91,1038.15
3763.36,1051.71
3764.81,1052.21
3766.26,1020.5
3767.71,1036.04
3769.17,1047.61
3770.62,1049.32
3772.07,1048.6
3773.52,1045.51
3774.97,1022.89
3776.42,1035.24
3777.88,1028.18
3779.33,1056.76
3780.78,1047.51
3782.23,1044.93
3783.68,1057.09
3785.14,1021.08
3786.59,1031.38
3788.04,1048.27
3789.49,1068.76
3790.94,1077.74
3792.39,1043.56
3793.85,1040.76
3795.3,1047.48
3796.75,1051.86
3798.2,1060.67
3799.65,1024.1
3801.1,1029.57
3802.56,1052.89
3804.01,1053.19
3805.46,1077.02
3806.91,1054.24
3808.36,1066.59
3809.82,1046.44
3811.27,1034.15
3812.72,1047.18
3814.17,1066.88
3815.62,1068.04
3817.07,1072.88
3818.53,1061.42
3819.98,1059.96
3821.43,1064.22
3822.88,1059.14
3824.33,1086.37
3825.79,1079.49
3827.24,1057.87
3828.69,1059.19
3830.14,1032.59
3831.59,1067.28
3833.04,1060.81
3834.5,1059.11
3835.95,1041.41
3837.4,1040.04
3838.85,1084.61
3840.3,1046.97
3841.76,1066.49
3843.21,1064.48
3844.66,1062.48
3846.11,1062.58
3847.56,1050.43
3849.01,1090.55
3850.47,1088.12
3851.92,1089.98
3853.37,1075.43
3854.82,1106.49
3856.27,1093.69
3857.72,1099.18
3859.18,1074.12
3860.63,1088.34
3862.08,1075.31
3863.53,1095.06
3864.98,1129.77
3866.44,1100.62
3867.89,1097.74
3869.34,1082.83
3870.79,1070.38
3872.24,1104.6
3873.69,1112.87
3875.15,1093.78
3876.6,1100.52
3878.05,1100.43
3879.5,1105.56
3880.95,1133.09
3882.41,1112.73
3883.86,1094.33
3885.31,1093.82
3886.76,1120.02
3888.21,1105.96
3889.66,1109.97
3891.12,1114.99
3892.57,1079.35
3894.02,1124.53
3895.47,1115.74
3896.92,1144.88
3898.37,1106.42
3899.83,1104.22
3901.28,1126.52
3902.73,1122.17
3904.18,1129.78
3905.63,1155.56
3907.09,1099.63
3908.54,1142.64
3909.99,1147.06
3911.44,1151.19
3912.89,1178.85
3914.34,1153.02
3915.8,1147.2
3917.25,1180.35
3918.7,1158.46
3920.15,1127.38
3921.6,1166.27
3923.06,1125.21
3924.51,1122.06
3925.96,1148.84
3927.41,1178.32
3928.86,1165.38
3930.31,1181.52
3931.77,1189.76
3933.22,1190.6
3934.67,1192.18
3936.12,1192.37
3937.57,1179.3
3939.02,1145
3940.48,1191.34
3941.93,1229.42
3943.38,1229.26
3944.83,1191.7
3946.28,1217.1
3947.74,1233.14
3949.19,1247.81
3950.64,1228.38
3952.09,1234.38
3953.54,1196.81
3954.99,1231.73
3956.45,1225.23
3957.9,1217.09
3959.35,1244.19
3960.8,1225.65
3962.25,1244.18
3963.71,1231.1
3965.16,1222.77
3966.61,1237.61
3968.06,1245
3969.51,1245.05
3970.96,1271.51
3972.42,1251.94
3973.87,1253.89
3975.32,1271.69
3976.77,1272.55
3978.22,1257.14
3979.68,1283.61
3981.13,1271.54
3982.58,1282.12
3984.03,1298.49
3985.48,1303.64
3986.93,1272.94
3988.39,1301.93
3989.84,1305.52
3991.29,1281.85
3992.74,1303.04
3994.19,1286.7
3995.64,1293.07
3997.1,1314.47
3998.55,1306.9
4000,1310.44
