-20,60.8006
-18.5482,59.8485
-17.0964,58.3969
-15.6446,60.9447
-14.1928,60.4185
-12.7411,64.7061
-11.2893,70.829
-9.83749,78.4067
-8.3857,88.5881
-6.93391,108.64
-5.48212,82.3293
-4.03034,82.3293
-2.57855,82.3293
-1.12676,82.3293
0.325027,82.3293
1.77681,82.3293
3.2286,82.3293
4.68039,82.3293
6.13218,82.3293
7.58397,194.043
9.03575,99.6312
10.4875,85.9573
11.9393,80.3035
13.3911,79.6665
14.8429,79.6505
16.2947,78.3938
17.7465,75.6406
19.1983,73.6613
20.6501,72.8895
22.1018,72.1745
23.5536,66.2493
25.0054,65.11
26.4572,65.6781
27.909,63.9345
29.3608,60.4911
30.8126,58.2158
32.2644,57.1327
33.7161,55.5041
35.1679,54.6963
36.6197,56.3547
38.0715,62.2721
39.5233,58.6849
40.9751,60.9985
42.4269,65.8063
43.8787,69.502
45.3304,75.6732
46.7822,86.7719
48.234,99.8578
49.6858,128.148
51.1376,194.155
52.5894,302.516
54.0412,475.612
55.493,710.914
56.9447,995.763
58.3965,1304.03
59.8483,1583.18
61.3001,1792.89
62.7519,1970.18
64.2037,2153.18
65.6555,2186.17
67.1073,2261.45
68.559,2345.84
70.0108,2393.91
71.4626,2398.6
72.9144,2445.88
74.3662,2471.46
75.818,2460.37
77.2698,2455.11
78.7216,2509.54
80.1733,2588.99
81.6251,2645.39
83.0769,2699.29
84.5287,2718.98
85.9805,2775.43
87.4323,2768.66
88.8841,2729.5
90.3359,2667.47
91.7877,2580.93
93.2394,2485.98
94.6912,2418.7
96.143,2370.39
97.5948,2321.81
99.0466,2194.85
100.498,2151.65
101.95,2072.69
103.402,2017.16
104.854,1980.55
106.306,1940.19
107.757,1895.16
109.209,1839.47
110.661,1795.75
112.113,1768.93
113.564,1734.47
115.016,1666.29
116.468,1622.35
117.92,1599.64
119.372,1577.46
120.823,1520.76
122.275,1504.03
123.727,1482
125.179,1439.05
126.631,1384.83
128.082,1341.28
129.534,1337.48
130.986,1319.7
132.438,1300.19
133.889,1297.55
135.341,1269.51
136.793,1240.2
138.245,1239.81
139.697,1233.08
141.148,1178.07
142.6,1181.49
144.052,1177.64
145.504,1175.29
146.956,1161.76
148.407,1112.4
149.859,1138.77
151.311,1101.54
152.763,1065.38
154.215,1047.48
155.666,1048.28
157.118,1018.22
158.57,1023.75
160.022,1022.85
161.473,1008.15
162.925,1010.3
164.377,989.056
165.829,971.557
167.281,960.883
168.732,947.1
170.184,944.785
171.636,926.785
173.088,928.952
174.54,934.954
175.991,945.284
177.443,925.03
178.895,901.032
180.347,891.979
181.798,886.884
183.25,883.185
184.702,870.404
186.154,867.567
187.606,873.726
189.057,864.892
190.509,837.967
191.961,845.993
193.413,823.991
194.865,798.894
196.316,794.425
197.768,802.237
199.22,793.267
200.672,795.629
202.124,792.427
203.575,804.019
205.027,808.065
206.479,771.149
207.931,789.425
209.382,792.079
210.834,790.595
212.286,785.967
213.738,787.004
215.19,771.484
216.641,780.285
218.093,781.474
219.545,769.982
220.997,767.333
222.449,771.303
223.9,778.729
225.352,776.453
226.804,768.238
228.256,742.367
229.707,747.429
231.159,764.32
232.611,771.3
234.063,776.937
235.515,779.674
236.966,768.257
238.418,759.359
239.87,754.884
241.322,754.15
242.774,746.859
244.225,758.294
245.677,750.733
247.129,746.322
248.581,741.209
250.033,727.199
251.484,719.595
252.936,731.995
254.388,731.516
255.84,729.693
257.291,747.936
258.743,740.261
260.195,709.673
261.647,709.907
263.099,722.537
264.55,707.785
266.002,719.803
267.454,695.676
268.906,704.671
270.358,719.461
271.809,721.848
273.261,706.358
274.713,714.952
276.165,701.334
277.616,681.835
279.068,677.149
280.52,657.558
281.972,667.86
283.424,667.455
284.875,660.193
286.327,659.503
287.779,662.762
289.231,666.744
290.683,667.302
292.134,650.147
293.586,634.662
295.038,642.978
296.49,629.422
297.941,622.802
299.393,613.877
300.845,616.712
302.297,621.466
303.749,606.521
305.2,610.672
306.652,595.808
308.104,583.908
309.556,594.089
311.008,585.417
312.459,593.748
313.911,597.144
315.363,582.69
316.815,565.532
318.267,603.537
319.718,585.691
321.17,583.289
322.622,574.115
324.074,565.15
325.525,570.66
326.977,564.688
328.429,554.376
329.881,553.528
331.333,561.332
332.784,561.409
334.236,555.353
335.688,550.755
337.14,565.749
338.592,569.806
340.043,563.762
341.495,562.78
342.947,558.856
344.399,542.565
345.85,546.21
347.302,559.603
348.754,561.758
350.206,544.333
351.658,548.242
353.109,536.249
354.561,537.711
356.013,567.107
357.465,563.588
358.917,552.098
360.368,551.749
361.82,539.174
363.272,525.047
364.724,539.38
366.176,543.581
367.627,524.433
369.079,528.143
370.531,545.808
371.983,562.993
373.434,563.194
374.886,550.407
376.338,553.355
377.79,556.174
379.242,550.028
380.693,534.085
382.145,546.169
383.597,545.891
385.049,534.454
386.501,529.986
387.952,536.561
389.404,531.082
390.856,530.761
392.308,539.142
393.759,541.375
395.211,537.705
396.663,530.621
398.115,533.92
399.567,535.722
401.018,543.127
402.47,548.128
403.922,537.74
405.374,526.387
406.826,525.165
408.277,541.213
409.729,544.551
411.181,532.731
412.633,549.465
414.085,524.113
415.536,539.159
416.988,541.813
418.44,534.395
419.892,533.473
421.343,535.665
422.795,540.187
424.247,541.668
425.699,540.101
427.151,533.657
428.602,536.992
430.054,524.47
431.506,530.323
432.958,530.507
434.41,525.364
435.861,521.303
437.313,518.253
438.765,516.071
440.217,513.527
441.668,513.538
443.12,512.912
444.572,510.853
446.024,534.635
447.476,501.328
448.927,502.867
450.379,514.986
451.831,510.705
453.283,523.036
454.735,532.046
456.186,514.179
457.638,509.622
459.09,520.33
460.542,524.356
461.993,511.659
463.445,514.315
464.897,523.254
466.349,530.301
467.801,528.584
469.252,513.085
470.704,518.255
472.156,515.116
473.608,521.718
475.06,534.109
476.511,539.403
477.963,515.98
479.415,485.249
480.867,494.394
482.319,507.182
483.77,517.327
485.222,532.202
486.674,509.817
488.126,512.387
489.577,516.17
491.029,513.814
492.481,515.703
493.933,507.585
495.385,493.552
496.836,496.025
498.288,507.206
499.74,513.984
501.192,517.684
502.644,506.366
504.095,508.105
505.547,510.093
506.999,495.951
508.451,489.235
509.902,508.051
511.354,507.412
512.806,493.313
514.258,498.443
515.71,484.682
517.161,481.945
518.613,506.957
520.065,489.675
521.517,493.116
522.969,511.973
524.42,517.4
525.872,506.755
527.324,487.006
528.776,495.163
530.228,476.648
531.679,496.242
533.131,509.594
534.583,506.927
536.035,502.213
537.486,499.08
538.938,496.814
540.39,496.127
541.842,484.282
543.294,480.201
544.745,504.959
546.197,505.004
547.649,507.493
549.101,506.889
550.553,499.821
552.004,498.531
553.456,491.828
554.908,500.983
556.36,494.097
557.811,498.255
559.263,497.197
560.715,497.383
562.167,498.796
563.619,486.305
565.07,466.68
566.522,488.69
567.974,499.007
569.426,489.122
570.878,496.131
572.329,481.225
573.781,485.796
575.233,492.084
576.685,491.896
578.137,493.678
579.588,499.099
581.04,493.802
582.492,492.992
583.944,495.478
585.395,489.339
586.847,480.172
588.299,498.422
589.751,512.927
591.203,500.261
592.654,497.401
594.106,497.318
595.558,500.784
597.01,494.351
598.462,473.572
599.913,506.268
601.365,499.01
602.817,500.562
604.269,506.167
605.72,494.7
607.172,484.911
608.624,502.576
610.076,499.363
611.528,495.381
612.979,499.366
614.431,492.129
615.883,506.453
617.335,503.854
618.787,505.085
620.238,494.512
621.69,490.738
623.142,503.873
624.594,513.904
626.046,504.498
627.497,501.629
628.949,503.929
630.401,500.873
631.853,502.586
633.304,497.654
634.756,512.52
636.208,512.467
637.66,513.557
639.112,508.796
640.563,506.027
642.015,507.226
643.467,513.088
644.919,527.42
646.371,508.798
647.822,499.687
649.274,512.595
650.726,530.265
652.178,521.092
653.629,520.005
655.081,516.469
656.533,514.578
657.985,511.21
659.437,512.832
660.888,533.49
662.34,527.373
663.792,517.59
665.244,515.38
666.696,520.394
668.147,516.291
669.599,537.758
671.051,522.643
672.503,524.213
673.954,527.045
675.406,535.388
676.858,535.604
678.31,541.308
679.762,539.561
681.213,539.477
682.665,546.958
684.117,534.799
685.569,526.686
687.021,535.095
688.472,532.964
689.924,533.68
691.376,539.672
692.828,531.121
694.28,528.226
695.731,531.794
697.183,536.626
698.635,533.925
700.087,526.771
701.538,544.674
702.99,538.032
704.442,525.612
705.894,529.339
707.346,563.16
708.797,541.53
710.249,533.873
711.701,545.671
713.153,535.76
714.605,532.707
716.056,540.019
717.508,541.647
718.96,540.074
720.412,534.516
721.863,523.79
723.315,517.599
724.767,530.447
726.219,554.729
727.671,529.559
729.122,536.829
730.574,532.285
732.026,524.924
733.478,525.927
734.93,530.593
736.381,547.12
737.833,532.27
739.285,535.526
740.737,532.003
742.189,530.127
743.64,518.821
745.092,527.036
746.544,524.273
747.996,502.578
749.447,532.385
750.899,537.804
752.351,538.057
753.803,549.529
755.255,542.593
756.706,537.348
758.158,530.012
759.61,533.606
761.062,533.462
762.514,530.349
763.965,548.976
765.417,547.768
766.869,536.037
768.321,538.509
769.772,532.329
771.224,527.953
772.676,526.634
774.128,541.378
775.58,565.155
777.031,548.065
778.483,534.34
779.935,536.166
781.387,536.176
782.839,526.188
784.29,532.432
785.742,524.442
787.194,548.398
788.646,546.809
790.098,547.233
791.549,538.576
793.001,541.041
794.453,548.312
795.905,535.78
797.356,541.738
798.808,556.571
800.26,563.785
801.712,550.288
803.164,552.002
804.615,544.944
806.067,549.056
807.519,553.804
808.971,567.13
810.423,568.012
811.874,555.906
813.326,554.82
814.778,551.09
816.23,553.67
817.681,554.719
819.133,558.747
820.585,560.506
822.037,554.317
823.489,554.718
824.94,555.152
826.392,577.195
827.844,575.471
829.296,565.181
830.748,555.049
832.199,564.353
833.651,575.708
835.103,569.462
836.555,575.869
838.007,579.346
839.458,573.351
840.91,574.343
842.362,574.596
843.814,582.27
845.265,580.118
846.717,573.041
848.169,566.958
849.621,593.385
851.073,590.505
852.524,588.098
853.976,591.946
855.428,596.782
856.88,591.991
858.332,589.785
859.783,601.04
861.235,606.829
862.687,601.398
864.139,600.615
865.59,610.368
867.042,629.261
868.494,606.277
869.946,588.659
871.398,591.08
872.849,598.532
874.301,599.499
875.753,602.61
877.205,580.058
878.657,580.586
880.108,589.592
881.56,589.235
883.012,590.637
884.464,590.833
885.915,582.934
887.367,576.815
888.819,591.032
890.271,595.606
891.723,593.607
893.174,607.696
894.626,614.614
896.078,601.428
897.53,592.095
898.982,618.213
900.433,603.289
901.885,593.047
903.337,600.261
904.789,615.695
906.241,625.25
907.692,622.703
909.144,612.209
910.596,610.871
912.048,618.115
913.499,619.284
914.951,636.78
916.403,630.262
917.855,630.889
919.307,644.984
920.758,606.053
922.21,608.566
923.662,629.515
925.114,620.893
926.566,625.187
928.017,643.817
929.469,650.328
930.921,648.067
932.373,647.199
933.824,624.265
935.276,646.724
936.728,632.797
938.18,638.092
939.632,638.252
941.083,631.652
942.535,643.305
943.987,628.863
945.439,647.431
946.891,652.583
948.342,651.705
949.794,644.966
951.246,645.61
952.698,636.341
954.15,632.901
955.601,657.458
957.053,656.813
958.505,635.574
959.957,616.914
961.408,629.372
962.86,651.405
964.312,629.387
965.764,630.689
967.216,622.758
968.667,645.275
970.119,638.746
971.571,640.56
973.023,638.124
974.475,632.292
975.926,631.071
977.378,647.476
978.83,649.315
980.282,645.294
981.733,632.544
983.185,622.524
984.637,624.786
986.089,636.457
987.541,655.331
988.992,655.065
990.444,646.85
991.896,640.664
993.348,639.903
994.8,641.139
996.251,637.127
997.703,644.169
999.155,655.382
1000.61,661.756
1002.06,665.726
1003.51,679.492
1004.96,658.64
1006.41,665.321
1007.87,666.125
1009.32,649.429
1010.77,649.573
1012.22,692.239
1013.67,689.449
1015.12,679.27
1016.58,676.246
1018.03,686.751
1019.48,685.901
1020.93,681.243
1022.38,685.555
1023.84,704.898
1025.29,702.31
1026.74,687.961
1028.19,704.732
1029.64,705.304
1031.09,711.215
1032.55,715.859
1034,728.369
1035.45,731.338
1036.9,737.308
1038.35,736.726
1039.8,746.533
1041.26,745.648
1042.71,743.84
1044.16,758.465
1045.61,767.704
1047.06,781.01
1048.52,775.589
1049.97,796.339
1051.42,763.642
1052.87,752.773
1054.32,788.328
1055.77,808.073
1057.23,806.941
1058.68,825.026
1060.13,854.595
1061.58,823.195
1063.03,827.884
1064.49,839.988
1065.94,859.405
1067.39,863.459
1068.84,851.045
1070.29,846.316
1071.74,880.724
1073.2,885.995
1074.65,889.45
1076.1,923.379
1077.55,916.248
1079,901.183
1080.46,916.561
1081.91,920.143
1083.36,909.212
1084.81,894.964
1086.26,894.121
1087.71,919.296
1089.17,931.065
1090.62,914.32
1092.07,904.255
1093.52,897.628
1094.97,906.102
1096.42,892.707
1097.88,886.181
1099.33,890.885
1100.78,896.11
1102.23,891.138
1103.68,892.855
1105.14,886.232
1106.59,869.398
1108.04,866.756
1109.49,874.04
1110.94,852.254
1112.39,868.676
1113.85,847.706
1115.3,851.425
1116.75,855.196
1118.2,862.364
1119.65,865.241
1121.11,835.331
1122.56,825.989
1124.01,837.211
1125.46,818.214
1126.91,836.703
1128.36,822.126
1129.82,816.047
1131.27,818.66
1132.72,813.783
1134.17,813.55
1135.62,809.852
1137.07,810.745
1138.53,805.264
1139.98,776.979
1141.43,788.582
1142.88,808.434
1144.33,810.016
1145.79,805.799
1147.24,802.98
1148.69,813.408
1150.14,788.324
1151.59,810.997
1153.04,803.577
1154.5,803.328
1155.95,822.062
1157.4,807.145
1158.85,778.644
1160.3,799.886
1161.76,775.949
1163.21,766.59
1164.66,758.983
1166.11,793.983
1167.56,807.379
1169.01,804.438
1170.47,806.871
1171.92,797.27
1173.37,783.555
1174.82,816.386
1176.27,825.092
1177.72,805.982
1179.18,826.306
1180.63,820.93
1182.08,831.95
1183.53,826.601
1184.98,820.669
1186.44,819.905
1187.89,821.451
1189.34,831.982
1190.79,823.104
1192.24,823.992
1193.69,841.498
1195.15,823.972
1196.6,832.11
1198.05,836.704
1199.5,825.871
1200.95,828.523
1202.41,835.69
1203.86,854.045
1205.31,827.77
1206.76,860.714
1208.21,851.687
1209.66,837.629
1211.12,835.894
1212.57,847.391
1214.02,848.926
1215.47,836.774
1216.92,836.726
1218.37,852.991
1219.83,842.172
1221.28,859.232
1222.73,861.549
1224.18,870.997
1225.63,875.062
1227.09,869.121
1228.54,865.135
1229.99,863.926
1231.44,915.635
1232.89,873.994
1234.34,878.526
1235.8,885.505
1237.25,887.238
1238.7,895.258
1240.15,902.56
1241.6,913.231
1243.06,915.644
1244.51,917.413
1245.96,932.623
1247.41,914.703
1248.86,954.232
1250.31,935.85
1251.77,925.204
1253.22,932.384
1254.67,950.899
1256.12,972.985
1257.57,980.947
1259.02,965.295
1260.48,976.467
1261.93,992.663
1263.38,954.932
1264.83,979.819
1266.28,1011.73
1267.74,1044.07
1269.19,1049.92
1270.64,1049
1272.09,1055.47
1273.54,1065.48
1274.99,1090.1
1276.45,1104.55
1277.9,1130.83
1279.35,1093.92
1280.8,1135.62
1282.25,1166.11
1283.71,1193.74
1285.16,1209.29
1286.61,1208.32
1288.06,1218.22
1289.51,1256.64
1290.96,1298.21
1292.42,1332.01
1293.87,1331.44
1295.32,1406.93
1296.77,1396.31
1298.22,1428.22
1299.67,1497.74
1301.13,1564.36
1302.58,1606.35
1304.03,1665.73
1305.48,1755.41
1306.93,1800.62
1308.39,1870.89
1309.84,1953.04
1311.29,2004.68
1312.74,2091.12
1314.19,2197.47
1315.64,2288.53
1317.1,2358.55
1318.55,2463.28
1320,2576.67
1321.45,2653.52
1322.9,2787.42
1324.36,2869.02
1325.81,2960.11
1327.26,3064.07
1328.71,3111.99
1330.16,3224.72
1331.61,3225.81
1333.07,3216.35
1334.52,3261.78
1335.97,3248.98
1337.42,3193
1338.87,3184.48
1340.33,3138.57
1341.78,3075.67
1343.23,2905.96
1344.68,2863.67
1346.13,2756.39
1347.58,2657.53
1349.04,2565.03
1350.49,2454.98
1351.94,2349.24
1353.39,2245.57
1354.84,2156.18
1356.29,2031.01
1357.75,1990.15
1359.2,1964.59
1360.65,1873.58
1362.1,1799.49
1363.55,1737.98
1365.01,1683.28
1366.46,1630.37
1367.91,1584.57
1369.36,1555.05
1370.81,1496.24
1372.26,1465.19
1373.72,1438.54
1375.17,1415.55
1376.62,1392.51
1378.07,1352.93
1379.52,1346.2
1380.98,1331.06
1382.43,1313.42
1383.88,1305.01
1385.33,1274.93
1386.78,1223.17
1388.23,1228.33
1389.69,1237.37
1391.14,1223.56
1392.59,1198.12
1394.04,1227
1395.49,1227.56
1396.94,1202.15
1398.4,1187.35
1399.85,1169.09
1401.3,1167.98
1402.75,1172.71
1404.2,1166.99
1405.66,1165.74
1407.11,1194.04
1408.56,1194.77
1410.01,1135.68
1411.46,1175.78
1412.91,1205.14
1414.37,1193.72
1415.82,1182.04
1417.27,1181.64
1418.72,1193.07
1420.17,1207.46
1421.63,1207.91
1423.08,1192.32
1424.53,1208.86
1425.98,1210.47
1427.43,1219.05
1428.88,1205.54
1430.34,1225.75
1431.79,1241.95
1433.24,1263.95
1434.69,1280.14
1436.14,1281.52
1437.59,1271.69
1439.05,1265.06
1440.5,1286.81
1441.95,1287.45
1443.4,1301.4
1444.85,1307.57
1446.31,1315.69
1447.76,1347.29
1449.21,1340.36
1450.66,1339.97
1452.11,1348.41
1453.56,1373
1455.02,1385.31
1456.47,1392.54
1457.92,1394.25
1459.37,1391.72
1460.82,1418.63
1462.28,1436.02
1463.73,1435.36
1465.18,1488.32
1466.63,1504.89
1468.08,1534.55
1469.53,1552.64
1470.99,1573.64
1472.44,1567.41
1473.89,1581.93
1475.34,1623.19
1476.79,1629.1
1478.24,1668.98
1479.7,1666.22
1481.15,1733.74
1482.6,1726.63
1484.05,1771.05
1485.5,1811.26
1486.96,1833.95
1488.41,1870.2
1489.86,1911.99
1491.31,1944.05
1492.76,2011.58
1494.21,2062.11
1495.67,2062.97
1497.12,2099.42
1498.57,2179.21
1500.02,2256.51
1501.47,2280.36
1502.93,2299.43
1504.38,2351.67
1505.83,2417.95
1507.28,2531.3
1508.73,2581.94
1510.18,2670.73
1511.64,2768.98
1513.09,2886.09
1514.54,3007.6
1515.99,3091.7
1517.44,3191.17
1518.89,3418.03
1520.35,3542.32
1521.8,3687.69
1523.25,3921.01
1524.7,4119.21
1526.15,4406.73
1527.61,4680.57
1529.06,4941.09
1530.51,5331.31
1531.96,5707.31
1533.41,6124.08
1534.86,6588.25
1536.32,7081.13
1537.77,7702.59
1539.22,8329.49
1540.67,9165.19
1542.12,10048
1543.58,10969.4
1545.03,12081.6
1546.48,13098.1
1547.93,14269.3
1549.38,15370.6
1550.83,16675.8
1552.29,17993
1553.74,19360.7
1555.19,20637.1
1556.64,21911.3
1558.09,23182.6
1559.54,24438.4
1561,25593.5
1562.45,26655.9
1563.9,27456.9
1565.35,28195.3
1566.8,28680
1568.26,28828.4
1569.71,28734.2
1571.16,27976.4
1572.61,27071
1574.06,26082.7
1575.51,24842.8
1576.97,23355.6
1578.42,21830.8
1579.87,20248
1581.32,18589.2
1582.77,17068.7
1584.23,15628.2
1585.68,14265.3
1587.13,13023.4
1588.58,11801.5
1590.03,10779.1
1591.48,9764.2
1592.94,8988.83
1594.39,8309.49
1595.84,7727.27
1597.29,7191.64
1598.74,6659.29
1600.2,6231.33
1601.65,5868.25
1603.1,5547.12
1604.55,5177.25
1606,4903.52
1607.45,4663.75
1608.91,4391.57
1610.36,4157.45
1611.81,3890.88
1613.26,3691.6
1614.71,3502.46
1616.16,3321.57
1617.62,3150.5
1619.07,3048.09
1620.52,2908.67
1621.97,2801.33
1623.42,2706
1624.88,2592.14
1626.33,2490.21
1627.78,2425.61
1629.23,2354.75
1630.68,2246.3
1632.13,2171.4
1633.59,2098.61
1635.04,2043.93
1636.49,1962.07
1637.94,1927.82
1639.39,1885.53
1640.85,1888.52
1642.3,1829.62
1643.75,1795.98
1645.2,1733.85
1646.65,1688.48
1648.1,1650.12
1649.56,1620.32
1651.01,1606.06
1652.46,1597.95
1653.91,1557.61
1655.36,1515.34
1656.81,1506.46
1658.27,1515.31
1659.72,1506.19
1661.17,1459.7
1662.62,1430.43
1664.07,1414.58
1665.53,1402
1666.98,1329.46
1668.43,1348.3
1669.88,1337.95
1671.33,1282.05
1672.78,1283.39
1674.24,1293.89
1675.69,1286.06
1677.14,1254.7
1678.59,1231.04
1680.04,1247.8
1681.5,1237.81
1682.95,1220.97
1684.4,1208.92
1685.85,1185.74
1687.3,1188.44
1688.75,1187.99
1690.21,1145.2
1691.66,1164.58
1693.11,1111.85
1694.56,1140.66
1696.01,1104.54
1697.46,1119.91
1698.92,1079.91
1700.37,1081.52
1701.82,1093.93
1703.27,1086.18
1704.72,1050.16
1706.18,1060.56
1707.63,1092.51
1709.08,1077.06
1710.53,1060.56
1711.98,1062.29
1713.43,1047.83
1714.89,1051.79
1716.34,1040.92
1717.79,1073.07
1719.24,1057.4
1720.69,1043.79
1722.15,1049.2
1723.6,1041.82
1725.05,1059.8
1726.5,1060.89
1727.95,1057.78
1729.4,1039.36
1730.86,1035.85
1732.31,1030.64
1733.76,1015.22
1735.21,1035.31
1736.66,1048.98
1738.11,1031.33
1739.57,1019.21
1741.02,1026.62
1742.47,1031.91
1743.92,1009.62
1745.37,985.196
1746.83,995.416
1748.28,1028.2
1749.73,1020.64
1751.18,1019.47
1752.63,978.521
1754.08,1012.43
1755.54,1000.26
1756.99,963.296
1758.44,977.501
1759.89,969.666
1761.34,947.488
1762.8,962.087
1764.25,947.729
1765.7,940.772
1767.15,936.604
1768.6,922.896
1770.05,908.742
1771.51,900.964
1772.96,910.003
1774.41,909.349
1775.86,903.72
1777.31,907.503
1778.76,896.482
1780.22,894.698
1781.67,880.785
1783.12,880.283
1784.57,890.022
1786.02,885.143
1787.48,896.643
1788.93,888.673
1790.38,861.218
1791.83,855.501
1793.28,882.392
1794.73,852.345
1796.19,868.244
1797.64,855.328
1799.09,876.977
1800.54,855.031
1801.99,859.011
1803.45,852.048
1804.9,839.861
1806.35,836.168
1807.8,841.128
1809.25,847.85
1810.7,839.939
1812.16,844.104
1813.61,842.387
1815.06,821.132
1816.51,821.54
1817.96,828.015
1819.41,821.18
1820.87,816.809
1822.32,827.232
1823.77,835.036
1825.22,818.175
1826.67,810.225
1828.13,848.326
1829.58,841.482
1831.03,842.561
1832.48,838.717
1833.93,837.741
1835.38,842.045
1836.84,846.984
1838.29,839.583
1839.74,833.614
1841.19,871.204
1842.64,850.644
1844.1,838.05
1845.55,848.268
1847,855.129
1848.45,868.774
1849.9,863.241
1851.35,865.967
1852.81,862.48
1854.26,866.76
1855.71,857.657
1857.16,858.608
1858.61,888.787
1860.07,862.144
1861.52,876.341
1862.97,889.665
1864.42,876.436
1865.87,877.383
1867.32,888.069
1868.78,877.5
1870.23,874.349
1871.68,852.227
1873.13,881.326
1874.58,864.598
1876.03,876.039
1877.49,879.381
1878.94,839.044
1880.39,840.124
1881.84,826.189
1883.29,837.122
1884.75,851.398
1886.2,814.561
1887.65,787.342
1889.1,810.766
1890.55,827.073
1892,819.056
1893.46,806.129
1894.91,796.858
1896.36,801.314
1897.81,810.7
1899.26,799.817
1900.72,779.143
1902.17,782.227
1903.62,792.729
1905.07,802.103
1906.52,791.092
1907.97,775.516
1909.43,780
1910.88,781.831
1912.33,775.85
1913.78,768.064
1915.23,748.585
1916.68,755.46
1918.14,752.115
1919.59,745.725
1921.04,741.296
1922.49,763.267
1923.94,754.505
1925.4,737.016
1926.85,766.732
1928.3,757.791
1929.75,738.523
1931.2,767.449
1932.65,761.588
1934.11,735.515
1935.56,764.707
1937.01,739.833
1938.46,754.587
1939.91,765.763
1941.37,762.306
1942.82,754.389
1944.27,764.779
1945.72,762.511
1947.17,770.57
1948.62,766.323
1950.08,779.012
1951.53,764.813
1952.98,762.486
1954.43,774.362
1955.88,774.39
1957.33,766.848
1958.79,768.576
1960.24,775.353
1961.69,772.477
1963.14,771.593
1964.59,768.118
1966.05,768.663
1967.5,782.215
1968.95,789.145
1970.4,784.426
1971.85,784.901
1973.3,782.149
1974.76,784.632
1976.21,790.211
1977.66,809.643
1979.11,800.641
1980.56,797.333
1982.02,795.044
1983.47,783.621
1984.92,782.014
1986.37,800.937
1987.82,824.634
1989.27,810.941
1990.73,783.643
1992.18,794.835
1993.63,805.534
1995.08,809.85
1996.53,807.891
1997.98,811.108
1999.44,788.416
2000.89,766.007
2002.34,767.689
2003.79,758.824
2005.24,794.213
2006.7,781.982
2008.15,803.354
2009.6,774.612
2011.05,759.838
2012.5,780.499
2013.95,785.051
2015.41,780.534
2016.86,763.715
2018.31,762.172
2019.76,775.797
2021.21,751.227
2022.67,758.785
2024.12,763.785
2025.57,731.965
2027.02,730.514
2028.47,755.073
2029.92,749.958
2031.38,752.849
2032.83,750.876
2034.28,716.808
2035.73,732.051
2037.18,725.17
2038.63,725.244
2040.09,696.898
2041.54,709.017
2042.99,716.033
2044.44,710.59
2045.89,703.446
2047.35,712.343
2048.8,700.464
2050.25,710.475
2051.7,712.117
2053.15,692.745
2054.6,687.359
2056.06,694.067
2057.51,693.314
2058.96,678.382
2060.41,677.012
2061.86,672.003
2063.32,686.681
2064.77,682.837
2066.22,677.313
2067.67,676.2
2069.12,668.888
2070.57,683.334
2072.03,680.873
2073.48,686.033
2074.93,697.58
2076.38,686.151
2077.83,664.949
2079.28,667.992
2080.74,675.951
2082.19,675.608
2083.64,677.617
2085.09,681.474
2086.54,667.45
2088,663.175
2089.45,674.114
2090.9,665.755
2092.35,666.406
2093.8,649.848
2095.25,648.198
2096.71,654.262
2098.16,651.865
2099.61,651.103
2101.06,658.42
2102.51,647.883
2103.97,655.356
2105.42,659.388
2106.87,637.964
2108.32,641.278
2109.77,643.428
2111.22,646.66
2112.68,666.284
2114.13,669.69
2115.58,654.281
2117.03,664.36
2118.48,664.244
2119.94,667.435
2121.39,668.317
2122.84,668.346
2124.29,677.593
2125.74,678.305
2127.19,667.413
2128.65,660.224
2130.1,665.808
2131.55,679.579
2133,687.814
2134.45,677.56
2135.9,702.138
2137.36,690.006
2138.81,665.87
2140.26,672.082
2141.71,677.853
2143.16,667.123
2144.62,668.005
2146.07,677.972
2147.52,684.898
2148.97,691.468
2150.42,688.608
2151.87,681.155
2153.33,686.075
2154.78,676.518
2156.23,688.096
2157.68,700.472
2159.13,686.375
2160.58,700.171
2162.04,705.823
2163.49,712.461
2164.94,692.774
2166.39,687.42
2167.84,702.972
2169.3,713.593
2170.75,712.245
2172.2,718.37
2173.65,719.919
2175.1,709.806
2176.55,713.461
2178.01,710.723
2179.46,722.602
2180.91,710.919
2182.36,727.486
2183.81,725.211
2185.27,711.016
2186.72,712.769
2188.17,709.537
2189.62,714.656
2191.07,723.402
2192.52,743.011
2193.98,722.294
2195.43,738.451
2196.88,741.953
2198.33,717.739
2199.78,725.021
2201.24,721.506
2202.69,748.121
2204.14,735.395
2205.59,692.885
2207.04,714.646
2208.49,737.097
2209.95,740.9
2211.4,739.589
2212.85,738.22
2214.3,743.125
2215.75,739.643
2217.2,727.304
2218.66,744.612
2220.11,720.673
2221.56,766.535
2223.01,738.929
2224.46,733.233
2225.92,719.358
2227.37,749.265
2228.82,738.593
2230.27,755.2
2231.72,747.577
2233.17,749.09
2234.63,753.486
2236.08,736.385
2237.53,750.666
2238.98,749.797
2240.43,726.118
2241.89,741.598
2243.34,753.105
2244.79,747.632
2246.24,747.031
2247.69,747.478
2249.14,755.462
2250.6,769.345
2252.05,769.276
2253.5,769.367
2254.95,778.584
2256.4,770.165
2257.85,770.316
2259.31,771.37
2260.76,782.377
2262.21,774.734
2263.66,781.993
2265.11,771.932
2266.57,762.953
2268.02,755.161
2269.47,775.778
2270.92,777.881
2272.37,798.902
2273.82,793.302
2275.28,790.641
2276.73,780.628
2278.18,783.906
2279.63,819.125
2281.08,813.263
2282.54,770.625
2283.99,793.035
2285.44,796.565
2286.89,795.222
2288.34,800.608
2289.79,822.551
2291.25,813.275
2292.7,822.352
2294.15,808.762
2295.6,807.815
2297.05,809.484
2298.5,838.012
2299.96,806.764
2301.41,816.859
2302.86,830.544
2304.31,831.411
2305.76,845.215
2307.22,854.557
2308.67,862.866
2310.12,838.114
2311.57,834.175
2313.02,849.856
2314.47,845.379
2315.93,900.756
2317.38,890.806
2318.83,877.955
2320.28,856.042
2321.73,876.568
2323.19,884.545
2324.64,881.274
2326.09,878.361
2327.54,884.476
2328.99,889.787
2330.44,869.869
2331.9,873.197
2333.35,891.451
2334.8,891.728
2336.25,897.732
2337.7,904.669
2339.16,887.611
2340.61,890.491
2342.06,912.506
2343.51,936.056
2344.96,950.844
2346.41,943.095
2347.87,935.768
2349.32,924.977
2350.77,930.681
2352.22,920.396
2353.67,935.9
2355.12,956.752
2356.58,976.803
2358.03,955.137
2359.48,976.033
2360.93,974.493
2362.38,986.632
2363.84,1014.01
2365.29,1034.69
2366.74,1024.78
2368.19,1017.41
2369.64,1041.16
2371.09,1043.22
2372.55,1043.96
2374,1042.9
2375.45,1052.19
2376.9,1076.82
2378.35,1097.36
2379.8,1111.43
2381.26,1137.02
2382.71,1143.5
2384.16,1135.77
2385.61,1149.65
2387.06,1179.11
2388.52,1185.93
2389.97,1221.54
2391.42,1253.95
2392.87,1240.03
2394.32,1274.07
2395.77,1278.94
2397.23,1307.26
2398.68,1317.32
2400.13,1341.38
2401.58,1417.56
2403.03,1412.75
2404.49,1436.86
2405.94,1485.4
2407.39,1487.47
2408.84,1539.64
2410.29,1541.07
2411.74,1560.69
2413.2,1591.03
2414.65,1589.47
2416.1,1624.19
2417.55,1666.33
2419,1703.57
2420.46,1732.07
2421.91,1733.24
2423.36,1720.12
2424.81,1725.15
2426.26,1729
2427.71,1764.29
2429.17,1781.46
2430.62,1765.36
2432.07,1808.21
2433.52,1787.38
2434.97,1827.18
2436.42,1779.43
2437.88,1811.3
2439.33,1788.71
2440.78,1748.28
2442.23,1770.2
2443.68,1772.43
2445.14,1774.67
2446.59,1740.33
2448.04,1717.4
2449.49,1707.93
2450.94,1688.47
2452.39,1680.76
2453.85,1689.91
2455.3,1679.09
2456.75,1678.25
2458.2,1638.22
2459.65,1642.39
2461.1,1630.89
2462.56,1637.55
2464.01,1601.25
2465.46,1615.47
2466.91,1579.47
2468.36,1576.01
2469.82,1545.08
2471.27,1581.38
2472.72,1566.01
2474.17,1553.45
2475.62,1562.5
2477.07,1533.61
2478.53,1539.42
2479.98,1531.46
2481.43,1536.83
2482.88,1547.62
2484.33,1548.32
2485.79,1536.46
2487.24,1519.76
2488.69,1567.88
2490.14,1550.24
2491.59,1562.14
2493.04,1533.13
2494.5,1532.68
2495.95,1539.83
2497.4,1535.73
2498.85,1545.29
2500.3,1551.57
2501.76,1565.52
2503.21,1541.44
2504.66,1587.78
2506.11,1551.59
2507.56,1605.78
2509.01,1612.17
2510.47,1600.23
2511.92,1600.7
2513.37,1590.56
2514.82,1591.16
2516.27,1605.21
2517.72,1618.34
2519.18,1650.73
2520.63,1665.83
2522.08,1701.16
2523.53,1671.83
2524.98,1709.21
2526.44,1705.42
2527.89,1720.1
2529.34,1709.29
2530.79,1732.98
2532.24,1776.63
2533.69,1785.61
2535.15,1778.35
2536.6,1829.92
2538.05,1839.16
2539.5,1869.59
2540.95,1846.4
2542.41,1878.15
2543.86,1937.51
2545.31,1977.23
2546.76,1960.61
2548.21,1988.66
2549.66,2031.55
2551.12,2064.68
2552.57,2122.91
2554.02,2143.91
2555.47,2144.57
2556.92,2183.58
2558.37,2218.55
2559.83,2283.16
2561.28,2282.69
2562.73,2296.24
2564.18,2358.53
2565.63,2426.16
2567.09,2442.36
2568.54,2517.62
2569.99,2565.49
2571.44,2635.01
2572.89,2677.02
2574.34,2728.51
2575.8,2832.45
2577.25,2810.22
2578.7,2894.16
2580.15,2993.26
2581.6,3038.79
2583.06,3111
2584.51,3252.08
2585.96,3283.14
2587.41,3397.66
2588.86,3486.42
2590.31,3586.84
2591.77,3760.08
2593.22,3819.99
2594.67,3912.66
2596.12,4062.12
2597.57,4184.95
2599.02,4359.01
2600.48,4488.12
2601.93,4562.3
2603.38,4750.89
2604.83,4896.85
2606.28,5052.72
2607.74,5306.74
2609.19,5481.78
2610.64,5667.03
2612.09,5868.54
2613.54,6043.87
2614.99,6327.76
2616.45,6617
2617.9,6882.15
2619.35,7096.5
2620.8,7383.9
2622.25,7699.99
2623.71,8012.95
2625.16,8409.34
2626.61,8699.02
2628.06,9022.09
2629.51,9386.09
2630.96,9684.2
2632.42,10080.5
2633.87,10508.8
2635.32,10750.7
2636.77,11188.6
2638.22,11590.2
2639.68,11897.5
2641.13,12243.3
2642.58,12607
2644.03,12912.5
2645.48,13248.1
2646.93,13585.5
2648.39,13948.3
2649.84,14003.8
2651.29,14111.6
2652.74,14458.5
2654.19,14720
2655.64,14723.2
2657.1,14936.4
2658.55,14985.2
2660,15000.1
2661.45,14943.6
2662.9,14850.1
2664.36,14728.4
2665.81,14640.8
2667.26,14479.9
2668.71,14317.5
2670.16,14158.1
2671.61,13809.4
2673.07,13526.2
2674.52,13214.4
2675.97,12924.4
2677.42,12526.1
2678.87,12174.9
2680.32,11780.4
2681.78,11412.8
2683.23,11025.4
2684.68,10660.3
2686.13,10276.6
2687.58,9839.71
2689.04,9509.44
2690.49,9231.49
2691.94,8857.62
2693.39,8457.36
2694.84,8131.52
2696.29,7741.08
2697.75,7405.48
2699.2,7130.65
2700.65,6803.7
2702.1,6537.89
2703.55,6223.26
2705.01,5922.66
2706.46,5747.58
2707.91,5532.83
2709.36,5296.81
2710.81,5054.56
2712.26,4862.18
2713.72,4621.26
2715.17,4460.84
2716.62,4248.62
2718.07,4122.98
2719.52,4007.27
2720.98,3866.6
2722.43,3697.06
2723.88,3577.01
2725.33,3456.61
2726.78,3283.37
2728.23,3260.04
2729.69,3140.92
2731.14,3046.82
2732.59,2900.68
2734.04,2817.11
2735.49,2748.01
2736.94,2697.59
2738.4,2601.91
2739.85,2551.13
2741.3,2443.62
2742.75,2438.01
2744.2,2407.36
2745.66,2287.48
2747.11,2264
2748.56,2224.42
2750.01,2184.07
2751.46,2152.37
2752.91,2095.5
2754.37,2054.78
2755.82,2024.11
2757.27,1983.39
2758.72,1964.11
2760.17,1923.09
2761.63,1863.51
2763.08,1845.33
2764.53,1835
2765.98,1813.08
2767.43,1758.01
2768.88,1774.65
2770.34,1760.89
2771.79,1707.66
2773.24,1679.98
2774.69,1676.23
2776.14,1634.81
2777.59,1628.46
2779.05,1598.19
2780.5,1615.26
2781.95,1524.9
2783.4,1530.04
2784.85,1517.97
2786.31,1501.27
2787.76,1490.86
2789.21,1498.56
2790.66,1494.3
2792.11,1479.44
2793.56,1443.17
2795.02,1388.55
2796.47,1421.81
2797.92,1407.88
2799.37,1381.83
2800.82,1399.07
2802.28,1396.21
2803.73,1374.06
2805.18,1345.86
2806.63,1336.67
2808.08,1338.37
2809.53,1326.02
2810.99,1346.34
2812.44,1315.46
2813.89,1323.83
2815.34,1290.08
2816.79,1291.3
2818.24,1275.63
2819.7,1270.41
2821.15,1274.95
2822.6,1243.84
2824.05,1231.47
2825.5,1242.57
2826.96,1219.18
2828.41,1222.08
2829.86,1207.33
2831.31,1218.49
2832.76,1206.65
2834.21,1207.3
2835.67,1205.35
2837.12,1198.27
2838.57,1187.44
2840.02,1189.7
2841.47,1194.38
2842.93,1176.67
2844.38,1198.29
2845.83,1198.31
2847.28,1207.28
2848.73,1168.47
2850.18,1167.85
2851.64,1167.69
2853.09,1152.83
2854.54,1167.6
2855.99,1176.86
2857.44,1132.8
2858.9,1145.68
2860.35,1150.45
2861.8,1175.02
2863.25,1165.6
2864.7,1169.43
2866.15,1172.1
2867.61,1168.75
2869.06,1180.79
2870.51,1163.48
2871.96,1195.34
2873.41,1150.98
2874.86,1192.63
2876.32,1158.58
2877.77,1170.34
2879.22,1166.37
2880.67,1164.38
2882.12,1178.99
2883.58,1179.89
2885.03,1193.84
2886.48,1211.46
2887.93,1180.53
2889.38,1197.37
2890.83,1193.72
2892.29,1187.04
2893.74,1195.18
2895.19,1180.29
2896.64,1187.04
2898.09,1211.29
2899.54,1180.37
2901,1198.11
2902.45,1175.04
2903.9,1166.4
2905.35,1149.35
2906.8,1153.9
2908.26,1187.15
2909.71,1192.42
2911.16,1165.8
2912.61,1171.15
2914.06,1152.85
2915.51,1170.5
2916.97,1160.26
2918.42,1122.8
2919.87,1141.48
2921.32,1142.63
2922.77,1114.99
2924.23,1113.69
2925.68,1115.78
2927.13,1104.31
2928.58,1111.21
2930.03,1100.38
2931.48,1081.96
2932.94,1088.51
2934.39,1070.14
2935.84,1064.2
2937.29,1046.26
2938.74,1042.53
2940.2,1057.86
2941.65,1015.85
2943.1,993.48
2944.55,1005.16
2946,1011.14
2947.45,972.105
2948.91,966.862
2950.36,960.477
2951.81,960.627
2953.26,955.841
2954.71,939.774
2956.16,918.582
2957.62,932.556
2959.07,930.688
2960.52,914.53
2961.97,889.561
2963.42,872.567
2964.88,883.65
2966.33,903.135
2967.78,889.616
2969.23,897.04
2970.68,877.548
2972.13,874.498
2973.59,844.074
2975.04,840.59
2976.49,838.751
2977.94,870.471
2979.39,851.412
2980.84,832.433
2982.3,839.258
2983.75,808.801
2985.2,814.941
2986.65,829.11
2988.1,819.039
2989.56,829.068
2991.01,829.895
2992.46,783.028
2993.91,804.219
2995.36,768.945
2996.81,782.969
2998.27,797.684
2999.72,790.574
3001.17,792.329
3002.62,790.637
3004.07,802.191
3005.53,785.55
3006.98,801.466
3008.43,792.258
3009.88,790.923
3011.33,757.29
3012.78,761.295
3014.24,744.18
3015.69,746.168
3017.14,762.918
3018.59,775.178
3020.04,758.499
3021.5,745.91
3022.95,768.671
3024.4,773.964
3025.85,750.452
3027.3,769.527
3028.75,758.983
3030.21,751.816
3031.66,758.392
3033.11,763.677
3034.56,758.285
3036.01,767.68
3037.46,756.609
3038.92,784.898
3040.37,781.805
3041.82,780.702
3043.27,755.179
3044.72,765.122
3046.18,762.18
3047.63,753.281
3049.08,739.815
3050.53,765.047
3051.98,778.518
3053.43,751.388
3054.89,748.16
3056.34,765.565
3057.79,764.736
3059.24,777.145
3060.69,768.726
3062.15,793.848
3063.6,768.439
3065.05,781.297
3066.5,777.325
3067.95,774.313
3069.4,773.846
3070.86,786.409
3072.31,805.256
3073.76,789.332
3075.21,781.136
3076.66,782.336
3078.11,798.737
3079.57,803.994
3081.02,796.226
3082.47,803.931
3083.92,810.207
3085.37,825.025
3086.83,835.661
3088.28,849.283
3089.73,855.927
3091.18,847.302
3092.63,836.899
3094.08,855.077
3095.54,883.771
3096.99,901.544
3098.44,886.803
3099.89,908.062
3101.34,909.007
3102.8,943.909
3104.25,962.513
3105.7,935.874
3107.15,952.337
3108.6,944.806
3110.05,1014.01
3111.51,1006.71
3112.96,1007.92
3114.41,1033.11
3115.86,1057.6
3117.31,1058.9
3118.76,1088.76
3120.22,1095.49
3121.67,1128.66
3123.12,1154.73
3124.57,1146.77
3126.02,1169.82
3127.48,1173.66
3128.93,1203.55
3130.38,1237.49
3131.83,1278.06
3133.28,1246.42
3134.73,1248.21
3136.19,1277.87
3137.64,1310.12
3139.09,1312.13
3140.54,1370.34
3141.99,1331.36
3143.45,1338.1
3144.9,1361.49
3146.35,1360.62
3147.8,1338.22
3149.25,1339.45
3150.7,1364.93
3152.16,1379.1
3153.61,1398.92
3155.06,1394.93
3156.51,1386.38
3157.96,1406.3
3159.42,1410.36
3160.87,1367.27
3162.32,1384.64
3163.77,1427.49
3165.22,1401.65
3166.67,1418.55
3168.13,1422.72
3169.58,1395.27
3171.03,1426.38
3172.48,1430.35
3173.93,1410.52
3175.38,1417.62
3176.84,1403.88
3178.29,1420.17
3179.74,1456.16
3181.19,1468.71
3182.64,1504.93
3184.1,1478.9
3185.55,1488.3
3187,1503.25
3188.45,1532.74
3189.9,1559.62
3191.35,1521.65
3192.81,1575.03
3194.26,1600.48
3195.71,1602.91
3197.16,1603.56
3198.61,1641.59
3200.06,1630.77
3201.52,1582.13
3202.97,1659.37
3204.42,1648.2
3205.87,1646.83
3207.32,1647.59
3208.78,1623.48
3210.23,1612.26
3211.68,1590.93
3213.13,1594.24
3214.58,1542.6
3216.03,1528.85
3217.49,1501.2
3218.94,1485.8
3220.39,1460.16
3221.84,1405
3223.29,1369.59
3224.75,1347.79
3226.2,1301.78
3227.65,1274.11
3229.1,1279.83
3230.55,1163.43
3232,1187.81
3233.46,1122.57
3234.91,1103.12
3236.36,1067.49
3237.81,1046.13
3239.26,1014.54
3240.72,990.476
3242.17,935.556
3243.62,910.915
3245.07,901.383
3246.52,892.599
3247.97,896.618
3249.43,869.784
3250.88,856
3252.33,816.309
3253.78,813.718
3255.23,795.129
3256.68,769.96
3258.14,783.124
3259.59,777.495
3261.04,741.821
3262.49,737.976
3263.94,736.28
3265.4,745.291
3266.85,732.135
3268.3,707.385
3269.75,700.932
3271.2,712.031
3272.65,699.608
3274.11,686.675
3275.56,670.358
3277.01,662.399
3278.46,671.526
3279.91,670.918
3281.37,672.589
3282.82,684.815
3284.27,700.084
3285.72,660.367
3287.17,679.558
3288.62,671.47
3290.08,668.412
3291.53,659.914
3292.98,643.232
3294.43,649.113
3295.88,640.45
3297.33,624.002
3298.79,648.085
3300.24,638.919
3301.69,643.327
3303.14,644
3304.59,645.344
3306.05,638.962
3307.5,630.507
3308.95,635.085
3310.4,627.278
3311.85,633.265
3313.3,635.12
3314.76,631.749
3316.21,625.301
3317.66,632.138
3319.11,616.45
3320.56,636.577
3322.02,640.372
3323.47,636.876
3324.92,639.773
3326.37,643.026
3327.82,631.707
3329.27,601.295
3330.73,627.419
3332.18,608.898
3333.63,622.505
3335.08,642.799
3336.53,602.254
3337.98,621
3339.44,619.389
3340.89,626.627
3342.34,633.777
3343.79,626.368
3345.24,633.035
3346.7,634.851
3348.15,636.904
3349.6,608.075
3351.05,594.496
3352.5,608.309
3353.95,612.146
3355.41,621.882
3356.86,604.634
3358.31,633.481
3359.76,629.945
3361.21,634.072
3362.67,596.808
3364.12,591.3
3365.57,624.83
3367.02,605.391
3368.47,608.35
3369.92,616.493
3371.38,596.263
3372.83,608.874
3374.28,605.723
3375.73,619.536
3377.18,616.796
3378.63,627.182
3380.09,647.687
3381.54,610.575
3382.99,609.094
3384.44,619.159
3385.89,610.91
3387.35,603.51
3388.8,614.651
3390.25,610.702
3391.7,596.341
3393.15,615.77
3394.6,617.761
3396.06,605.574
3397.51,620.409
3398.96,599.962
3400.41,607.207
3401.86,601.443
3403.32,609.246
3404.77,613.56
3406.22,603.724
3407.67,606.24
3409.12,608.592
3410.57,598.973
3412.03,590.96
3413.48,587.009
3414.93,607.834
3416.38,600.168
3417.83,604.9
3419.28,598.471
3420.74,619.788
3422.19,592.075
3423.64,597.502
3425.09,595.803
3426.54,619.535
3428,624.334
3429.45,612.161
3430.9,574.932
3432.35,587.773
3433.8,579.149
3435.25,601.486
3436.71,591.821
3438.16,605.182
3439.61,590.211
3441.06,603.645
3442.51,602.126
3443.97,611.046
3445.42,585.179
3446.87,596.332
3448.32,589.658
3449.77,600.352
3451.22,591.76
3452.68,608.61
3454.13,597.604
3455.58,617.399
3457.03,601.707
3458.48,582.095
3459.94,604.394
3461.39,583.679
3462.84,601.902
3464.29,588.262
3465.74,589.256
3467.19,590.784
3468.65,587.125
3470.1,603.623
3471.55,612.046
3473,607.474
3474.45,597.364
3475.9,616.978
3477.36,595.598
3478.81,597.659
3480.26,590.342
3481.71,592.39
3483.16,600.834
3484.62,602.42
3486.07,586.225
3487.52,602.78
3488.97,591.074
3490.42,599.979
3491.87,599.678
3493.33,600.621
3494.78,604.862
3496.23,620.691
3497.68,604.563
3499.13,593.525
3500.58,580.711
3502.04,597.103
3503.49,618.348
3504.94,600.791
3506.39,616.661
3507.84,624.663
3509.3,604.199
3510.75,590.661
3512.2,610.663
3513.65,604.264
3515.1,594.229
3516.55,585.89
3518.01,586.701
3519.46,601.783
3520.91,590.547
3522.36,596.536
3523.81,608.547
3525.27,621.098
3526.72,600.932
3528.17,608.487
3529.62,605.003
3531.07,591.806
3532.52,618.145
3533.98,596.556
3535.43,601.846
3536.88,582.883
3538.33,590.261
3539.78,586.085
3541.24,593.342
3542.69,592.146
3544.14,583.44
3545.59,591.37
3547.04,610.576
3548.49,608.999
3549.95,591.475
3551.4,609.535
3552.85,591.756
3554.3,603.015
3555.75,587.012
3557.2,615.479
3558.66,596.663
3560.11,611.26
3561.56,591.349
3563.01,579.612
3564.46,592.743
3565.92,593.309
3567.37,598.082
3568.82,601.855
3570.27,587.023
3571.72,600.125
3573.17,592.427
3574.63,599.829
3576.08,572.928
3577.53,608.451
3578.98,595.824
3580.43,587.129
3581.89,597.715
3583.34,603.069
3584.79,594.466
3586.24,595.195
3587.69,592.356
3589.14,598.93
3590.6,582.599
3592.05,580.229
3593.5,583.104
3594.95,594.391
3596.4,577.883
3597.85,595.08
3599.31,582.196
3600.76,601.558
3602.21,583.449
3603.66,604.468
3605.11,598.157
3606.57,600.776
3608.02,601.276
3609.47,593.322
3610.92,577.993
3612.37,597.397
3613.82,598.705
3615.28,589.248
3616.73,605.424
3618.18,607.508
3619.63,591.243
3621.08,576.653
3622.54,602.709
3623.99,589.88
3625.44,599.555
3626.89,576.995
3628.34,582.948
3629.79,574.327
3631.25,610.857
3632.7,592.408
3634.15,598.031
3635.6,595.302
3637.05,605.173
3638.5,583.745
3639.96,583.002
3641.41,582.84
3642.86,598.938
3644.31,579.754
3645.76,602.018
3647.22,578.89
3648.67,604.582
3650.12,605.238
3651.57,569.671
3653.02,603.731
3654.47,594.287
3655.93,596.458
3657.38,596.357
3658.83,591.695
3660.28,588.298
3661.73,599.173
3663.19,584.209
3664.64,608.787
3666.09,591.337
3667.54,605.208
3668.99,609.493
3670.44,597.003
3671.9,595.889
3673.35,589.066
3674.8,586.299
3676.25,559.199
3677.7,581.722
3679.16,597.744
3680.61,623.115
3682.06,610.311
3683.51,595.339
3684.96,642.759
3686.41,593.265
3687.87,616.499
3689.32,600.342
3690.77,611.057
3692.22,606.726
3693.67,603.949
3695.12,599.482
3696.58,594.177
3698.03,608.4
3699.48,586.02
3700.93,605.534
3702.38,605.66
3703.84,620.381
3705.29,623.284
3706.74,590.663
3708.19,600.576
3709.64,592.154
3711.09,610.312
3712.55,595.345
3714,607.954
3715.45,613.613
3716.9,607.824
3718.35,608.939
3719.8,581.978
3721.26,595.026
3722.71,610.019
3724.16,621.928
3725.61,605.876
3727.06,597.42
3728.52,628.915
3729.97,618.869
3731.42,627.12
3732.87,622.964
3734.32,629.231
3735.77,588.616
3737.23,617.47
3738.68,617.205
3740.13,612.9
3741.58,633.673
3743.03,605.863
3744.49,601.204
3745.94,604.985
3747.39,623.385
3748.84,632.138
3750.29,611.796
3751.74,614.358
3753.2,598.379
3754.65,627.878
3756.1,611.679
3757.55,609.166
3759,622.431
3760.46,611.014
3761.91,620.307
3763.36,633.071
3764.81,601.84
3766.26,602.954
3767.71,629.756
3769.17,617.573
3770.62,611.408
3772.07,615.992
3773.52,605.779
3774.97,627.263
3776.42,613.754
3777.88,620.789
3779.33,628.387
3780.78,623.893
3782.23,627.864
3783.68,630.367
3785.14,620.234
3786.59,624.602
3788.04,614.853
3789.49,631.774
3790.94,619.69
3792.39,615.585
3793.85,634.179
3795.3,634.129
3796.75,632.726
3798.2,645.03
3799.65,633
3801.1,645.722
3802.56,638.281
3804.01,630.331
3805.46,631.562
3806.91,643.67
3808.36,628.277
3809.82,642.713
3811.27,641.958
3812.72,619.824
3814.17,639.77
3815.62,633.04
3817.07,639.434
3818.53,629.422
3819.98,646.664
3821.43,626.441
3822.88,626.663
3824.33,638.929
3825.79,637.818
3827.24,644.794
3828.69,645.914
3830.14,622.395
3831.59,647.209
3833.04,643.892
3834.5,622.578
3835.95,620.315
3837.4,646.041
3838.85,657.984
3840.3,632.202
3841.76,651.958
3843.21,650.151
3844.66,658.241
3846.11,639.632
3847.56,644.317
3849.01,642.318
3850.47,626.542
3851.92,642.721
3853.37,647.556
3854.82,657.6
3856.27,658.145
3857.72,663.985
3859.18,658.2
3860.63,645.44
3862.08,655.742
3863.53,653.137
3864.98,683.507
3866.44,681.771
3867.89,665.221
3869.34,653.805
3870.79,657.661
3872.24,669.51
3873.69,664.639
3875.15,654.412
3876.6,657.711
3878.05,661.414
3879.5,652.681
3880.95,665.252
3882.41,654.644
3883.86,655.309
3885.31,672.156
3886.76,683.086
3888.21,687.714
3889.66,675.466
3891.12,684.685
3892.57,678.529
3894.02,683.022
3895.47,688.715
3896.92,678.032
3898.37,683.679
3899.83,654.598
3901.28,684.185
3902.73,688.046
3904.18,686.024
3905.63,691.891
3907.09,700.927
3908.54,678.595
3909.99,686.451
3911.44,702.425
3912.89,701.02
3914.34,701.16
3915.8,681.728
3917.25,683.635
3918.7,724.179
3920.15,702.676
3921.6,711.005
3923.06,685.74
3924.51,702.444
3925.96,709.117
3927.41,697.267
3928.86,726.914
3930.31,711.439
3931.77,712.334
3933.22,696.205
3934.67,706.254
3936.12,704.611
3937.57,742.922
3939.02,736.173
3940.48,713.231
3941.93,746.413
3943.38,740.243
3944.83,727.271
3946.28,756.735
3947.74,745.062
3949.19,717.766
3950.64,736.258
3952.09,731.156
3953.54,740.253
3954.99,748.167
3956.45,735.716
3957.9,741.362
3959.35,753.133
3960.8,766.609
3962.25,748.711
3963.71,737.992
3965.16,737.271
3966.61,751.537
3968.06,759.438
3969.51,760.054
3970.96,754.535
3972.42,766.595
3973.87,779.941
3975.32,756.673
3976.77,752.382
3978.22,778.711
3979.68,796.352
3981.13,785.032
3982.58,775.882
3984.03,778.395
3985.48,788.147
3986.93,799.646
3988.39,776.455
3989.84,772.905
3991.29,808.389
3992.74,784.875
3994.19,802.95
3995.64,805.609
3997.1,812.772
3998.55,793.075
4000,822.865
