-20,76.2516
-18.5482,73.8714
-17.0964,75.9363
-15.6446,82.1002
-14.1928,81.9782
-12.7411,81.3025
-11.2893,85.5153
-9.83749,94.9597
-8.3857,93.7046
-6.93391,114.107
-5.48212,342.004
-4.03034,3430.28
-2.57855,13050.3
-1.12676,34962.6
0.325027,39883.8
1.77681,36037.6
3.2286,14902.3
4.68039,4459.08
6.13218,917.921
7.58397,164.684
9.03575,114.358
10.4875,109.733
11.9393,103.281
13.3911,102.846
14.8429,101.775
16.2947,98.2983
17.7465,93.717
19.1983,89.171
20.6501,89.8192
22.1018,89.4649
23.5536,82.8813
25.0054,85.8042
26.4572,82.1046
27.909,76.9155
29.3608,76.3714
30.8126,75.211
32.2644,78.5224
33.7161,77.3774
35.1679,76.7196
36.6197,79.0865
38.0715,74.5292
39.5233,76.3716
40.9751,78.5148
42.4269,78.5411
43.8787,81.215
45.3304,87.5359
46.7822,100.244
48.234,124.121
49.6858,170.171
51.1376,253.832
52.5894,419.627
54.0412,690.244
55.493,1054.02
56.9447,1483.58
58.3965,1945.51
59.8483,2373.03
61.3001,2761.9
62.7519,3104.06
64.2037,3368.81
65.6555,3519.82
67.1073,3670.44
68.559,3803.15
70.0108,3899.8
71.4626,3957.14
72.9144,3995.36
74.3662,3996.47
75.818,3969.14
77.2698,3977.3
78.7216,4008.67
80.1733,4052.02
81.6251,4124.16
83.0769,4203.51
84.5287,4312.53
85.9805,4363.77
87.4323,4371.51
88.8841,4374.63
90.3359,4330.71
91.7877,4219.71
93.2394,4159.08
94.6912,3946.96
96.143,3794.79
97.5948,3652.22
99.0466,3446.74
100.498,3308.73
101.95,3181.39
103.402,3076.88
104.854,2993.1
106.306,2903.96
107.757,2903.17
109.209,2865.18
110.661,2801.89
112.113,2717.57
113.564,2636.81
115.016,2606.1
116.468,2543.25
117.92,2484.98
119.372,2409.09
120.823,2317.97
122.275,2308.93
123.727,2286.27
125.179,2247.04
126.631,2186.32
128.082,2134.92
129.534,2112.71
130.986,2128.27
132.438,2149.25
133.889,2129.97
135.341,2061.36
136.793,2057.81
138.245,1996.78
139.697,1921.06
141.148,1906.38
142.6,1843.06
144.052,1798.48
145.504,1767.89
146.956,1729.67
148.407,1672.4
149.859,1685.98
151.311,1651.02
152.763,1630.7
154.215,1622.4
155.666,1592.94
157.118,1598.73
158.57,1593.29
160.022,1578.81
161.473,1576.06
162.925,1573.03
164.377,1558.14
165.829,1568.66
167.281,1591.42
168.732,1603.45
170.184,1548.03
171.636,1535.67
173.088,1514.17
174.54,1486.96
175.991,1462.73
177.443,1416.92
178.895,1410.55
180.347,1390.17
181.798,1383.14
183.25,1381.91
184.702,1348.17
186.154,1343.97
187.606,1331.64
189.057,1317.52
190.509,1297.58
191.961,1277.22
193.413,1258.21
194.865,1265.79
196.316,1262.72
197.768,1242.83
199.22,1223.47
200.672,1232.6
202.124,1216.05
203.575,1216.31
205.027,1230.27
206.479,1180.41
207.931,1188.07
209.382,1180.73
210.834,1181.74
212.286,1198.56
213.738,1191.98
215.19,1164.3
216.641,1168.9
218.093,1176.51
219.545,1182.23
220.997,1195.06
222.449,1177.82
223.9,1180.04
225.352,1168.59
226.804,1152.38
228.256,1169.62
229.707,1158.59
231.159,1138.29
232.611,1128.32
234.063,1135.74
235.515,1138.39
236.966,1129.92
238.418,1138.47
239.87,1136.7
241.322,1141.43
242.774,1155.44
244.225,1130.27
245.677,1134.79
247.129,1133.13
248.581,1122.46
250.033,1101.66
251.484,1082.16
252.936,1094.53
254.388,1111.2
255.84,1107.58
257.291,1096.89
258.743,1108.43
260.195,1100.41
261.647,1094.86
263.099,1096.06
264.55,1107.18
266.002,1093.98
267.454,1090.78
268.906,1064.26
270.358,1044.01
271.809,1054.42
273.261,1044.42
274.713,1055.04
276.165,1049.68
277.616,1042.18
279.068,1037.88
280.52,1023.45
281.972,1005.62
283.424,1009.09
284.875,1000.52
286.327,980.131
287.779,970.534
289.231,971.509
290.683,977.709
292.134,969.732
293.586,959.333
295.038,964.056
296.49,944.536
297.941,934.828
299.393,945.52
300.845,949.401
302.297,923.845
303.749,916.861
305.2,930.733
306.652,921.1
308.104,909.839
309.556,907.261
311.008,892.689
312.459,900.909
313.911,897.665
315.363,893.034
316.815,890.245
318.267,889.612
319.718,856.655
321.17,872.181
322.622,868.658
324.074,856.99
325.525,871.217
326.977,859.205
328.429,877.325
329.881,869.882
331.333,858.295
332.784,866.31
334.236,860.053
335.688,850.513
337.14,844.819
338.592,839.216
340.043,839.722
341.495,870.261
342.947,847.603
344.399,844.597
345.85,845.419
347.302,846.847
348.754,835.805
350.206,852.202
351.658,835.505
353.109,828.723
354.561,828.442
356.013,831.007
357.465,826.908
358.917,823.745
360.368,827.594
361.82,831.561
363.272,824.835
364.724,823.518
366.176,829.488
367.627,816.246
369.079,803.665
370.531,800.465
371.983,804.016
373.434,808.184
374.886,810.109
376.338,809.814
377.79,810.58
379.242,810.518
380.693,804.311
382.145,814.388
383.597,814.199
385.049,806.722
386.501,808.726
387.952,816.775
389.404,824.454
390.856,805.59
392.308,792.122
393.759,790.044
395.211,797.542
396.663,810.918
398.115,798.867
399.567,790.215
401.018,790.714
402.47,797.619
403.922,801.136
405.374,819.502
406.826,806.841
408.277,812.689
409.729,810.928
411.181,796.103
412.633,816.242
414.085,794.275
415.536,784.027
416.988,790.63
418.44,803.421
419.892,822.868
421.343,813.872
422.795,808.255
424.247,790.024
425.699,783.323
427.151,796.393
428.602,802.214
430.054,766.79
431.506,802.702
432.958,818.082
434.41,796.79
435.861,775.329
437.313,794.683
438.765,778.273
440.217,785.201
441.668,782.226
443.12,766.976
444.572,769.789
446.024,776.878
447.476,765.454
448.927,761.056
450.379,767.437
451.831,794.384
453.283,814.63
454.735,785.48
456.186,788.323
457.638,786.965
459.09,777.99
460.542,786.749
461.993,777.908
463.445,775.174
464.897,773.734
466.349,788.039
467.801,804.549
469.252,784.295
470.704,784.72
472.156,797.519
473.608,790.478
475.06,797.522
476.511,817.744
477.963,779.14
479.415,780.791
480.867,774.92
482.319,791.002
483.77,802.383
485.222,787.127
486.674,761.73
488.126,764.348
489.577,770.713
491.029,789.019
492.481,793.64
493.933,764.334
495.385,771.97
496.836,757.489
498.288,748.09
499.74,761.233
501.192,777.175
502.644,752.661
504.095,746.076
505.547,763.335
506.999,769.053
508.451,758.199
509.902,741.14
511.354,747.094
512.806,743.851
514.258,742.205
515.71,761.927
517.161,769.477
518.613,748.804
520.065,733.231
521.517,734.542
522.969,753.635
524.42,757.814
525.872,750.441
527.324,727.057
528.776,722.063
530.228,741.462
531.679,740.891
533.131,748.404
534.583,754.282
536.035,740.788
537.486,743.11
538.938,746.768
540.39,741.118
541.842,742.664
543.294,741.252
544.745,745.418
546.197,731.776
547.649,740.25
549.101,743.393
550.553,740.926
552.004,740.588
553.456,750.163
554.908,748.107
556.36,769.153
557.811,748.622
559.263,742.908
560.715,746.974
562.167,730.099
563.619,740.79
565.07,737.75
566.522,732.192
567.974,737.279
569.426,752.603
570.878,752.682
572.329,756.939
573.781,734.724
575.233,742.051
576.685,748.196
578.137,743.871
579.588,730.067
581.04,758.206
582.492,735.528
583.944,728.305
585.395,740.104
586.847,755.3
588.299,754.57
589.751,718.44
591.203,731.527
592.654,734.023
594.106,738.784
595.558,742.208
597.01,744.533
598.462,756.361
599.913,749.599
601.365,730.281
602.817,721.039
604.269,720.495
605.72,725.853
607.172,742.555
608.624,733.314
610.076,743.528
611.528,755.456
612.979,754.796
614.431,743.529
615.883,728.907
617.335,730.387
618.787,750.068
620.238,740.967
621.69,747.515
623.142,760.489
624.594,749.505
626.046,736.75
627.497,741.099
628.949,747.878
630.401,749.406
631.853,755.399
633.304,764.691
634.756,757.869
636.208,754.885
637.66,747.469
639.112,741.813
640.563,747.187
642.015,773.577
643.467,758.408
644.919,765.428
646.371,750.78
647.822,758.615
649.274,769.642
650.726,774.514
652.178,773.08
653.629,769.28
655.081,794.913
656.533,783.712
657.985,772.423
659.437,771.427
660.888,769.834
662.34,769.832
663.792,786.478
665.244,794.87
666.696,800.548
668.147,803.417
669.599,800.53
671.051,791.866
672.503,790.111
673.954,799.428
675.406,795.989
676.858,779.418
678.31,773.689
679.762,775.23
681.213,793.188
682.665,777.042
684.117,796.438
685.569,801.533
687.021,792.056
688.472,802.46
689.924,759.961
691.376,790.104
692.828,800.338
694.28,799.336
695.731,805.097
697.183,797.383
698.635,790.015
700.087,779.272
701.538,773.987
702.99,783.117
704.442,797.151
705.894,811.348
707.346,793.74
708.797,777.724
710.249,773.217
711.701,788.628
713.153,804.437
714.605,800.971
716.056,794.974
717.508,817.965
718.96,801.891
720.412,783.024
721.863,787.369
723.315,790.01
724.767,788.341
726.219,809.207
727.671,786.539
729.122,789.327
730.574,787.399
732.026,797.562
733.478,791.808
734.93,798.877
736.381,803.447
737.833,790.144
739.285,787.646
740.737,784.199
742.189,790.206
743.64,796.077
745.092,803.001
746.544,777.404
747.996,801.633
749.447,806.505
750.899,782.855
752.351,772.375
753.803,799.704
755.255,798.246
756.706,803.155
758.158,793.648
759.61,790.985
761.062,782.87
762.514,777.567
763.965,771.775
765.417,779.803
766.869,797.609
768.321,815.168
769.772,807.259
771.224,799.849
772.676,793.418
774.128,789.059
775.58,804.641
777.031,790.274
778.483,793.107
779.935,793.594
781.387,791.638
782.839,801.711
784.29,810.506
785.742,801.201
787.194,800.681
788.646,803.36
790.098,817.425
791.549,813.628
793.001,800.046
794.453,792.693
795.905,828.133
797.356,814.472
798.808,813.689
800.26,812.457
801.712,807.533
803.164,808.787
804.615,810.663
806.067,811.102
807.519,808.076
808.971,822.586
810.423,823.914
811.874,816.202
813.326,824.677
814.778,832.023
816.23,817.273
817.681,825.486
819.133,814.609
820.585,840.171
822.037,850.177
823.489,838.183
824.94,833.194
826.392,867.589
827.844,836.4
829.296,841.506
830.748,861.654
832.199,861.924
833.651,842.207
835.103,849.411
836.555,832.055
838.007,866.152
839.458,856.117
840.91,855.726
842.362,847.251
843.814,848.606
845.265,854.183
846.717,852.879
848.169,868.471
849.621,868.176
851.073,873.636
852.524,875.593
853.976,861.183
855.428,871.609
856.88,881.458
858.332,885.414
859.783,870.714
861.235,860.605
862.687,857.118
864.139,863.6
865.59,890.872
867.042,877.434
868.494,876.329
869.946,853.966
871.398,862.374
872.849,880.012
874.301,875.847
875.753,884.679
877.205,892.852
878.657,873.748
880.108,862.347
881.56,867.754
883.012,878.283
884.464,886.02
885.915,878.898
887.367,854.67
888.819,897.76
890.271,879.496
891.723,887.887
893.174,889.15
894.626,883.182
896.078,877.773
897.53,899.027
898.982,896.231
900.433,910.774
901.885,906.81
903.337,906.341
904.789,920.007
906.241,931.863
907.692,920.819
909.144,907.994
910.596,912.432
912.048,904.648
913.499,948.728
914.951,921.677
916.403,915.026
917.855,931.133
919.307,956.92
920.758,948.969
922.21,936.716
923.662,941.103
925.114,948.711
926.566,940.12
928.017,930.549
929.469,934.762
930.921,939.977
932.373,927.896
933.824,945.456
935.276,921.215
936.728,938.49
938.18,956.015
939.632,955.234
941.083,949.159
942.535,945.057
943.987,922.494
945.439,923.956
946.891,915.879
948.342,946.421
949.794,955.52
951.246,939.016
952.698,959.208
954.15,932.532
955.601,922.447
957.053,930.082
958.505,958.042
959.957,959.611
961.408,943.393
962.86,936.565
964.312,932.195
965.764,941.085
967.216,950.35
968.667,940.012
970.119,926.554
971.571,923.43
973.023,921.585
974.475,925.511
975.926,926.782
977.378,928.332
978.83,941.816
980.282,940.191
981.733,946.326
983.185,945.348
984.637,954.456
986.089,943.884
987.541,937.944
988.992,946.132
990.444,962.836
991.896,958.15
993.348,976.751
994.8,972.271
996.251,950.511
997.703,958.906
999.155,973.827
1000.61,964.72
1002.06,965.129
1003.51,974.545
1004.96,981.269
1006.41,981.884
1007.87,959.73
1009.32,954.598
1010.77,974.4
1012.22,1002.19
1013.67,1021.99
1015.12,1005.32
1016.58,1018.85
1018.03,1040.16
1019.48,1039.53
1020.93,1031.15
1022.38,1011.1
1023.84,1032.61
1025.29,1029.3
1026.74,1034.51
1028.19,1047.79
1029.64,1058.25
1031.09,1058.84
1032.55,1058.58
1034,1068.16
1035.45,1072.71
1036.9,1066.49
1038.35,1070.8
1039.8,1093.52
1041.26,1138.68
1042.71,1136.83
1044.16,1126.62
1045.61,1120.85
1047.06,1124.12
1048.52,1165.21
1049.97,1163.22
1051.42,1157.78
1052.87,1158.47
1054.32,1143.98
1055.77,1157.55
1057.23,1171.6
1058.68,1186.71
1060.13,1178.88
1061.58,1248.38
1063.03,1233.65
1064.49,1235.51
1065.94,1238.42
1067.39,1253.74
1068.84,1269.94
1070.29,1286.49
1071.74,1280.56
1073.2,1266.95
1074.65,1296.79
1076.1,1320.07
1077.55,1331.91
1079,1332.48
1080.46,1323.16
1081.91,1326.62
1083.36,1361.05
1084.81,1329.82
1086.26,1329.83
1087.71,1365.26
1089.17,1361.3
1090.62,1349.3
1092.07,1331.65
1093.52,1332.57
1094.97,1342.94
1096.42,1311.33
1097.88,1326.44
1099.33,1319.04
1100.78,1290.12
1102.23,1302.3
1103.68,1300.93
1105.14,1288.65
1106.59,1290.16
1108.04,1304.69
1109.49,1301.95
1110.94,1258.85
1112.39,1255.24
1113.85,1248.7
1115.3,1239.77
1116.75,1253.09
1118.2,1257.77
1119.65,1242.88
1121.11,1256.62
1122.56,1230.62
1124.01,1230.51
1125.46,1235.13
1126.91,1206.87
1128.36,1207.37
1129.82,1213.82
1131.27,1204.96
1132.72,1202.18
1134.17,1186.87
1135.62,1202.78
1137.07,1187.96
1138.53,1179.99
1139.98,1193.91
1141.43,1194.36
1142.88,1188.85
1144.33,1173.73
1145.79,1163.93
1147.24,1170
1148.69,1153.66
1150.14,1157.62
1151.59,1190.31
1153.04,1208.46
1154.5,1203.29
1155.95,1187.03
1157.4,1175.88
1158.85,1172.23
1160.3,1162.85
1161.76,1181.68
1163.21,1188.21
1164.66,1184.17
1166.11,1185.5
1167.56,1176.33
1169.01,1190.05
1170.47,1211.67
1171.92,1213.47
1173.37,1198.35
1174.82,1201.31
1176.27,1172.75
1177.72,1234.83
1179.18,1191.35
1180.63,1197.85
1182.08,1219.52
1183.53,1227.45
1184.98,1218.64
1186.44,1215.58
1187.89,1211.75
1189.34,1237.72
1190.79,1200.86
1192.24,1236.75
1193.69,1235.08
1195.15,1203.59
1196.6,1222.62
1198.05,1253.84
1199.5,1247.71
1200.95,1242.21
1202.41,1239.82
1203.86,1256.44
1205.31,1256.13
1206.76,1262.42
1208.21,1286.69
1209.66,1275.44
1211.12,1268.65
1212.57,1283.63
1214.02,1281.96
1215.47,1265.52
1216.92,1267.12
1218.37,1277.17
1219.83,1283.42
1221.28,1294.65
1222.73,1271.85
1224.18,1283.69
1225.63,1308.23
1227.09,1312.58
1228.54,1300.94
1229.99,1303.24
1231.44,1288.74
1232.89,1287.67
1234.34,1294.47
1235.8,1330.76
1237.25,1327.49
1238.7,1340.28
1240.15,1339.59
1241.6,1347.43
1243.06,1363.43
1244.51,1347.17
1245.96,1388.6
1247.41,1400.85
1248.86,1370.61
1250.31,1393.35
1251.77,1401.4
1253.22,1412.66
1254.67,1429.47
1256.12,1445.99
1257.57,1458.58
1259.02,1486.87
1260.48,1477.93
1261.93,1475.51
1263.38,1501.26
1264.83,1494.19
1266.28,1501.05
1267.74,1534.4
1269.19,1561.66
1270.64,1584.39
1272.09,1601.52
1273.54,1600.07
1274.99,1614.61
1276.45,1651.45
1277.9,1688.08
1279.35,1678.73
1280.8,1764.83
1282.25,1746.75
1283.71,1743.14
1285.16,1806.62
1286.61,1864.23
1288.06,1878.5
1289.51,1892.35
1290.96,1925.6
1292.42,2020.88
1293.87,2019.3
1295.32,2159.45
1296.77,2206.2
1298.22,2222.61
1299.67,2292.69
1301.13,2382.55
1302.58,2459.52
1304.03,2528.35
1305.48,2614.93
1306.93,2749.02
1308.39,2820.71
1309.84,2899.68
1311.29,3070.07
1312.74,3226.05
1314.19,3364.45
1315.64,3476.69
1317.1,3621.44
1318.55,3801.48
1320,3964.69
1321.45,4146.99
1322.9,4282.11
1324.36,4444.95
1325.81,4567.76
1327.26,4752.83
1328.71,4821.17
1330.16,4940.48
1331.61,5006.82
1333.07,5063.18
1334.52,5112.76
1335.97,5099.69
1337.42,5005.52
1338.87,5006.47
1340.33,4916.01
1341.78,4753.91
1343.23,4635.01
1344.68,4490.1
1346.13,4335.19
1347.58,4206.35
1349.04,4068.58
1350.49,3891.25
1351.94,3685.32
1353.39,3517.63
1354.84,3423.01
1356.29,3312.73
1357.75,3168.24
1359.2,2998.63
1360.65,2946.63
1362.1,2815.93
1363.55,2707.82
1365.01,2631.32
1366.46,2537.39
1367.91,2441.64
1369.36,2367.08
1370.81,2349.56
1372.26,2299.28
1373.72,2198.88
1375.17,2130.62
1376.62,2094.74
1378.07,2042.8
1379.52,2046.29
1380.98,2027.72
1382.43,1991.75
1383.88,1983.51
1385.33,1964.33
1386.78,1928.81
1388.23,1923.37
1389.69,1860.78
1391.14,1871.02
1392.59,1867.53
1394.04,1842.92
1395.49,1832.09
1396.94,1803.37
1398.4,1828.83
1399.85,1846.1
1401.3,1807.17
1402.75,1792.89
1404.2,1807.13
1405.66,1820.69
1407.11,1794.54
1408.56,1800.01
1410.01,1808.08
1411.46,1805.31
1412.91,1798.97
1414.37,1823.62
1415.82,1816.15
1417.27,1815.97
1418.72,1800.26
1420.17,1783.01
1421.63,1821.88
1423.08,1832.87
1424.53,1837.14
1425.98,1824.49
1427.43,1848.7
1428.88,1839.52
1430.34,1849.38
1431.79,1863.57
1433.24,1846.24
1434.69,1862.86
1436.14,1878.99
1437.59,1879.9
1439.05,1902.56
1440.5,1907.92
1441.95,1932.88
1443.4,1958.76
1444.85,1943.82
1446.31,1992.73
1447.76,2020.01
1449.21,1971.49
1450.66,1994.63
1452.11,2026.7
1453.56,2031.88
1455.02,2034.43
1456.47,2073.35
1457.92,2116.79
1459.37,2143.25
1460.82,2156.12
1462.28,2165.81
1463.73,2187.83
1465.18,2237.49
1466.63,2278.95
1468.08,2275.07
1469.53,2298.65
1470.99,2323.13
1472.44,2332.84
1473.89,2398.74
1475.34,2447.92
1476.79,2483.8
1478.24,2509.56
1479.7,2566.67
1481.15,2583.63
1482.6,2611.51
1484.05,2651.28
1485.5,2723.3
1486.96,2782.46
1488.41,2839.92
1489.86,2860.71
1491.31,2928.63
1492.76,3014.37
1494.21,3065.13
1495.67,3127.01
1497.12,3237.8
1498.57,3306.71
1500.02,3356.42
1501.47,3411.9
1502.93,3531.05
1504.38,3607.26
1505.83,3680.25
1507.28,3847.85
1508.73,3975.42
1510.18,4061.42
1511.64,4202.4
1513.09,4365.92
1514.54,4513.41
1515.99,4698.48
1517.44,4930.75
1518.89,5121.55
1520.35,5371.64
1521.8,5597.17
1523.25,5886.47
1524.7,6245.8
1526.15,6601.96
1527.61,7024.87
1529.06,7439.53
1530.51,8017.29
1531.96,8622.76
1533.41,9245.27
1534.86,9939.83
1536.32,10796.8
1537.77,11704.1
1539.22,12691
1540.67,13932.8
1542.12,15082
1543.58,16603
1545.03,18105.9
1546.48,19664.4
1547.93,21407.1
1549.38,23230.5
1550.83,25095
1552.29,27032.8
1553.74,29037.1
1555.19,31063.6
1556.64,33079.8
1558.09,34984.4
1559.54,36866.1
1561,38749.4
1562.45,40491.5
1563.9,41940
1565.35,43003.6
1566.8,43858.5
1568.26,44248.4
1569.71,44045.9
1571.16,43462.6
1572.61,42283
1574.06,40785.4
1575.51,38904.9
1576.97,36693.9
1578.42,34312.7
1579.87,31820
1581.32,29319.4
1582.77,26936.3
1584.23,24539.5
1585.68,22162.1
1587.13,20237.7
1588.58,18373.4
1590.03,16725.5
1591.48,15161.5
1592.94,13911.5
1594.39,12824.8
1595.84,11840.6
1597.29,11018.6
1598.74,10253
1600.2,9633.22
1601.65,9033.19
1603.1,8401.83
1604.55,7893.72
1606,7497.55
1607.45,7150.05
1608.91,6794.82
1610.36,6386.5
1611.81,6088.32
1613.26,5772.51
1614.71,5387
1616.16,5190.63
1617.62,4903.31
1619.07,4637.68
1620.52,4446.55
1621.97,4268.68
1623.42,4109.33
1624.88,3953.34
1626.33,3757.12
1627.78,3625.28
1629.23,3523.44
1630.68,3384.63
1632.13,3250.06
1633.59,3152.68
1635.04,3091.78
1636.49,3092.99
1637.94,2933.77
1639.39,2871.68
1640.85,2752.7
1642.3,2703.45
1643.75,2666.4
1645.2,2602.79
1646.65,2561.46
1648.1,2555.17
1649.56,2489.54
1651.01,2413.11
1652.46,2370.59
1653.91,2359.36
1655.36,2347.39
1656.81,2297.44
1658.27,2259.35
1659.72,2240.31
1661.17,2186.34
1662.62,2185.65
1664.07,2120.24
1665.53,2025.29
1666.98,2046.38
1668.43,2050.08
1669.88,2013.2
1671.33,1981.08
1672.78,1956.97
1674.24,1897.92
1675.69,1907.13
1677.14,1894.75
1678.59,1849.12
1680.04,1825.51
1681.5,1824.38
1682.95,1791.01
1684.4,1760.46
1685.85,1795.64
1687.3,1775
1688.75,1758.8
1690.21,1712.24
1691.66,1689.38
1693.11,1744.38
1694.56,1689.93
1696.01,1656.13
1697.46,1663.99
1698.92,1616.4
1700.37,1630.42
1701.82,1628.22
1703.27,1613.87
1704.72,1586.29
1706.18,1580.9
1707.63,1614.88
1709.08,1568.84
1710.53,1580.05
1711.98,1610.84
1713.43,1567.78
1714.89,1594.39
1716.34,1576.03
1717.79,1581.01
1719.24,1571.7
1720.69,1576.79
1722.15,1570.74
1723.6,1602.68
1725.05,1574.99
1726.5,1546.83
1727.95,1556.51
1729.4,1558.13
1730.86,1531.46
1732.31,1526.83
1733.76,1550.7
1735.21,1551.76
1736.66,1527.99
1738.11,1538.49
1739.57,1537.74
1741.02,1531.58
1742.47,1537.66
1743.92,1547.24
1745.37,1514.37
1746.83,1486.06
1748.28,1508.21
1749.73,1495.62
1751.18,1503.89
1752.63,1465.41
1754.08,1447.23
1755.54,1442.67
1756.99,1436.26
1758.44,1402.19
1759.89,1403.33
1761.34,1416.59
1762.8,1438.41
1764.25,1416.16
1765.7,1405.93
1767.15,1401.26
1768.6,1373.35
1770.05,1358.08
1771.51,1347.37
1772.96,1353.19
1774.41,1341.3
1775.86,1348.25
1777.31,1346.42
1778.76,1336.29
1780.22,1327.71
1781.67,1321.41
1783.12,1303.53
1784.57,1291.51
1786.02,1304.38
1787.48,1280.47
1788.93,1275.71
1790.38,1311.29
1791.83,1276.04
1793.28,1281.76
1794.73,1300.45
1796.19,1275.94
1797.64,1263.21
1799.09,1277.76
1800.54,1242.71
1801.99,1251.48
1803.45,1258.47
1804.9,1267.44
1806.35,1262.01
1807.8,1251.96
1809.25,1247.28
1810.7,1248.61
1812.16,1249.89
1813.61,1249.83
1815.06,1220.5
1816.51,1215.25
1817.96,1213.01
1819.41,1220.2
1820.87,1216.13
1822.32,1231.17
1823.77,1234.27
1825.22,1256.94
1826.67,1214.89
1828.13,1235.98
1829.58,1240.04
1831.03,1255.05
1832.48,1222.96
1833.93,1257.01
1835.38,1244.74
1836.84,1228.01
1838.29,1233.28
1839.74,1239.76
1841.19,1244.25
1842.64,1249.63
1844.1,1259.84
1845.55,1264.48
1847,1279.56
1848.45,1279.43
1849.9,1282.46
1851.35,1273.07
1852.81,1259.45
1854.26,1259.26
1855.71,1263.77
1857.16,1279.48
1858.61,1296.39
1860.07,1280.59
1861.52,1289.82
1862.97,1289.12
1864.42,1267.14
1865.87,1275.28
1867.32,1281.16
1868.78,1265.66
1870.23,1310.98
1871.68,1282.21
1873.13,1286.75
1874.58,1272.08
1876.03,1277.99
1877.49,1237.54
1878.94,1229.67
1880.39,1224.76
1881.84,1241.99
1883.29,1223.85
1884.75,1218.15
1886.2,1201.46
1887.65,1240.8
1889.1,1223.22
1890.55,1206.99
1892,1200.63
1893.46,1195.46
1894.91,1186.77
1896.36,1180.2
1897.81,1146.73
1899.26,1130.73
1900.72,1162.1
1902.17,1160.06
1903.62,1134.02
1905.07,1125.33
1906.52,1120.24
1907.97,1132.56
1909.43,1139.83
1910.88,1139.01
1912.33,1135.79
1913.78,1140.03
1915.23,1134.26
1916.68,1124.07
1918.14,1129.41
1919.59,1134.44
1921.04,1121.42
1922.49,1113.45
1923.94,1126.73
1925.4,1126.09
1926.85,1119.95
1928.3,1104.66
1929.75,1104.1
1931.2,1089.57
1932.65,1116.85
1934.11,1108.67
1935.56,1109
1937.01,1162.74
1938.46,1129.64
1939.91,1107.88
1941.37,1139.42
1942.82,1096.21
1944.27,1131.29
1945.72,1137.44
1947.17,1114.29
1948.62,1111.91
1950.08,1115.62
1951.53,1129.15
1952.98,1115.62
1954.43,1121.14
1955.88,1126.54
1957.33,1103.33
1958.79,1121.75
1960.24,1131.17
1961.69,1122.26
1963.14,1138.78
1964.59,1119.44
1966.05,1130.48
1967.5,1136.21
1968.95,1132.82
1970.4,1148.06
1971.85,1155.34
1973.3,1154.42
1974.76,1166.48
1976.21,1179.71
1977.66,1183.91
1979.11,1170.91
1980.56,1142.39
1982.02,1130.5
1983.47,1140.91
1984.92,1144.79
1986.37,1171.43
1987.82,1146.52
1989.27,1161.5
1990.73,1176.01
1992.18,1176.29
1993.63,1151.03
1995.08,1160.37
1996.53,1170.55
1997.98,1141.71
1999.44,1160.23
2000.89,1139.65
2002.34,1150.29
2003.79,1157.91
2005.24,1174.33
2006.7,1135.52
2008.15,1169.35
2009.6,1164.45
2011.05,1131.1
2012.5,1143.09
2013.95,1149.73
2015.41,1145.26
2016.86,1115.88
2018.31,1127.2
2019.76,1123.33
2021.21,1092.92
2022.67,1075.57
2024.12,1105.09
2025.57,1105.88
2027.02,1095.02
2028.47,1102.72
2029.92,1118.79
2031.38,1176.02
2032.83,1684.69
2034.28,2456.67
2035.73,2623.8
2037.18,2289.72
2038.63,1360.6
2040.09,1065.97
2041.54,1055.81
2042.99,1074.63
2044.44,1033.31
2045.89,1069.62
2047.35,1046.22
2048.8,1049.3
2050.25,1037.51
2051.7,1047.02
2053.15,1019.67
2054.6,1031.2
2056.06,1031.7
2057.51,1006.99
2058.96,1012.22
2060.41,1027.12
2061.86,1018.01
2063.32,985.222
2064.77,1000.43
2066.22,990.638
2067.67,998.466
2069.12,1017.71
2070.57,1015.35
2072.03,1002.3
2073.48,1008.04
2074.93,989.235
2076.38,995.921
2077.83,1010.1
2079.28,1003.79
2080.74,990.861
2082.19,983.432
2083.64,987.081
2085.09,990.012
2086.54,970.794
2088,970.458
2089.45,987.829
2090.9,987.875
2092.35,990.716
2093.8,973.603
2095.25,993.239
2096.71,989.642
2098.16,966.452
2099.61,981.307
2101.06,982.649
2102.51,968.429
2103.97,973.296
2105.42,983.155
2106.87,1007.04
2108.32,997.209
2109.77,995.122
2111.22,1009.14
2112.68,1016.61
2114.13,1011.88
2115.58,996.4
2117.03,999.879
2118.48,992.93
2119.94,983.921
2121.39,992.683
2122.84,999.015
2124.29,986.064
2125.74,994.034
2127.19,1008.09
2128.65,1019.46
2130.1,1010.71
2131.55,995.658
2133,986.879
2134.45,982.812
2135.9,990.804
2137.36,1000.3
2138.81,1001.25
2140.26,1018.38
2141.71,1008.2
2143.16,1003.95
2144.62,1008.55
2146.07,1020.21
2147.52,1020.46
2148.97,1025.46
2150.42,1005.98
2151.87,1012.62
2153.33,1011.46
2154.78,998.943
2156.23,1001.17
2157.68,1007.77
2159.13,1026.75
2160.58,1033.58
2162.04,1033.04
2163.49,1027.32
2164.94,1023.85
2166.39,1018.51
2167.84,1029.39
2169.3,1048.32
2170.75,1005.81
2172.2,1041.51
2173.65,1061.77
2175.1,1052.24
2176.55,1066.66
2178.01,1050.07
2179.46,1067.34
2180.91,1054.79
2182.36,1058.29
2183.81,1038.41
2185.27,1056.7
2186.72,1068.06
2188.17,1081.18
2189.62,1081.26
2191.07,1082.19
2192.52,1067.96
2193.98,1064.62
2195.43,1073.9
2196.88,1099.35
2198.33,1076.03
2199.78,1081.59
2201.24,1079.1
2202.69,1080.17
2204.14,1101.15
2205.59,1096.19
2207.04,1068.83
2208.49,1063.88
2209.95,1056.99
2211.4,1060.03
2212.85,1076.64
2214.3,1079.5
2215.75,1103.62
2217.2,1078.52
2218.66,1103.6
2220.11,1125.17
2221.56,1097.07
2223.01,1106.82
2224.46,1097.64
2225.92,1088.09
2227.37,1091.09
2228.82,1106.24
2230.27,1116.39
2231.72,1098.92
2233.17,1103.17
2234.63,1091.85
2236.08,1104.63
2237.53,1111.75
2238.98,1097.84
2240.43,1102.27
2241.89,1116.4
2243.34,1121.13
2244.79,1119.79
2246.24,1108.61
2247.69,1122.68
2249.14,1124.27
2250.6,1140.7
2252.05,1133.12
2253.5,1105.17
2254.95,1114.45
2256.4,1145.7
2257.85,1130.47
2259.31,1118.5
2260.76,1126.04
2262.21,1126.25
2263.66,1149.45
2265.11,1162.12
2266.57,1147.28
2268.02,1151.57
2269.47,1148.48
2270.92,1137.14
2272.37,1162.59
2273.82,1164.2
2275.28,1189.52
2276.73,1162.9
2278.18,1162.3
2279.63,1155.44
2281.08,1158.18
2282.54,1171.08
2283.99,1177.03
2285.44,1197.85
2286.89,1204.56
2288.34,1172.36
2289.79,1164.92
2291.25,1201.09
2292.7,1209.37
2294.15,1199.99
2295.6,1193.53
2297.05,1190.67
2298.5,1214.83
2299.96,1229.58
2301.41,1239.72
2302.86,1245.14
2304.31,1251.25
2305.76,1262.27
2307.22,1275.02
2308.67,1221.98
2310.12,1288.17
2311.57,1254.89
2313.02,1276.36
2314.47,1263.41
2315.93,1255.66
2317.38,1287.81
2318.83,1300.55
2320.28,1275.99
2321.73,1284.91
2323.19,1290.76
2324.64,1285.16
2326.09,1301.02
2327.54,1283.07
2328.99,1316.93
2330.44,1327.81
2331.9,1327.62
2333.35,1343.94
2334.8,1330.63
2336.25,1326.46
2337.7,1327.98
2339.16,1340.92
2340.61,1361.8
2342.06,1350.83
2343.51,1344.01
2344.96,1362.18
2346.41,1379.29
2347.87,1381.56
2349.32,1368.01
2350.77,1357.75
2352.22,1391.83
2353.67,1426.88
2355.12,1390.71
2356.58,1437.1
2358.03,1409.17
2359.48,1446.63
2360.93,1464.69
2362.38,1429.36
2363.84,1443.41
2365.29,1488.57
2366.74,1471.68
2368.19,1481.17
2369.64,1526.54
2371.09,1509.82
2372.55,1532.81
2374,1555.21
2375.45,1569.84
2376.9,1592.35
2378.35,1587.53
2379.8,1598.56
2381.26,1617.72
2382.71,1646.42
2384.16,1674.61
2385.61,1703.22
2387.06,1734.85
2388.52,1762.24
2389.97,1781.6
2391.42,1805.12
2392.87,1820.75
2394.32,1823.9
2395.77,1892.47
2397.23,1930.7
2398.68,1938.95
2400.13,1954.49
2401.58,2002.61
2403.03,2046.91
2404.49,2041.08
2405.94,2094.9
2407.39,2140.26
2408.84,2175.83
2410.29,2169.96
2411.74,2265.05
2413.2,2314.4
2414.65,2319
2416.1,2377.3
2417.55,2389.52
2419,2404.6
2420.46,2438.32
2421.91,2506.33
2423.36,2510.17
2424.81,2498.57
2426.26,2489.14
2427.71,2506.79
2429.17,2538.02
2430.62,2574.26
2432.07,2526.74
2433.52,2523.02
2434.97,2529.43
2436.42,2532.31
2437.88,2566.44
2439.33,2543.06
2440.78,2523.31
2442.23,2508.94
2443.68,2524.47
2445.14,2485.98
2446.59,2488.1
2448.04,2452.04
2449.49,2464.48
2450.94,2472.79
2452.39,2456.04
2453.85,2431.79
2455.3,2432.87
2456.75,2403.87
2458.2,2347.36
2459.65,2341.13
2461.1,2334.26
2462.56,2332.84
2464.01,2358.95
2465.46,2308.47
2466.91,2290.27
2468.36,2280.07
2469.82,2255.79
2471.27,2300.13
2472.72,2226.63
2474.17,2258.22
2475.62,2231.26
2477.07,2209.76
2478.53,2224.92
2479.98,2244.65
2481.43,2237.46
2482.88,2237.22
2484.33,2244.28
2485.79,2266.78
2487.24,2221.75
2488.69,2219.9
2490.14,2240.27
2491.59,2238.53
2493.04,2214.67
2494.5,2228.11
2495.95,2221.72
2497.4,2274.46
2498.85,2208.7
2500.3,2235.52
2501.76,2232.02
2503.21,2251.94
2504.66,2206.83
2506.11,2260.72
2507.56,2297.13
2509.01,2297.23
2510.47,2285.6
2511.92,2300.04
2513.37,2332.29
2514.82,2377.73
2516.27,2393.82
2517.72,2365.89
2519.18,2380.7
2520.63,2405.13
2522.08,2469.48
2523.53,2415.98
2524.98,2447.28
2526.44,2481.17
2527.89,2493.77
2529.34,2512.12
2530.79,2548.69
2532.24,2545.1
2533.69,2539.23
2535.15,2605.61
2536.6,2625.93
2538.05,2676.25
2539.5,2732.25
2540.95,2736.23
2542.41,2752.89
2543.86,2751.12
2545.31,2802.77
2546.76,2866.34
2548.21,2900.12
2549.66,2920.29
2551.12,2943.92
2552.57,2982.39
2554.02,3081.51
2555.47,3087.18
2556.92,3142.76
2558.37,3227.85
2559.83,3260.72
2561.28,3360.13
2562.73,3382.6
2564.18,3407.48
2565.63,3495.02
2567.09,3552.91
2568.54,3640.11
2569.99,3706.62
2571.44,3788.55
2572.89,3852.35
2574.34,3961.32
2575.8,4051.22
2577.25,4113.39
2578.7,4240.92
2580.15,4330.57
2581.6,4389.22
2583.06,4545.07
2584.51,4637.04
2585.96,4754.87
2587.41,4893.63
2588.86,5063.51
2590.31,5197.87
2591.77,5331.05
2593.22,5502.9
2594.67,5682.59
2596.12,5845.21
2597.57,6010.25
2599.02,6203.8
2600.48,6388.78
2601.93,6629.56
2603.38,6826.61
2604.83,7082.58
2606.28,7289.86
2607.74,7609.33
2609.19,7870.15
2610.64,8150.2
2612.09,8490.08
2613.54,8743.24
2614.99,9117.35
2616.45,9459.35
2617.9,9779.21
2619.35,10120.6
2620.8,10564.6
2622.25,10923.8
2623.71,11336.8
2625.16,11733.8
2626.61,12251.1
2628.06,12664.9
2629.51,13145.8
2630.96,13636.9
2632.42,14133.4
2633.87,14556.1
2635.32,15146.8
2636.77,15558
2638.22,16042.4
2639.68,16509.5
2641.13,16891
2642.58,17347.5
2644.03,17763.1
2645.48,18264
2646.93,18720.2
2648.39,18988.9
2649.84,19253.1
2651.29,19386.8
2652.74,19715.9
2654.19,19954
2655.64,20146.7
2657.1,20270.1
2658.55,20314.1
2660,20343.1
2661.45,20247.7
2662.9,20089.8
2664.36,19977.1
2665.81,19865
2667.26,19691.4
2668.71,19283.7
2670.16,18841.7
2671.61,18679.7
2673.07,18191.1
2674.52,17782.9
2675.97,17366.8
2677.42,17035.1
2678.87,16504.3
2680.32,15961.7
2681.78,15408.6
2683.23,14876.1
2684.68,14498.2
2686.13,14022
2687.58,13358.1
2689.04,12887.4
2690.49,12363
2691.94,11922
2693.39,11375.2
2694.84,10938.6
2696.29,10489.1
2697.75,10085.5
2699.2,9669.58
2700.65,9239.14
2702.1,8833.92
2703.55,8460.17
2705.01,8111.52
2706.46,7782.21
2707.91,7428.05
2709.36,7102.45
2710.81,6781.06
2712.26,6632.55
2713.72,6381.2
2715.17,6073.75
2716.62,5866.48
2718.07,5638.01
2719.52,5431.28
2720.98,5230.02
2722.43,4998.54
2723.88,4854.32
2725.33,4696.68
2726.78,4541.56
2728.23,4394.13
2729.69,4361.67
2731.14,4164.66
2732.59,4043.55
2734.04,3953.4
2735.49,3831.84
2736.94,3725.05
2738.4,3652.53
2739.85,3546.81
2741.3,3456.98
2742.75,3361.56
2744.2,3323.86
2745.66,3224.01
2747.11,3184.11
2748.56,3083.51
2750.01,3031.35
2751.46,2975.29
2752.91,2924.92
2754.37,2881.58
2755.82,2808.92
2757.27,2769.88
2758.72,2702.16
2760.17,2677.12
2761.63,2653.46
2763.08,2602.72
2764.53,2572.07
2765.98,2534.83
2767.43,2486.97
2768.88,2453.36
2770.34,2401.04
2771.79,2387.07
2773.24,2341.27
2774.69,2331.09
2776.14,2298.21
2777.59,2242.97
2779.05,2228.29
2780.5,2230.34
2781.95,2197.82
2783.4,2141.55
2784.85,2190.84
2786.31,2128.78
2787.76,2118.49
2789.21,2100.82
2790.66,2052.55
2792.11,2066.37
2793.56,2056.15
2795.02,2008.7
2796.47,2023.81
2797.92,1984.03
2799.37,1970.43
2800.82,1960.1
2802.28,1946.71
2803.73,1894.66
2805.18,1908.28
2806.63,1909.45
2808.08,1896.97
2809.53,1885.5
2810.99,1893.44
2812.44,1827.44
2813.89,1873.98
2815.34,1825.4
2816.79,1793.41
2818.24,1792.75
2819.7,1771.34
2821.15,1782.04
2822.6,1800.77
2824.05,1785.66
2825.5,1752.85
2826.96,1762.85
2828.41,1729.53
2829.86,1748.02
2831.31,1749.51
2832.76,1768.43
2834.21,1717.13
2835.67,1726.95
2837.12,1694.9
2838.57,1714.02
2840.02,1693.97
2841.47,1670.86
2842.93,1714.66
2844.38,1675.97
2845.83,1690.99
2847.28,1681.03
2848.73,1708.02
2850.18,1671.74
2851.64,1677.05
2853.09,1678.32
2854.54,1673.75
2855.99,1669.45
2857.44,1682.19
2858.9,1633.14
2860.35,1645.27
2861.8,1661.43
2863.25,1658.29
2864.7,1658.64
2866.15,1686.76
2867.61,1691.21
2869.06,1666.48
2870.51,1675.26
2871.96,1682.83
2873.41,1662.77
2874.86,1673.03
2876.32,1705.34
2877.77,1694.42
2879.22,1688.47
2880.67,1704.35
2882.12,1678.31
2883.58,1691.89
2885.03,1693.31
2886.48,1695.82
2887.93,1705.36
2889.38,1714.1
2890.83,1711.71
2892.29,1696.53
2893.74,1682.35
2895.19,1703.87
2896.64,1719.69
2898.09,1707.98
2899.54,1719.26
2901,1686.64
2902.45,1669.57
2903.9,1688.55
2905.35,1673.73
2906.8,1676.18
2908.26,1706.19
2909.71,1729.23
2911.16,1708.26
2912.61,1699.77
2914.06,1671.31
2915.51,1667.9
2916.97,1641.46
2918.42,1618.69
2919.87,1634.54
2921.32,1610.76
2922.77,1612.16
2924.23,1643.69
2925.68,1609.24
2927.13,1607.23
2928.58,1580.76
2930.03,1580.91
2931.48,1511.98
2932.94,1574.97
2934.39,1517.36
2935.84,1526.62
2937.29,1510.88
2938.74,1475.26
2940.2,1458.19
2941.65,1483.82
2943.1,1446.16
2944.55,1464.04
2946,1426.89
2947.45,1410.61
2948.91,1399.02
2950.36,1386.49
2951.81,1369.55
2953.26,1349.28
2954.71,1352.27
2956.16,1322.13
2957.62,1322.51
2959.07,1333.89
2960.52,1301.9
2961.97,1304.62
2963.42,1297.37
2964.88,1278.69
2966.33,1255.41
2967.78,1256.45
2969.23,1239.14
2970.68,1259.58
2972.13,1238.65
2973.59,1203.6
2975.04,1191.51
2976.49,1199.77
2977.94,1205.07
2979.39,1192.97
2980.84,1207.62
2982.3,1209.3
2983.75,1211.39
2985.2,1178.57
2986.65,1156.67
2988.1,1177.05
2989.56,1169.85
2991.01,1178.86
2992.46,1176.42
2993.91,1145.28
2995.36,1146.78
2996.81,1167.33
2998.27,1134.17
2999.72,1127.75
3001.17,1147.25
3002.62,1154.17
3004.07,1135.54
3005.53,1138.78
3006.98,1131.25
3008.43,1122.89
3009.88,1093.14
3011.33,1103.85
3012.78,1136.97
3014.24,1105.75
3015.69,1105.13
3017.14,1107.9
3018.59,1092.51
3020.04,1109.51
3021.5,1100.13
3022.95,1099.98
3024.4,1092.21
3025.85,1101.36
3027.3,1084.8
3028.75,1110.37
3030.21,1101.43
3031.66,1088.53
3033.11,1092.51
3034.56,1099.58
3036.01,1095.1
3037.46,1069.73
3038.92,1098.3
3040.37,1091.94
3041.82,1093.3
3043.27,1099.4
3044.72,1083.53
3046.18,1110.08
3047.63,1085.15
3049.08,1105.56
3050.53,1132.68
3051.98,1121.7
3053.43,1132.27
3054.89,1101.81
3056.34,1104.93
3057.79,1103.18
3059.24,1108.72
3060.69,1116.03
3062.15,1103.49
3063.6,1121.35
3065.05,1103.52
3066.5,1119.92
3067.95,1094.88
3069.4,1116.24
3070.86,1112.47
3072.31,1137.41
3073.76,1133.45
3075.21,1138.84
3076.66,1167.61
3078.11,1129.49
3079.57,1147.96
3081.02,1162.05
3082.47,1173.7
3083.92,1214.81
3085.37,1213.9
3086.83,1219.8
3088.28,1192.76
3089.73,1198.17
3091.18,1203.26
3092.63,1227.05
3094.08,1252.95
3095.54,1268.22
3096.99,1257.14
3098.44,1276.21
3099.89,1365.06
3101.34,1348.22
3102.8,1346.07
3104.25,1374.06
3105.7,1367.56
3107.15,1382.64
3108.6,1409.64
3110.05,1464.98
3111.51,1475.96
3112.96,1496.88
3114.41,1484.49
3115.86,1529.01
3117.31,1575.36
3118.76,1613.69
3120.22,1600.7
3121.67,1640.06
3123.12,1671.42
3124.57,1663.68
3126.02,1724.56
3127.48,1755.99
3128.93,1730.05
3130.38,1791.59
3131.83,1795.2
3133.28,1839.7
3134.73,1845.13
3136.19,1867.69
3137.64,1886.88
3139.09,1896.4
3140.54,1881.23
3141.99,1952.15
3143.45,1944.82
3144.9,1934.86
3146.35,1952.51
3147.8,1965.47
3149.25,1996.06
3150.7,2005.31
3152.16,1986.29
3153.61,2035.13
3155.06,2015.03
3156.51,1998.97
3157.96,2006.49
3159.42,2015.68
3160.87,2013.73
3162.32,2016.94
3163.77,2032.2
3165.22,2035.68
3166.67,2004
3168.13,1996.87
3169.58,2040.31
3171.03,2059.3
3172.48,2015.62
3173.93,1989.68
3175.38,2044.04
3176.84,2042.39
3178.29,2060.32
3179.74,2056.4
3181.19,2080.73
3182.64,2084.57
3184.1,2128.07
3185.55,2120.9
3187,2131.96
3188.45,2152.28
3189.9,2164.42
3191.35,2159.35
3192.81,2174.08
3194.26,2222.13
3195.71,2205.42
3197.16,2226.92
3198.61,2225.35
3200.06,2249.02
3201.52,2312.38
3202.97,2235.73
3204.42,2215.11
3205.87,2220.06
3207.32,2207.02
3208.78,2226.28
3210.23,2191.05
3211.68,2153.9
3213.13,2148.45
3214.58,2094.56
3216.03,2120.75
3217.49,2051.56
3218.94,2001.61
3220.39,1991.78
3221.84,1911.45
3223.29,1875.35
3224.75,1830.45
3226.2,1791.83
3227.65,1708.98
3229.1,1699.64
3230.55,1627.53
3232,1589.74
3233.46,1532.49
3234.91,1496.41
3236.36,1468.47
3237.81,1413.39
3239.26,1384.88
3240.72,1374.47
3242.17,1329.46
3243.62,1300.23
3245.07,1271.38
3246.52,1239.18
3247.97,1220.11
3249.43,1208.53
3250.88,1155.64
3252.33,1143.83
3253.78,1131.45
3255.23,1097.44
3256.68,1073.77
3258.14,1105.17
3259.59,1069.25
3261.04,1058.17
3262.49,1035.99
3263.94,1000.5
3265.4,1013.07
3266.85,1011.82
3268.3,974.202
3269.75,992.148
3271.2,988.382
3272.65,975.208
3274.11,962.016
3275.56,977.123
3277.01,963.847
3278.46,940.437
3279.91,972.686
3281.37,962.545
3282.82,938.427
3284.27,938.37
3285.72,934.228
3287.17,931.084
3288.62,925.552
3290.08,943.151
3291.53,918.224
3292.98,904.464
3294.43,927.672
3295.88,937.155
3297.33,910.657
3298.79,909.767
3300.24,896.734
3301.69,906.279
3303.14,905.445
3304.59,920.542
3306.05,891.291
3307.5,865.88
3308.95,880.106
3310.4,896.915
3311.85,902.135
3313.3,868.187
3314.76,882.573
3316.21,877.012
3317.66,887.535
3319.11,914.673
3320.56,870.25
3322.02,895.828
3323.47,893.306
3324.92,872.059
3326.37,888.158
3327.82,879.812
3329.27,885.492
3330.73,870.065
3332.18,882.001
3333.63,885.138
3335.08,884.779
3336.53,894.497
3337.98,866.963
3339.44,877.547
3340.89,872.388
3342.34,861.175
3343.79,862.885
3345.24,867.278
3346.7,879.699
3348.15,867.78
3349.6,883.175
3351.05,886.798
3352.5,850.579
3353.95,852.456
3355.41,870.175
3356.86,863.906
3358.31,866.287
3359.76,880.912
3361.21,883.234
3362.67,897.131
3364.12,858.771
3365.57,864.074
3367.02,873.154
3368.47,847.193
3369.92,829.651
3371.38,857.633
3372.83,844.718
3374.28,849.607
3375.73,835.41
3377.18,867.599
3378.63,879.697
3380.09,859.791
3381.54,860.898
3382.99,858.242
3384.44,855.488
3385.89,855.959
3387.35,870.351
3388.8,864.538
3390.25,838.192
3391.7,838.633
3393.15,845.631
3394.6,868.711
3396.06,852.221
3397.51,859.552
3398.96,854.789
3400.41,871.183
3401.86,877.873
3403.32,862.22
3404.77,872.821
3406.22,850.059
3407.67,835.398
3409.12,813.459
3410.57,852.048
3412.03,877.856
3413.48,853.833
3414.93,825.203
3416.38,817.698
3417.83,829.253
3419.28,840.687
3420.74,848.375
3422.19,858.104
3423.64,852.755
3425.09,840.909
3426.54,827.4
3428,842.712
3429.45,841.538
3430.9,833.083
3432.35,829.593
3433.8,833.632
3435.25,835.101
3436.71,850.795
3438.16,831.887
3439.61,825.011
3441.06,817.029
3442.51,822.326
3443.97,830.794
3445.42,823.914
3446.87,843.581
3448.32,821.32
3449.77,813.306
3451.22,852.713
3452.68,815.278
3454.13,836.947
3455.58,818.109
3457.03,823.569
3458.48,817.495
3459.94,840.601
3461.39,823.341
3462.84,834.538
3464.29,851.672
3465.74,838.623
3467.19,826.761
3468.65,828.615
3470.1,814.595
3471.55,828.927
3473,825.141
3474.45,820.151
3475.9,851.14
3477.36,850.654
3478.81,831.127
3480.26,855.163
3481.71,819.254
3483.16,830.433
3484.62,859.447
3486.07,828.264
3487.52,811.567
3488.97,812.287
3490.42,822.76
3491.87,824.852
3493.33,838.963
3494.78,835.748
3496.23,830.746
3497.68,842.893
3499.13,818.266
3500.58,818.433
3502.04,842.528
3503.49,836.502
3504.94,829.976
3506.39,825.365
3507.84,844.049
3509.3,851.306
3510.75,837.934
3512.2,836.55
3513.65,848.901
3515.1,832.311
3516.55,829.545
3518.01,814.404
3519.46,816.69
3520.91,823.784
3522.36,819.521
3523.81,840.434
3525.27,837.928
3526.72,816.861
3528.17,818.008
3529.62,805.021
3531.07,818.09
3532.52,833.146
3533.98,836.613
3535.43,845.055
3536.88,820.906
3538.33,831.357
3539.78,838.766
3541.24,851.976
3542.69,828.028
3544.14,828.136
3545.59,831.795
3547.04,827.95
3548.49,842.267
3549.95,821.68
3551.4,815.655
3552.85,819.913
3554.3,808.707
3555.75,826.632
3557.2,809.194
3558.66,822.907
3560.11,823.44
3561.56,798.858
3563.01,811.073
3564.46,825.765
3565.92,808.272
3567.37,826.802
3568.82,799.008
3570.27,812.254
3571.72,807.498
3573.17,828.364
3574.63,829.796
3576.08,825.839
3577.53,839.095
3578.98,812.484
3580.43,828.53
3581.89,819.656
3583.34,809.503
3584.79,808.304
3586.24,816.064
3587.69,818.856
3589.14,795.93
3590.6,811.844
3592.05,809.322
3593.5,822.267
3594.95,841.458
3596.4,821.194
3597.85,821.938
3599.31,814.067
3600.76,818.012
3602.21,831.331
3603.66,831.983
3605.11,834.496
3606.57,831.197
3608.02,821.856
3609.47,817.372
3610.92,834.847
3612.37,818.035
3613.82,798.813
3615.28,806.12
3616.73,799.765
3618.18,816.792
3619.63,806.227
3621.08,777.147
3622.54,810.396
3623.99,822.955
3625.44,812.86
3626.89,826.57
3628.34,812.917
3629.79,819.887
3631.25,817.204
3632.7,843.024
3634.15,829.326
3635.6,845.326
3637.05,836.528
3638.5,842.369
3639.96,807.768
3641.41,828.892
3642.86,813.117
3644.31,804.074
3645.76,809.18
3647.22,821.003
3648.67,818.142
3650.12,809.656
3651.57,817.309
3653.02,820.767
3654.47,830.377
3655.93,839.462
3657.38,838.41
3658.83,806.717
3660.28,839.163
3661.73,795.799
3663.19,792.273
3664.64,837.06
3666.09,806.705
3667.54,806.656
3668.99,841.36
3670.44,830.35
3671.9,825.18
3673.35,826.177
3674.8,837.899
3676.25,808.492
3677.7,826.539
3679.16,836.274
3680.61,829.11
3682.06,823.376
3683.51,823.132
3684.96,851.081
3686.41,812.024
3687.87,828.421
3689.32,808.373
3690.77,833.951
3692.22,825.784
3693.67,826.221
3695.12,813.13
3696.58,799.656
3698.03,844.828
3699.48,841.461
3700.93,826.378
3702.38,820.488
3703.84,838.978
3705.29,815.861
3706.74,807.032
3708.19,817.762
3709.64,833.062
3711.09,837.015
3712.55,851.736
3714,827.718
3715.45,852.519
3716.9,837.102
3718.35,828.011
3719.8,837.256
3721.26,837.701
3722.71,828.988
3724.16,830.492
3725.61,845.91
3727.06,831.631
3728.52,826.952
3729.97,832.676
3731.42,824.187
3732.87,838.334
3734.32,831.19
3735.77,824.776
3737.23,841.507
3738.68,851.4
3740.13,835.089
3741.58,838.414
3743.03,834.616
3744.49,826.452
3745.94,830.462
3747.39,836.19
3748.84,840.416
3750.29,824.215
3751.74,825.502
3753.2,850.353
3754.65,846.826
3756.1,840.005
3757.55,856.773
3759,844.388
3760.46,829.751
3761.91,841.655
3763.36,828.095
3764.81,840.586
3766.26,828.094
3767.71,838.802
3769.17,835.261
3770.62,837.127
3772.07,848.12
3773.52,839.759
3774.97,855.105
3776.42,865.249
3777.88,854.704
3779.33,850.841
3780.78,871.583
3782.23,842.05
3783.68,844.796
3785.14,857.865
3786.59,871.934
3788.04,840.252
3789.49,846.588
3790.94,848.478
3792.39,864.146
3793.85,869.475
3795.3,851.227
3796.75,883.34
3798.2,862.398
3799.65,863.763
3801.1,860.777
3802.56,839.913
3804.01,852.102
3805.46,862.304
3806.91,872.461
3808.36,871.285
3809.82,872.463
3811.27,865.059
3812.72,856.579
3814.17,882.487
3815.62,859.083
3817.07,871.167
3818.53,875.407
3819.98,847.73
3821.43,861.82
3822.88,867.635
3824.33,860.237
3825.79,854.895
3827.24,870.136
3828.69,867.655
3830.14,844.545
3831.59,862.873
3833.04,880.471
3834.5,885.131
3835.95,861.088
3837.4,869.713
3838.85,874.753
3840.3,862.919
3841.76,870.954
3843.21,872.984
3844.66,894.826
3846.11,866.46
3847.56,872.077
3849.01,875.581
3850.47,900.282
3851.92,881.407
3853.37,888.913
3854.82,901.422
3856.27,888.016
3857.72,884.078
3859.18,880.085
3860.63,869.338
3862.08,887.808
3863.53,883.607
3864.98,904.895
3866.44,907.087
3867.89,895.315
3869.34,900.756
3870.79,885.417
3872.24,884.086
3873.69,892.202
3875.15,884.469
3876.6,904.256
3878.05,898.301
3879.5,893.976
3880.95,899.221
3882.41,900.183
3883.86,920.492
3885.31,900.105
3886.76,888.023
3888.21,916.847
3889.66,926.053
3891.12,919.559
3892.57,892.835
3894.02,914.23
3895.47,925.4
3896.92,906.663
3898.37,919.353
3899.83,948.673
3901.28,895.894
3902.73,898.913
3904.18,932.764
3905.63,924.675
3907.09,922.693
3908.54,905.311
3909.99,945.197
3911.44,927.547
3912.89,954.622
3914.34,931.285
3915.8,966.78
3917.25,941.466
3918.7,940.476
3920.15,967.366
3921.6,963.263
3923.06,940.969
3924.51,955.642
3925.96,961.333
3927.41,944.127
3928.86,963.489
3930.31,957.199
3931.77,959.541
3933.22,950.966
3934.67,972.725
3936.12,957.848
3937.57,954.602
3939.02,980.347
3940.48,978.228
3941.93,987.836
3943.38,983.789
3944.83,1009.41
3946.28,985.586
3947.74,995.892
3949.19,981.579
3950.64,1003.24
3952.09,1017.07
3953.54,1003.82
3954.99,988.842
3956.45,998.017
3957.9,998.959
3959.35,982.915
3960.8,1016.04
3962.25,1014.69
3963.71,1024.98
3965.16,1010.46
3966.61,1029.79
3968.06,1021.46
3969.51,989.435
3970.96,1001.07
3972.42,1032.51
3973.87,1031.24
3975.32,1013.2
3976.77,1042.84
3978.22,1041.97
3979.68,1036.5
3981.13,1059.67
3982.58,1067.7
3984.03,1076.61
3985.48,1042.38
3986.93,1056.47
3988.39,1063.1
3989.84,1056.75
3991.29,1092.05
3992.74,1070.6
3994.19,1083.44
3995.64,1062.89
3997.1,1080.34
3998.55,1092.31
4000,1098.17
