0.1,4.53502
1.45033,4.53502
2.90065,4.53502
4.35098,4.53502
5.80131,4.53502
7.25163,4.53502
8.70196,18.9725
10.1523,8.32258
11.6026,6.55793
13.0529,7.28091
14.5033,8.14122
15.9536,7.37835
17.4039,2.95898
18.8542,0.253066
20.3046,0.199486
21.7549,1.76129
23.2052,3.64205
24.6555,3.42092
26.1059,2.44095
27.5562,0.692609
29.0065,0.161348
30.4569,3.34087
31.9072,1.57033
33.3575,1.462
34.8078,1.27516
36.2582,0.696451
37.7085,1.3608
39.1588,0.186257
40.6091,1.43837
42.0595,4.01449
43.5098,6.30048
44.9601,7.18697
46.4104,6.79637
47.8608,10.5126
49.3111,18.3782
50.7614,27.7315
52.2117,68.986
53.6621,134.079
55.1124,231.96
56.5627,364.177
58.0131,521.524
59.4634,675.678
60.9137,813.877
62.364,910.72
63.8144,954.32
65.2647,1034.28
66.715,1068.58
68.1653,1098.27
69.6157,1131.88
71.066,1163.78
72.5163,1177.78
73.9666,1173.66
75.417,1163.19
76.8673,1164.44
78.3176,1213.37
79.7679,1222.63
81.2183,1242.62
82.6686,1277.53
84.1189,1322.48
85.5693,1352.08
87.0196,1360.39
88.4699,1359.31
89.9202,1330.42
91.3706,1249.53
92.8209,1182.71
94.2712,1121.56
95.7215,1053.82
97.1719,991.935
98.6222,974.104
100.073,939.359
101.523,898.94
102.973,862.12
104.423,833.833
105.874,811.08
107.324,792.367
108.774,783.351
110.225,769.488
111.675,742.925
113.125,748.729
114.576,760.385
116.026,753.807
117.476,730.231
118.927,702.01
120.377,709.839
121.827,695.117
123.278,686.87
124.728,686.447
126.178,675.94
127.629,661.196
129.079,645.945
130.529,635.774
131.98,629.692
133.43,616.716
134.88,600.984
136.331,580.65
137.781,571.423
139.231,574.599
140.682,549.075
142.132,555.825
143.582,545.211
145.033,527.472
146.483,516.551
147.933,499.52
149.384,514.246
150.834,509.642
152.284,491.677
153.735,482.352
155.185,502.534
156.635,485.539
158.086,479.058
159.536,488.028
160.986,498.457
162.437,496.887
163.887,479.585
165.337,459.567
166.788,443.858
168.238,436.135
169.688,438.158
171.139,428.436
172.589,422.825
174.039,421.242
175.489,407.742
176.94,434.225
178.39,440.815
179.84,439.167
181.291,435.254
182.741,426.258
184.191,415.729
185.642,405.79
187.092,394.681
188.542,388.111
189.993,406.59
191.443,391.384
192.893,391.26
194.344,399.981
195.794,404.179
197.244,381.202
198.695,386.336
200.145,387.737
201.595,382.352
203.046,373.089
204.496,371.285
205.946,380.496
207.397,385.816
208.847,391.576
210.297,398.206
211.748,389.406
213.198,390.514
214.648,393.895
216.099,393.014
217.549,386.836
218.999,389.546
220.45,397.828
221.9,392.863
223.35,381.632
224.801,375.229
226.251,388.108
227.701,384.257
229.152,392.23
230.602,386.641
232.052,361.784
233.503,381.707
234.953,382.871
236.403,383.788
237.854,384.7
239.304,384.62
240.754,384.167
242.204,380.552
243.655,377.321
245.105,369.135
246.555,357.71
248.006,361.333
249.456,362.822
250.906,368.934
252.357,375.455
253.807,374.224
255.257,350.85
256.708,356.726
258.158,362.131
259.608,365.074
261.059,367.536
262.509,375.258
263.959,343.443
265.41,339.188
266.86,339.456
268.31,341.477
269.761,364.542
271.211,353.175
272.661,348.606
274.112,341.332
275.562,336.671
277.012,349.075
278.463,348.165
279.913,350.886
281.363,347.686
282.814,343.705
284.264,348.508
285.714,336.44
287.165,339.545
288.615,343.67
290.065,337.736
291.516,319.592
292.966,330.986
294.416,342.977
295.867,335.449
297.317,324.69
298.767,325.493
300.218,320.71
301.668,323.847
303.118,325.257
304.569,312.59
306.019,292.886
307.469,311.144
308.919,303.039
310.37,304.994
311.82,304.044
313.27,297.59
314.721,297.131
316.171,296.446
317.621,299.309
319.072,292.079
320.522,285.138
321.972,299.32
323.423,298.178
324.873,288.27
326.323,287.686
327.774,294.046
329.224,297.5
330.674,286.975
332.125,296.664
333.575,297.197
335.025,289.276
336.476,280.061
337.926,279.375
339.376,278.249
340.827,282.075
342.277,284.545
343.727,285.28
345.178,290.263
346.628,274.906
348.078,281.892
349.529,296.53
350.979,303.844
352.429,292.673
353.88,275.699
355.33,284.929
356.78,290.669
358.231,291.305
359.681,289.777
361.131,283.12
362.582,272.569
364.032,267.825
365.482,270.841
366.933,275.804
368.383,269.69
369.833,267.39
371.284,263.63
372.734,263.523
374.184,264.111
375.635,262.167
377.085,278.263
378.535,285.861
379.986,273.401
381.436,263.349
382.886,270.071
384.336,276.054
385.787,269.315
387.237,264.23
388.687,266.755
390.138,273.999
391.588,276.54
393.038,272.394
394.489,261.88
395.939,267.189
397.389,274.677
398.84,267.671
400.29,256.605
401.74,272.96
403.191,264.269
404.641,263.086
406.091,272.568
407.542,258.443
408.992,265.596
410.442,273.879
411.893,275.591
413.343,274.975
414.793,276.08
416.244,263.379
417.694,273.268
419.144,274.051
420.595,265.365
422.045,257.838
423.495,268.243
424.946,265.701
426.396,262.215
427.846,256.05
429.297,260.012
430.747,277.605
432.197,258.383
433.648,268.217
435.098,264.828
436.548,257.706
437.999,255.488
439.449,258.527
440.899,248.802
442.35,261.959
443.8,261.387
445.25,255.015
446.701,259.562
448.151,272.555
449.601,270.695
451.051,268.143
452.502,266.314
453.952,260.605
455.402,247.078
456.853,263.101
458.303,258.581
459.753,258.923
461.204,259.636
462.654,256.538
464.104,258.155
465.555,254.671
467.005,259.586
468.455,264.668
469.906,260.658
471.356,248.355
472.806,269.291
474.257,271.946
475.707,266.343
477.157,265.226
478.608,271.179
480.058,274.313
481.508,249.891
482.959,261.593
484.409,263.431
485.859,262.865
487.31,267.018
488.76,255.643
490.21,269.845
491.661,277.077
493.111,268.061
494.561,253.073
496.012,249.141
497.462,262.187
498.912,253.528
500.363,258.312
501.813,260.098
503.263,255.829
504.714,256.509
506.164,265.604
507.614,262.701
509.065,260.003
510.515,260.1
511.965,259.669
513.416,251.926
514.866,257.3
516.316,263.26
517.766,264.032
519.217,261.103
520.667,257.813
522.117,256.211
523.568,261.592
525.018,256.522
526.468,252.532
527.919,251.844
529.369,255.593
530.819,274.79
532.27,256.133
533.72,261.185
535.17,260.677
536.621,256.55
538.071,264.711
539.521,267.052
540.972,260.174
542.422,263.992
543.872,260.725
545.323,256.041
546.773,267.393
548.223,261.763
549.674,260.84
551.124,265.189
552.574,267.738
554.025,265.789
555.475,262.24
556.925,260.597
558.376,259.162
559.826,255.971
561.276,255.414
562.727,255.052
564.177,247.632
565.627,257.032
567.078,252.578
568.528,245.593
569.978,244.918
571.429,249.299
572.879,248.588
574.329,256.586
575.78,248.757
577.23,253.679
578.68,259.029
580.131,259.487
581.581,265.906
583.031,251.779
584.482,258.801
585.932,257.521
587.382,255.82
588.832,256.203
590.283,247.711
591.733,247.711
593.183,253.087
594.634,262.1
596.084,256.591
597.534,239.498
598.985,236.897
600.435,239.256
601.885,252.936
603.336,256.454
604.786,258.654
606.236,261.698
607.687,257.663
609.137,255.538
610.587,258.544
612.038,263.595
613.488,263.805
614.938,261.623
616.389,264.243
617.839,258.572
619.289,265.399
620.74,255.352
622.19,253.312
623.64,256.802
625.091,248.344
626.541,246.924
627.991,256.151
629.442,266.758
630.892,268.332
632.342,261.281
633.793,253.142
635.243,251.958
636.693,266.738
638.144,265.58
639.594,259.357
641.044,257.504
642.495,263.196
643.945,269.673
645.395,249.996
646.846,265.006
648.296,271.95
649.746,271.219
651.197,269.977
652.647,266.992
654.097,267.941
655.547,272.687
656.998,272.933
658.448,268.489
659.898,264.495
661.349,265.948
662.799,262.86
664.249,270.298
665.7,272.464
667.15,267.861
668.6,268.958
670.051,281.147
671.501,274.255
672.951,272.116
674.402,274.819
675.852,277.433
677.302,272.202
678.753,263.908
680.203,272.79
681.653,276.126
683.104,279.25
684.554,272.575
686.004,272.299
687.455,276.279
688.905,269.589
690.355,274.592
691.806,283.241
693.256,275.008
694.706,277.826
696.157,282.679
697.607,277.658
699.057,287.486
700.508,276.978
701.958,272.759
703.408,272.99
704.859,274.094
706.309,270.901
707.759,263.336
709.21,283.391
710.66,282.258
712.11,278.91
713.561,275.462
715.011,275.454
716.461,279.628
717.912,279.461
719.362,272.761
720.812,287.266
722.263,289.658
723.713,289.925
725.163,289.171
726.613,273.825
728.064,277.174
729.514,271.726
730.964,274.872
732.415,286.029
733.865,286.739
735.315,273.969
736.766,285.753
738.216,283.834
739.666,279.004
741.117,281.669
742.567,287.412
744.017,289.885
745.468,285.262
746.918,272.54
748.368,273.694
749.819,279.947
751.269,298.359
752.719,301.003
754.17,285.503
755.62,294.794
757.07,305.608
758.521,299.828
759.971,289.218
761.421,279.218
762.872,282.417
764.322,296.064
765.772,282.51
767.223,277.458
768.673,293.119
770.123,291.641
771.574,280.538
773.024,279.461
774.474,293.868
775.925,286.412
777.375,299.177
778.825,289.414
780.276,289.947
781.726,291.647
783.176,290.95
784.627,298.589
786.077,290.633
787.527,302.702
788.978,298.634
790.428,294.695
791.878,293.489
793.328,293.701
794.779,297.298
796.229,298.746
797.68,288.647
799.13,289.089
800.58,295.694
802.03,302.7
803.481,301.467
804.931,284.361
806.381,289.917
807.832,299.477
809.282,303.576
810.732,302.092
812.183,298.983
813.633,294.981
815.083,285.401
816.534,294.35
817.984,286.803
819.434,300.045
820.885,304.832
822.335,302.108
823.785,308.486
825.236,320.888
826.686,309.748
828.136,315.535
829.587,328.433
831.037,322.574
832.487,311.623
833.938,310.876
835.388,299.716
836.838,325.171
838.289,315.617
839.739,307.85
841.189,304.764
842.64,307.768
844.09,312.1
845.54,306.253
846.991,319.359
848.441,310.387
849.891,324.581
851.342,321.029
852.792,304.672
854.242,301.523
855.693,315.561
857.143,298.552
858.593,319.667
860.044,329.143
861.494,333.909
862.944,327.742
864.394,317.065
865.845,320.891
867.295,311.161
868.745,320.77
870.196,316.17
871.646,315.934
873.096,313.737
874.547,307.029
875.997,307.063
877.447,325.733
878.898,328.899
880.348,310.44
881.798,308.543
883.249,306.509
884.699,307.752
886.149,320.832
887.6,316.979
889.05,313.806
890.5,316.854
891.951,322.715
893.401,323.499
894.851,331.321
896.302,342.472
897.752,326.992
899.202,319.423
900.653,311.609
902.103,331.727
903.553,330.366
905.004,321.669
906.454,322.46
907.904,326.279
909.355,326.297
910.805,319.444
912.255,337.49
913.706,346.819
915.156,340.076
916.606,338.324
918.057,349.214
919.507,340.354
920.957,326.879
922.408,346.738
923.858,342.09
925.308,329.875
926.759,331.241
928.209,342.349
929.659,341.729
931.109,331.575
932.56,339.181
934.01,329.255
935.46,337.063
936.911,340.905
938.361,345.609
939.811,354.011
941.262,341.921
942.712,343.148
944.162,327.151
945.613,346.702
947.063,338.239
948.513,324.535
949.964,325.962
951.414,339.171
952.864,366.22
954.315,357.132
955.765,339.608
957.215,348.35
958.666,348.144
960.116,342.071
961.566,337.092
963.017,329.583
964.467,339.833
965.917,341.064
967.368,349.729
968.818,344.014
970.268,339.8
971.719,344.254
973.169,348.513
974.619,340.616
976.07,331.46
977.52,351.162
978.97,351.791
980.421,351.264
981.871,353.618
983.321,345.226
984.772,330.179
986.222,340.886
987.672,349.032
989.123,356.925
990.573,352.934
992.023,349.183
993.474,349.082
994.924,349.731
996.374,345.766
997.825,337.93
999.275,354.49
1000.73,363.748
1002.18,368.118
1003.63,369.338
1005.08,359.558
1006.53,356.16
1007.98,369.738
1009.43,374.296
1010.88,381.225
1012.33,381.066
1013.78,374.741
1015.23,369.06
1016.68,375.711
1018.13,383.232
1019.58,382.989
1021.03,388.898
1022.48,382.734
1023.93,386.452
1025.38,395.737
1026.83,396.386
1028.28,394.136
1029.73,388.871
1031.18,389.522
1032.63,409.472
1034.08,408.577
1035.53,394.432
1036.98,419.433
1038.43,418.371
1039.88,424.009
1041.33,431.96
1042.78,437.4
1044.23,445.416
1045.69,418.345
1047.14,439.966
1048.59,431.762
1050.04,430.794
1051.49,437.191
1052.94,442.121
1054.39,452.482
1055.84,464.904
1057.29,443.428
1058.74,448.156
1060.19,453.86
1061.64,456.43
1063.09,464.786
1064.54,477.605
1065.99,484.107
1067.44,486.302
1068.89,499.196
1070.34,504.124
1071.79,495.652
1073.24,495.534
1074.69,502.841
1076.14,493.846
1077.59,495.56
1079.04,518.445
1080.49,532.996
1081.94,517.972
1083.39,512.484
1084.84,526.05
1086.29,507.437
1087.74,499.789
1089.2,494.988
1090.65,497.031
1092.1,506.72
1093.55,508.036
1095,507.63
1096.45,508.63
1097.9,502.399
1099.35,500.067
1100.8,496.292
1102.25,503.942
1103.7,510.577
1105.15,503.684
1106.6,502.796
1108.05,495.944
1109.5,494.441
1110.95,507.369
1112.4,502.36
1113.85,488.679
1115.3,486.481
1116.75,493.767
1118.2,490.927
1119.65,473.693
1121.1,469.779
1122.55,476.796
1124,472.316
1125.45,475.778
1126.9,472.033
1128.35,472.864
1129.8,477.323
1131.25,470.676
1132.7,465.708
1134.16,469.69
1135.61,458.897
1137.06,459.116
1138.51,460.307
1139.96,456.254
1141.41,466.984
1142.86,472.259
1144.31,453.308
1145.76,469.536
1147.21,470.31
1148.66,473.078
1150.11,457.772
1151.56,454.772
1153.01,445.624
1154.46,449.215
1155.91,463.009
1157.36,464.645
1158.81,461.197
1160.26,450.189
1161.71,448.928
1163.16,451.569
1164.61,449.022
1166.06,451.903
1167.51,454.886
1168.96,452.118
1170.41,453.224
1171.86,465.471
1173.31,451.419
1174.76,473.101
1176.21,454.622
1177.66,461.12
1179.12,458.544
1180.57,451.154
1182.02,443.751
1183.47,446.232
1184.92,461.44
1186.37,455.609
1187.82,462.939
1189.27,452.081
1190.72,468.627
1192.17,478.031
1193.62,482.296
1195.07,480.488
1196.52,478.036
1197.97,476.56
1199.42,468.983
1200.87,481.25
1202.32,480.49
1203.77,484.537
1205.22,474.077
1206.67,474.824
1208.12,468.953
1209.57,461.439
1211.02,466.532
1212.47,479.518
1213.92,485.528
1215.37,483.558
1216.82,483.558
1218.27,481.701
1219.72,478.654
1221.17,478.151
1222.63,481.826
1224.08,478.997
1225.53,483.406
1226.98,509.18
1228.43,497.732
1229.88,475.874
1231.33,494.674
1232.78,486.043
1234.23,508.563
1235.68,505.811
1237.13,504.43
1238.58,498.556
1240.03,483.131
1241.48,492.84
1242.93,504.923
1244.38,508.555
1245.83,496.088
1247.28,501.049
1248.73,509.534
1250.18,502.475
1251.63,519.296
1253.08,542.901
1254.53,534.15
1255.98,511.794
1257.43,522.917
1258.88,545.387
1260.33,534.428
1261.78,533.317
1263.23,539.483
1264.68,542.642
1266.13,544.525
1267.59,541.453
1269.04,542.433
1270.49,557.264
1271.94,569.922
1273.39,592.17
1274.84,576.322
1276.29,586.632
1277.74,610.724
1279.19,604.696
1280.64,599.659
1282.09,605.127
1283.54,606.925
1284.99,614.365
1286.44,646.452
1287.89,654.92
1289.34,661.594
1290.79,670.802
1292.24,684.18
1293.69,692.254
1295.14,713.743
1296.59,744.698
1298.04,758.346
1299.49,762.976
1300.94,782.738
1302.39,802.753
1303.84,844.595
1305.29,834.861
1306.74,837.904
1308.19,894.938
1309.64,938.691
1311.09,955.329
1312.55,982.418
1314,1010.88
1315.45,1034.64
1316.9,1074.1
1318.35,1111.14
1319.8,1179
1321.25,1208.77
1322.7,1243.81
1324.15,1301.51
1325.6,1330.26
1327.05,1361.66
1328.5,1393.47
1329.95,1409.96
1331.4,1410.92
1332.85,1421.86
1334.3,1462.76
1335.75,1452.08
1337.2,1433.56
1338.65,1412.25
1340.1,1410.85
1341.55,1414.55
1343,1362.26
1344.45,1329.46
1345.9,1316.78
1347.35,1276.06
1348.8,1230.52
1350.25,1226.13
1351.7,1198.74
1353.15,1140.35
1354.6,1096.29
1356.06,1059.02
1357.51,1040.38
1358.96,998.216
1360.41,958.394
1361.86,933.871
1363.31,893.133
1364.76,847.892
1366.21,848.597
1367.66,841.101
1369.11,806.09
1370.56,814.619
1372.01,783.037
1373.46,779.682
1374.91,766.284
1376.36,752.889
1377.81,744.041
1379.26,737.585
1380.71,723.08
1382.16,703.837
1383.61,700.988
1385.06,702.404
1386.51,712.721
1387.96,690.479
1389.41,712.949
1390.86,703.546
1392.31,685.992
1393.76,674.315
1395.21,675.119
1396.66,671.188
1398.11,669.074
1399.56,679.062
1401.02,679.604
1402.47,692.423
1403.92,699.049
1405.37,667.397
1406.82,678.316
1408.27,668.725
1409.72,672.564
1411.17,667.072
1412.62,667.714
1414.07,678.194
1415.52,679.579
1416.97,684.027
1418.42,705.2
1419.87,688.434
1421.32,705.78
1422.77,711.49
1424.22,694.327
1425.67,708.783
1427.12,705.103
1428.57,706.109
1430.02,699.871
1431.47,700.762
1432.92,709.03
1434.37,724.889
1435.82,732.456
1437.27,704.491
1438.72,725.002
1440.17,732.912
1441.62,718.061
1443.07,773.433
1444.53,762.357
1445.98,762.039
1447.43,766.968
1448.88,765.153
1450.33,764.66
1451.78,782.707
1453.23,799.194
1454.68,800.418
1456.13,818.635
1457.58,811.806
1459.03,833.511
1460.48,829.072
1461.93,840.551
1463.38,837.94
1464.83,843.616
1466.28,878.099
1467.73,901.884
1469.18,901.636
1470.63,896.893
1472.08,909.659
1473.53,930.767
1474.98,934.944
1476.43,939.688
1477.88,953.892
1479.33,996.833
1480.78,984.518
1482.23,987.718
1483.68,1044.88
1485.13,1050.8
1486.58,1070.46
1488.03,1095.26
1489.49,1092.04
1490.94,1118.27
1492.39,1163.23
1493.84,1178.18
1495.29,1228.23
1496.74,1211.84
1498.19,1219.24
1499.64,1298.61
1501.09,1320.65
1502.54,1353.68
1503.99,1390.26
1505.44,1424.61
1506.89,1466.53
1508.34,1511.81
1509.79,1578.64
1511.24,1634.1
1512.69,1689.32
1514.14,1790.72
1515.59,1879.67
1517.04,1938.62
1518.49,2017.22
1519.94,2091.95
1521.39,2252.01
1522.84,2364.81
1524.29,2495.44
1525.74,2642.24
1527.19,2806.54
1528.64,2992.1
1530.09,3195.47
1531.54,3430.33
1532.99,3701.67
1534.45,3969.41
1535.9,4265.2
1537.35,4698.32
1538.8,5126.41
1540.25,5604.34
1541.7,6047.49
1543.15,6538.63
1544.6,7126.02
1546.05,7747.17
1547.5,8455.03
1548.95,9117.35
1550.4,9746.47
1551.85,10436.1
1553.3,11135.6
1554.75,11832.6
1556.2,12556.5
1557.65,13221.1
1559.1,13242.5
1560.55,13258.3
1562,13288.8
1563.45,13297.9
1564.9,13304.6
1566.35,13296.7
1567.8,13293.3
1569.25,13303.5
1570.7,13301.2
1572.15,12873.2
1573.6,12207
1575.05,11518.5
1576.5,10824.4
1577.96,10066.3
1579.41,9290
1580.86,8582.67
1582.31,7927.9
1583.76,7245.43
1585.21,6655.43
1586.66,6085.41
1588.11,5598.17
1589.56,5173.81
1591.01,4757.67
1592.46,4411.51
1593.91,4128.31
1595.36,3829.76
1596.81,3579.4
1598.26,3323.5
1599.71,3132.02
1601.16,3002.77
1602.61,2852.07
1604.06,2714.21
1605.51,2597.35
1606.96,2473.94
1608.41,2347.42
1609.86,2248.6
1611.31,2130.56
1612.76,2087.12
1614.21,1949.15
1615.66,1897.38
1617.11,1817.2
1618.56,1768.95
1620.01,1692.19
1621.46,1629.9
1622.92,1567.32
1624.37,1517.98
1625.82,1482.52
1627.27,1439.47
1628.72,1406.27
1630.17,1362.18
1631.62,1336.28
1633.07,1303.52
1634.52,1279.38
1635.97,1237.74
1637.42,1235.4
1638.87,1199.77
1640.32,1168.44
1641.77,1162.99
1643.22,1148.1
1644.67,1130.53
1646.12,1112.21
1647.57,1107.97
1649.02,1091.55
1650.47,1067.21
1651.92,1062.32
1653.37,1059.97
1654.82,1035.43
1656.27,1020.54
1657.72,1016.4
1659.17,995.699
1660.62,977.396
1662.07,981.539
1663.52,1002.28
1664.97,992.148
1666.42,978.844
1667.88,970.191
1669.33,962.186
1670.78,949.158
1672.23,928.972
1673.68,934.074
1675.13,931.55
1676.58,929.673
1678.03,916.722
1679.48,905.317
1680.93,912.924
1682.38,911.068
1683.83,903.702
1685.28,894.176
1686.73,900.532
1688.18,898.522
1689.63,895.587
1691.08,887.485
1692.53,872.259
1693.98,870.876
1695.43,886.73
1696.88,896.512
1698.33,889.627
1699.78,891.897
1701.23,878.553
1702.68,881.669
1704.13,870.697
1705.58,879.839
1707.03,879.596
1708.48,859.403
1709.93,879.386
1711.39,879.03
1712.84,878.216
1714.29,874.4
1715.74,887.352
1717.19,897.487
1718.64,879.111
1720.09,880.613
1721.54,883.853
1722.99,861.709
1724.44,865.842
1725.89,890.206
1727.34,898.342
1728.79,898.452
1730.24,876.639
1731.69,861.866
1733.14,898.533
1734.59,869.652
1736.04,862.631
1737.49,884.413
1738.94,866.236
1740.39,863.549
1741.84,880.249
1743.29,865.134
1744.74,859.379
1746.19,844.663
1747.64,836.696
1749.09,849.164
1750.54,836.784
1751.99,834.929
1753.44,847.867
1754.89,837.125
1756.35,835.318
1757.8,855.059
1759.25,850.16
1760.7,839.693
1762.15,843.423
1763.6,823.608
1765.05,824.982
1766.5,838.153
1767.95,832.656
1769.4,808.505
1770.85,805.736
1772.3,799.516
1773.75,813.059
1775.2,807.518
1776.65,806.227
1778.1,807.728
1779.55,812.412
1781,807.28
1782.45,810.256
1783.9,807.022
1785.35,817.606
1786.8,820.509
1788.25,817.042
1789.7,809.157
1791.15,806.511
1792.6,817.919
1794.05,815.425
1795.5,811.193
1796.95,807.982
1798.4,812.294
1799.85,821.007
1801.31,797.413
1802.76,797.38
1804.21,780.816
1805.66,804.234
1807.11,764.638
1808.56,781.283
1810.01,789.277
1811.46,790.283
1812.91,770.568
1814.36,795.538
1815.81,812.015
1817.26,818.891
1818.71,818.088
1820.16,807.964
1821.61,800.239
1823.06,790.67
1824.51,797.855
1825.96,800.062
1827.41,791.914
1828.86,805.327
1830.31,811.895
1831.76,805.283
1833.21,812.782
1834.66,802.453
1836.11,802.183
1837.56,792.275
1839.01,817.103
1840.46,835.567
1841.91,800.49
1843.36,810.763
1844.82,824.361
1846.27,812.099
1847.72,823.224
1849.17,830.593
1850.62,823.143
1852.07,825.509
1853.52,843.902
1854.97,844.526
1856.42,829.071
1857.87,822.345
1859.32,846.647
1860.77,857.34
1862.22,847.037
1863.67,835.725
1865.12,840.503
1866.57,844.088
1868.02,834.704
1869.47,820.357
1870.92,813.213
1872.37,824.862
1873.82,835.766
1875.27,827.177
1876.72,816.384
1878.17,825.047
1879.62,817.038
1881.07,810.269
1882.52,800.615
1883.97,802.751
1885.42,803.565
1886.87,810.767
1888.32,807.965
1889.78,797.451
1891.23,804.581
1892.68,800.967
1894.13,807.019
1895.58,800.996
1897.03,809.23
1898.48,808.065
1899.93,788.635
1901.38,791.141
1902.83,785.095
1904.28,779.76
1905.73,784.626
1907.18,796.822
1908.63,796.741
1910.08,788.116
1911.53,775.303
1912.98,763.967
1914.43,772.257
1915.88,778.56
1917.33,764.895
1918.78,765.219
1920.23,779.822
1921.68,781.17
1923.13,779.836
1924.58,777.362
1926.03,770.017
1927.48,772.449
1928.93,781.455
1930.38,777.396
1931.83,774.045
1933.29,752.405
1934.74,776.086
1936.19,781.716
1937.64,751.426
1939.09,764.377
1940.54,756.528
1941.99,774.052
1943.44,775.946
1944.89,776.783
1946.34,778.44
1947.79,760.733
1949.24,777.15
1950.69,764.389
1952.14,784.51
1953.59,788.912
1955.04,774.233
1956.49,784.381
1957.94,779.829
1959.39,769.473
1960.84,778.676
1962.29,775.79
1963.74,782.907
1965.19,788.166
1966.64,787.358
1968.09,801.526
1969.54,809.33
1970.99,811.123
1972.44,815.158
1973.89,799.395
1975.34,799.615
1976.79,808.005
1978.25,806.538
1979.7,796.463
1981.15,797.793
1982.6,803.993
1984.05,795.577
1985.5,802.617
1986.95,796.907
1988.4,786.622
1989.85,807.772
1991.3,801.234
1992.75,801.746
1994.2,804.911
1995.65,810.108
1997.1,812.694
1998.55,806.225
2000,798.896
2001.45,813.054
2002.9,803.606
2004.35,797.18
2005.8,801.923
2007.25,808.611
2008.7,813.103
2010.15,814.239
2011.6,818.657
2013.05,792.666
2014.5,787.054
2015.95,798.18
2017.4,788.116
2018.85,769.565
2020.3,797.641
2021.75,800.657
2023.21,774.302
2024.66,794.68
2026.11,785.276
2027.56,796.16
2029.01,800.123
2030.46,779.756
2031.91,781.716
2033.36,769.352
2034.81,778.283
2036.26,792.491
2037.71,783.733
2039.16,784.97
2040.61,794.212
2042.06,772.009
2043.51,757.146
2044.96,768.018
2046.41,745.84
2047.86,758.036
2049.31,768.216
2050.76,758.28
2052.21,756.709
2053.66,775.057
2055.11,779.432
2056.56,762.56
2058.01,755.838
2059.46,771.659
2060.91,773.476
2062.36,763.318
2063.81,755.172
2065.26,746.422
2066.72,749.339
2068.17,760.756
2069.62,739.486
2071.07,742.836
2072.52,764.741
2073.97,763.029
2075.42,756.43
2076.87,758.092
2078.32,754.742
2079.77,740.877
2081.22,751.492
2082.67,764.707
2084.12,761.203
2085.57,743.96
2087.02,745.106
2088.47,730.674
2089.92,729.72
2091.37,736.655
2092.82,749.4
2094.27,768.267
2095.72,757.639
2097.17,751.178
2098.62,753.827
2100.07,743.335
2101.52,734.276
2102.97,741.529
2104.42,734.205
2105.87,746.685
2107.32,751.803
2108.77,755.128
2110.22,756.653
2111.68,762.464
2113.13,753.068
2114.58,748.413
2116.03,761.173
2117.48,761.649
2118.93,749.54
2120.38,763.498
2121.83,762.586
2123.28,740.418
2124.73,753.988
2126.18,763.379
2127.63,757.952
2129.08,760.737
2130.53,766.367
2131.98,771.584
2133.43,771.062
2134.88,770.999
2136.33,766.262
2137.78,772.702
2139.23,772.437
2140.68,771.308
2142.13,763.769
2143.58,762.532
2145.03,787.849
2146.48,789.281
2147.93,779.928
2149.38,769.522
2150.83,771.161
2152.28,782.896
2153.73,783.463
2155.18,773.89
2156.64,778.455
2158.09,779.401
2159.54,776.696
2160.99,785.925
2162.44,787.225
2163.89,788.029
2165.34,780.949
2166.79,785.966
2168.24,810.563
2169.69,803.948
2171.14,793.332
2172.59,794.342
2174.04,795.961
2175.49,802.124
2176.94,804.222
2178.39,798.014
2179.84,799.207
2181.29,800.151
2182.74,805.111
2184.19,803.433
2185.64,797.459
2187.09,802.958
2188.54,809.901
2189.99,810.137
2191.44,805.177
2192.89,814.715
2194.34,814.358
2195.79,814.195
2197.24,821.515
2198.69,818.913
2200.15,806.985
2201.6,808.531
2203.05,809.009
2204.5,826.686
2205.95,822.29
2207.4,826
2208.85,818.718
2210.3,824.895
2211.75,833.296
2213.2,836.324
2214.65,828.977
2216.1,829.062
2217.55,835.442
2219,840.843
2220.45,818.5
2221.9,838.213
2223.35,848.882
2224.8,847.278
2226.25,833.29
2227.7,818.966
2229.15,844.181
2230.6,857.266
2232.05,856.706
2233.5,836.385
2234.95,842.576
2236.4,842.724
2237.85,846.446
2239.3,826.453
2240.75,832.095
2242.2,851.301
2243.65,863.259
2245.11,841.347
2246.56,861.362
2248.01,853.7
2249.46,851.177
2250.91,868.305
2252.36,859.523
2253.81,853.537
2255.26,863.166
2256.71,850.045
2258.16,858.943
2259.61,870.295
2261.06,864.529
2262.51,843.469
2263.96,867.815
2265.41,876.155
2266.86,863.788
2268.31,847.558
2269.76,860.994
2271.21,879.404
2272.66,869.818
2274.11,868.474
2275.56,855.734
2277.01,857.848
2278.46,883.129
2279.91,883.511
2281.36,900.469
2282.81,905.185
2284.26,875.641
2285.71,875.218
2287.16,888.752
2288.61,902.818
2290.07,889.841
2291.52,874.863
2292.97,895.291
2294.42,900.509
2295.87,904.451
2297.32,906.627
2298.77,884.258
2300.22,906.709
2301.67,938.313
2303.12,937.155
2304.57,923.717
2306.02,907.246
2307.47,913.092
2308.92,910.295
2310.37,922.899
2311.82,919.168
2313.27,932.142
2314.72,913.42
2316.17,941.606
2317.62,922.678
2319.07,932.898
2320.52,949.165
2321.97,936.072
2323.42,939.121
2324.87,967.409
2326.32,947.288
2327.77,950.814
2329.22,943.838
2330.67,970.535
2332.12,974.469
2333.57,977.734
2335.03,980.221
2336.48,955.712
2337.93,954.304
2339.38,974.157
2340.83,994.073
2342.28,986.638
2343.73,996.195
2345.18,986.622
2346.63,1000.34
2348.08,1015.56
2349.53,1016.92
2350.98,1014.38
2352.43,1030.22
2353.88,1024.55
2355.33,1028.55
2356.78,1031.43
2358.23,1051.32
2359.68,1040.63
2361.13,1054.2
2362.58,1083.48
2364.03,1090.34
2365.48,1068.92
2366.93,1074.54
2368.38,1100.54
2369.83,1101.93
2371.28,1095.93
2372.73,1103.29
2374.18,1137.44
2375.63,1149.83
2377.08,1156.82
2378.54,1162.7
2379.99,1162.98
2381.44,1173.07
2382.89,1207.62
2384.34,1218.58
2385.79,1209.54
2387.24,1221.61
2388.69,1248.19
2390.14,1268.05
2391.59,1291.16
2393.04,1290.13
2394.49,1296.4
2395.94,1318.91
2397.39,1308.6
2398.84,1313.28
2400.29,1373.9
2401.74,1399.21
2403.19,1405.29
2404.64,1411.74
2406.09,1415.39
2407.54,1455.22
2408.99,1440.85
2410.44,1452.82
2411.89,1447.92
2413.34,1485.16
2414.79,1502.76
2416.24,1476.37
2417.69,1512.18
2419.14,1504.26
2420.59,1518.09
2422.04,1527.42
2423.5,1520
2424.95,1535.15
2426.4,1547.13
2427.85,1545.3
2429.3,1524.6
2430.75,1521.14
2432.2,1505.87
2433.65,1514.71
2435.1,1520.58
2436.55,1533.39
2438,1494.81
2439.45,1504.26
2440.9,1508.81
2442.35,1503.67
2443.8,1477.35
2445.25,1470.16
2446.7,1492.79
2448.15,1473.58
2449.6,1465.42
2451.05,1473.93
2452.5,1452.27
2453.95,1462.13
2455.4,1451.13
2456.85,1438.85
2458.3,1415.55
2459.75,1381.85
2461.2,1392.51
2462.65,1393.2
2464.1,1400.15
2465.55,1411.28
2467.01,1423.32
2468.46,1387.02
2469.91,1420.83
2471.36,1416.85
2472.81,1395.61
2474.26,1384.58
2475.71,1377.33
2477.16,1410.91
2478.61,1399.9
2480.06,1390.64
2481.51,1397.8
2482.96,1373.62
2484.41,1391.99
2485.86,1384.14
2487.31,1390.64
2488.76,1389.72
2490.21,1394.05
2491.66,1383.08
2493.11,1392.87
2494.56,1423.07
2496.01,1406.02
2497.46,1411.48
2498.91,1408.95
2500.36,1435.51
2501.81,1426.71
2503.26,1421.36
2504.71,1446.04
2506.16,1457.79
2507.61,1440.96
2509.06,1455.35
2510.51,1456.06
2511.97,1447.96
2513.42,1429.59
2514.87,1474.58
2516.32,1473.51
2517.77,1464.07
2519.22,1484.63
2520.67,1489.19
2522.12,1486.68
2523.57,1512.34
2525.02,1555.24
2526.47,1567.36
2527.92,1570.68
2529.37,1573.43
2530.82,1606.89
2532.27,1619.46
2533.72,1616.78
2535.17,1630.72
2536.62,1635.75
2538.07,1671.03
2539.52,1656.23
2540.97,1691
2542.42,1710.43
2543.87,1713.27
2545.32,1751.07
2546.77,1743.79
2548.22,1793.82
2549.67,1837.18
2551.12,1855.56
2552.57,1868.15
2554.02,1870.21
2555.48,1879.9
2556.93,1917.51
2558.38,1962.76
2559.83,1986.41
2561.28,2010.28
2562.73,2039.55
2564.18,2112.92
2565.63,2121.65
2567.08,2177.09
2568.53,2197.83
2569.98,2297.36
2571.43,2337.36
2572.88,2369.72
2574.33,2408.97
2575.78,2466.06
2577.23,2511.37
2578.68,2563.49
2580.13,2627.5
2581.58,2660.58
2583.03,2695.33
2584.48,2787.79
2585.93,2858.8
2587.38,2919.74
2588.83,3043.82
2590.28,3085.5
2591.73,3146.33
2593.18,3268.81
2594.63,3386.35
2596.08,3464.46
2597.53,3574.39
2598.98,3721.25
2600.44,3825.35
2601.89,3931
2603.34,4068.62
2604.79,4211.69
2606.24,4310.45
2607.69,4476.19
2609.14,4621.61
2610.59,4798.23
2612.04,4929.41
2613.49,5152.75
2614.94,5265.21
2616.39,5413.37
2617.84,5678.42
2619.29,5835.49
2620.74,6039.47
2622.19,6291.89
2623.64,6499.55
2625.09,6665.45
2626.54,6868.54
2627.99,7074.88
2629.44,7318.1
2630.89,7476.94
2632.34,7693.76
2633.79,7938.8
2635.24,8159.63
2636.69,8395.52
2638.14,8560.29
2639.59,8720.59
2641.04,8941.73
2642.49,9144.68
2643.94,9281.36
2645.4,9422.52
2646.85,9523.63
2648.3,9650.05
2649.75,9725.52
2651.2,9785.32
2652.65,9820.97
2654.1,9755.89
2655.55,9776.58
2657,9822.67
2658.45,9744.02
2659.9,9721.37
2661.35,9683.17
2662.8,9590.72
2664.25,9419.17
2665.7,9273.47
2667.15,9162.16
2668.6,9001.92
2670.05,8740.35
2671.5,8503.43
2672.95,8411.9
2674.4,8111.88
2675.85,7977.13
2677.3,7718.47
2678.75,7484.37
2680.2,7268.53
2681.65,6989.98
2683.1,6801.93
2684.55,6603.21
2686,6417.68
2687.45,6184.52
2688.91,5912.43
2690.36,5710.01
2691.81,5465.1
2693.26,5259.19
2694.71,5085.06
2696.16,4909.46
2697.61,4651.51
2699.06,4562.77
2700.51,4436.91
2701.96,4276.54
2703.41,4108.23
2704.86,3946
2706.31,3799.53
2707.76,3671.63
2709.21,3531.66
2710.66,3383.02
2712.11,3271.67
2713.56,3180
2715.01,3081.33
2716.46,3067.36
2717.91,2919.04
2719.36,2851.16
2720.81,2753.59
2722.26,2637.4
2723.71,2605.52
2725.16,2555.02
2726.61,2464.61
2728.06,2411.35
2729.51,2390.56
2730.96,2294.6
2732.41,2274.26
2733.87,2217.32
2735.32,2135.56
2736.77,2111.38
2738.22,2063.83
2739.67,2045.8
2741.12,1999.01
2742.57,1968.57
2744.02,1957.02
2745.47,1865.42
2746.92,1871.14
2748.37,1831.85
2749.82,1823.05
2751.27,1782.87
2752.72,1745.57
2754.17,1756.33
2755.62,1700.92
2757.07,1663.55
2758.52,1666.19
2759.97,1644.3
2761.42,1627.24
2762.87,1629.77
2764.32,1581.04
2765.77,1578.85
2767.22,1579.78
2768.67,1547.27
2770.12,1528.72
2771.57,1531.31
2773.02,1504.68
2774.47,1503.09
2775.92,1485.76
2777.38,1478.83
2778.83,1464.4
2780.28,1449.32
2781.73,1430.51
2783.18,1398.46
2784.63,1435.66
2786.08,1388.78
2787.53,1395.85
2788.98,1388.34
2790.43,1369.46
2791.88,1371.02
2793.33,1362.46
2794.78,1333.16
2796.23,1351.22
2797.68,1326.06
2799.13,1349.6
2800.58,1321.55
2802.03,1311.03
2803.48,1293.29
2804.93,1326.19
2806.38,1313.84
2807.83,1288.3
2809.28,1281.5
2810.73,1283.1
2812.18,1264.66
2813.63,1282.65
2815.08,1262.53
2816.53,1263.62
2817.98,1259.93
2819.43,1265.92
2820.88,1260.64
2822.33,1242.42
2823.79,1226.97
2825.24,1238.3
2826.69,1243.72
2828.14,1239.07
2829.59,1223.49
2831.04,1229.74
2832.49,1203.61
2833.94,1207.02
2835.39,1223.83
2836.84,1210.84
2838.29,1181.78
2839.74,1174.4
2841.19,1182.24
2842.64,1202.68
2844.09,1197.63
2845.54,1187.11
2846.99,1158.18
2848.44,1204.66
2849.89,1189.45
2851.34,1186.53
2852.79,1191.34
2854.24,1187.99
2855.69,1181.53
2857.14,1179.51
2858.59,1181.63
2860.04,1155.95
2861.49,1203.9
2862.94,1155.31
2864.39,1166.49
2865.84,1186.15
2867.3,1190.33
2868.75,1170.04
2870.2,1167.86
2871.65,1163.91
2873.1,1157.18
2874.55,1147.37
2876,1143.64
2877.45,1169.72
2878.9,1175.61
2880.35,1138.36
2881.8,1142.58
2883.25,1162.42
2884.7,1166.67
2886.15,1162.91
2887.6,1157.12
2889.05,1163.78
2890.5,1171.95
2891.95,1155.89
2893.4,1158.6
2894.85,1150.29
2896.3,1155.04
2897.75,1154.39
2899.2,1156.37
2900.65,1158.6
2902.1,1156.48
2903.55,1138.34
2905,1145.63
2906.45,1153.85
2907.9,1144.69
2909.35,1138.94
2910.8,1133.04
2912.26,1119.45
2913.71,1131.18
2915.16,1118.83
2916.61,1125.61
2918.06,1102.1
2919.51,1130.53
2920.96,1117.04
2922.41,1132.36
2923.86,1117.29
2925.31,1108.5
2926.76,1119.55
2928.21,1113.18
2929.66,1105.2
2931.11,1095.46
2932.56,1095.53
2934.01,1093.57
2935.46,1071.93
2936.91,1070.16
2938.36,1070.75
2939.81,1069.07
2941.26,1062.68
2942.71,1057.58
2944.16,1072.71
2945.61,1069.35
2947.06,1049.95
2948.51,1049.64
2949.96,1038.9
2951.41,1048.28
2952.86,1054.38
2954.31,1049.19
2955.77,1026.65
2957.22,1025.27
2958.67,1013
2960.12,1033.3
2961.57,1005.56
2963.02,1022.63
2964.47,1017.34
2965.92,1021.32
2967.37,1013.95
2968.82,1013.72
2970.27,1009.51
2971.72,1009.38
2973.17,997.47
2974.62,995.679
2976.07,987.418
2977.52,982.845
2978.97,985.07
2980.42,992.539
2981.87,983.6
2983.32,984.804
2984.77,979.743
2986.22,984.094
2987.67,982.241
2989.12,997.022
2990.57,984.015
2992.02,987.155
2993.47,987.734
2994.92,988.874
2996.37,977.1
2997.82,989.013
2999.27,997.205
3000.73,973.374
3002.18,982.559
3003.63,957.917
3005.08,983.729
3006.53,986.394
3007.98,982.244
3009.43,983.772
3010.88,974.309
3012.33,964.175
3013.78,951.938
3015.23,963.138
3016.68,972.647
3018.13,982.798
3019.58,950.901
3021.03,950.319
3022.48,956.221
3023.93,966.999
3025.38,973.567
3026.83,979.225
3028.28,977.24
3029.73,983.866
3031.18,972.651
3032.63,960.913
3034.08,984.662
3035.53,960.918
3036.98,969.195
3038.43,945.387
3039.88,960.496
3041.33,1000.7
3042.78,996.236
3044.23,974.449
3045.69,974.366
3047.14,967.458
3048.59,962.578
3050.04,971.413
3051.49,946.863
3052.94,970.227
3054.39,974.034
3055.84,956.487
3057.29,976.692
3058.74,982.016
3060.19,1008.41
3061.64,988.156
3063.09,1002.47
3064.54,993.307
3065.99,986.388
3067.44,994.295
3068.89,1005.3
3070.34,1003.98
3071.79,987.58
3073.24,1007.57
3074.69,1016.97
3076.14,1025.06
3077.59,1024.55
3079.04,1038.12
3080.49,1048.86
3081.94,1047.71
3083.39,1012.25
3084.84,1041.52
3086.29,1067.1
3087.74,1042.01
3089.2,1061.12
3090.65,1074.95
3092.1,1098.99
3093.55,1085.73
3095,1090.12
3096.45,1090.43
3097.9,1098.79
3099.35,1093.65
3100.8,1099.95
3102.25,1127.54
3103.7,1113.69
3105.15,1155.32
3106.6,1163.38
3108.05,1162.78
3109.5,1158.95
3110.95,1177.06
3112.4,1190.07
3113.85,1201.4
3115.3,1163.79
3116.75,1197.65
3118.2,1240.72
3119.65,1231.4
3121.1,1251.15
3122.55,1271.66
3124,1264.74
3125.45,1264.46
3126.9,1287.34
3128.35,1289.87
3129.8,1274.65
3131.25,1300.26
3132.7,1302.2
3134.16,1293.3
3135.61,1303.48
3137.06,1287.94
3138.51,1296.94
3139.96,1336.86
3141.41,1341.59
3142.86,1342.89
3144.31,1345.5
3145.76,1329.66
3147.21,1342.66
3148.66,1382.46
3150.11,1370.41
3151.56,1355.06
3153.01,1357.16
3154.46,1367.31
3155.91,1349.14
3157.36,1381.67
3158.81,1373.34
3160.26,1389.45
3161.71,1383.19
3163.16,1374.21
3164.61,1389.73
3166.06,1378.74
3167.51,1391.69
3168.96,1397.56
3170.41,1430.41
3171.86,1451.88
3173.31,1432.35
3174.76,1438.62
3176.21,1444.31
3177.67,1444.17
3179.12,1474.31
3180.57,1462.91
3182.02,1465.9
3183.47,1489.01
3184.92,1494.33
3186.37,1506.04
3187.82,1503.57
3189.27,1487.82
3190.72,1498
3192.17,1498.22
3193.62,1496.7
3195.07,1488.72
3196.52,1482.89
3197.97,1485.43
3199.42,1481.39
3200.87,1453.21
3202.32,1477.91
3203.77,1441.34
3205.22,1417.88
3206.67,1399.8
3208.12,1458.18
3209.57,1411.9
3211.02,1380.68
3212.47,1366.19
3213.92,1373.2
3215.37,1360.95
3216.82,1340.06
3218.27,1346.36
3219.72,1320.79
3221.17,1305.52
3222.63,1292.29
3224.08,1288.84
3225.53,1266.73
3226.98,1231.57
3228.43,1228.03
3229.88,1210.65
3231.33,1191.73
3232.78,1161.88
3234.23,1155.05
3235.68,1131.75
3237.13,1089.57
3238.58,1125.14
3240.03,1125.85
3241.48,1101.03
3242.93,1081.19
3244.38,1070.87
3245.83,1044.88
3247.28,1035.34
3248.73,1032.85
3250.18,1046.45
3251.63,1029.44
3253.08,1010.29
3254.53,1007.41
3255.98,983.289
3257.43,975.674
3258.88,988.138
3260.33,970.477
3261.78,991.61
3263.23,982.116
3264.68,955.211
3266.13,976.713
3267.59,997.13
3269.04,969.393
3270.49,957.712
3271.94,975.787
3273.39,949.989
3274.84,938.001
3276.29,975.547
3277.74,934.778
3279.19,940.247
3280.64,960.48
3282.09,958.128
3283.54,951.523
3284.99,932.886
3286.44,939.984
3287.89,946.187
3289.34,921.689
3290.79,937.953
3292.24,943.035
3293.69,940.921
3295.14,939.199
3296.59,937.337
3298.04,926.578
3299.49,939.527
3300.94,936.612
3302.39,957.876
3303.84,932.38
3305.29,928.948
3306.74,940.353
3308.19,933.889
3309.64,935.823
3311.09,945.647
3312.55,940.969
3314,959.078
3315.45,944.483
3316.9,936.71
3318.35,930.303
3319.8,924.234
3321.25,939.775
3322.7,927.106
3324.15,927.257
3325.6,948.459
3327.05,948.555
3328.5,925.341
3329.95,933.885
3331.4,954.639
3332.85,933.275
3334.3,932.453
3335.75,925.354
3337.2,930.8
3338.65,919.353
3340.1,939.756
3341.55,924.139
3343,925.528
3344.45,922.599
3345.9,928.287
3347.35,884.507
3348.8,930.75
3350.25,936.152
3351.7,945.754
3353.15,945.377
3354.6,935.301
3356.06,929.074
3357.51,946.228
3358.96,906.655
3360.41,915.59
3361.86,921.066
3363.31,934.452
3364.76,909.388
3366.21,924.629
3367.66,948.115
3369.11,943.97
3370.56,938.491
3372.01,941.045
3373.46,915.153
3374.91,947.993
3376.36,951.278
3377.81,938.794
3379.26,921.324
3380.71,951.9
3382.16,959.605
3383.61,945.193
3385.06,937.689
3386.51,927.83
3387.96,940.299
3389.41,962.555
3390.86,960.278
3392.31,928.65
3393.76,938.437
3395.21,947.295
3396.66,916.982
3398.11,946.901
3399.56,943.128
3401.02,944.126
3402.47,943.169
3403.92,931.785
3405.37,946.708
3406.82,924.154
3408.27,957.561
3409.72,940.446
3411.17,944.299
3412.62,926.733
3414.07,953.761
3415.52,925.863
3416.97,950.201
3418.42,948.859
3419.87,940.765
3421.32,936.077
3422.77,935.265
3424.22,946.361
3425.67,965.38
3427.12,975.864
3428.57,947.334
3430.02,951.896
3431.47,945.882
3432.92,928.41
3434.37,942.546
3435.82,955.623
3437.27,957.27
3438.72,962.457
3440.17,941.558
3441.62,946.863
3443.07,951.163
3444.52,961.5
3445.98,949.474
3447.43,922.401
3448.88,932.217
3450.33,938.666
3451.78,946.722
3453.23,964.134
3454.68,944.306
3456.13,949.791
3457.58,973.708
3459.03,949.608
3460.48,944.074
3461.93,946.222
3463.38,938.079
3464.83,957.153
3466.28,956.578
3467.73,934.1
3469.18,964.454
3470.63,955.313
3472.08,951.154
3473.53,945.813
3474.98,954.063
3476.43,926.308
3477.88,970.661
3479.33,959.025
3480.78,956.099
3482.23,966.424
3483.68,960.927
3485.13,951.499
3486.58,958.358
3488.03,945.476
3489.49,945.272
3490.94,946.933
3492.39,948.441
3493.84,962.7
3495.29,946.131
3496.74,958.439
3498.19,945.05
3499.64,978.705
3501.09,945.675
3502.54,977.31
3503.99,965.299
3505.44,948.903
3506.89,971.674
3508.34,968.773
3509.79,984.405
3511.24,979.14
3512.69,977.72
3514.14,965.285
3515.59,974.742
3517.04,1005.28
3518.49,981.334
3519.94,965.171
3521.39,946.221
3522.84,989.706
3524.29,968.414
3525.74,957.109
3527.19,981.39
3528.64,970.906
3530.09,977.315
3531.54,955.376
3532.99,958.129
3534.45,968.993
3535.9,991.978
3537.35,966.96
3538.8,967.331
3540.25,950.459
3541.7,954.001
3543.15,959.367
3544.6,966.802
3546.05,994.277
3547.5,983.559
3548.95,991.599
3550.4,986.278
3551.85,986.283
3553.3,955.021
3554.75,962.379
3556.2,963.637
3557.65,981.868
3559.1,972.604
3560.55,967.49
3562,955.404
3563.45,988.966
3564.9,986.311
3566.35,968.016
3567.8,990.907
3569.25,973.524
3570.7,984.65
3572.15,987.084
3573.6,991.099
3575.05,985.334
3576.5,957.493
3577.96,954.567
3579.41,978.801
3580.86,970.988
3582.31,984.237
3583.76,992.115
3585.21,989.801
3586.66,981.654
3588.11,996.806
3589.56,976.675
3591.01,993.29
3592.46,1004.7
3593.91,978.103
3595.36,981.499
3596.81,996.201
3598.26,990.918
3599.71,973.122
3601.16,986.815
3602.61,998.096
3604.06,985.72
3605.51,983.598
3606.96,981.89
3608.41,997.036
3609.86,988.435
3611.31,1000.27
3612.76,978.001
3614.21,976.792
3615.66,1016.34
3617.11,985.653
3618.56,996.965
3620.01,988.777
3621.46,1000.37
3622.92,998.985
3624.37,999.659
3625.82,999.923
3627.27,1003.5
3628.72,973.846
3630.17,988.734
3631.62,1002.56
3633.07,981.092
3634.52,1000.37
3635.97,1002.52
3637.42,1000.17
3638.87,1008.4
3640.32,981.009
3641.77,1020.92
3643.22,1022.89
3644.67,1007.13
3646.12,1007.75
3647.57,1010.83
3649.02,1005.9
3650.47,1017.67
3651.92,1009.38
3653.37,1019.12
3654.82,1013.71
3656.27,1008.57
3657.72,1004.32
3659.17,1019.23
3660.62,1027.25
3662.07,1017.65
3663.52,1014.93
3664.97,1019.64
3666.43,1013.4
3667.88,1032.01
3669.33,1001.49
3670.78,1006.29
3672.23,1017.84
3673.68,1027.78
3675.13,1027.92
3676.58,1031.92
3678.03,1016.24
3679.48,1032.09
3680.93,1039.39
3682.38,1016.91
3683.83,1015.71
3685.28,1013.91
3686.73,1037.68
3688.18,1029.27
3689.63,1031.64
3691.08,1022.09
3692.53,1038.11
3693.98,1026.74
3695.43,1036.95
3696.88,1026.32
3698.33,1014.64
3699.78,1014.74
3701.23,1027.34
3702.68,1031.6
3704.13,1050.2
3705.58,1031.4
3707.03,1050.01
3708.48,1030.18
3709.93,1025.46
3711.39,1037.19
3712.84,1010.91
3714.29,1044.33
3715.74,1034.36
3717.19,1036.78
3718.64,1043.55
3720.09,1036.01
3721.54,1035.54
3722.99,1035.51
3724.44,1040.96
3725.89,1029.33
3727.34,1016.95
3728.79,1020.54
3730.24,1016.28
3731.69,1047.24
3733.14,1043.42
3734.59,1046.53
3736.04,1033.3
3737.49,1036.88
3738.94,1049.56
3740.39,1067.81
3741.84,1032.36
3743.29,1063.08
3744.74,1072.47
3746.19,1042.99
3747.64,1055.5
3749.09,1065.4
3750.54,1038.44
3751.99,1043.33
3753.44,1049.95
3754.89,1052.4
3756.35,1062.89
3757.8,1057.73
3759.25,1057.07
3760.7,1057.94
3762.15,1054.26
3763.6,1042.08
3765.05,1061.22
3766.5,1060.58
3767.95,1066.71
3769.4,1063.02
3770.85,1059.44
3772.3,1049.87
3773.75,1051.69
3775.2,1059.54
3776.65,1056.11
3778.1,1072.25
3779.55,1057.09
3781,1073.9
3782.45,1086.77
3783.9,1067.49
3785.35,1051.39
3786.8,1091.61
3788.25,1051.02
3789.7,1071.68
3791.15,1054.64
3792.6,1087.16
3794.05,1065.51
3795.5,1051.65
3796.95,1060.2
3798.4,1048.81
3799.85,1073.01
3801.31,1073.6
3802.76,1051.98
3804.21,1099.22
3805.66,1095.02
3807.11,1095.86
3808.56,1085.39
3810.01,1094.75
3811.46,1102.35
3812.91,1099.98
3814.36,1083.68
3815.81,1084.53
3817.26,1089.52
3818.71,1088.73
3820.16,1099.81
3821.61,1102.49
3823.06,1082.1
3824.51,1075.41
3825.96,1096.67
3827.41,1097.63
3828.86,1095.77
3830.31,1106.57
3831.76,1096.08
3833.21,1102.83
3834.66,1119.31
3836.11,1116.76
3837.56,1109.9
3839.01,1102.38
3840.46,1102.83
3841.91,1093.16
3843.36,1091.28
3844.82,1060.46
3846.27,1098.76
3847.72,1112.96
3849.17,1110.44
3850.62,1129.43
3852.07,1115.95
3853.52,1109.9
3854.97,1111.54
3856.42,1110.12
3857.87,1109.92
3859.32,1121.17
3860.77,1116.08
3862.22,1114.14
3863.67,1127.26
3865.12,1124.96
3866.57,1114.27
3868.02,1114.61
3869.47,1139.1
3870.92,1113.83
3872.37,1108.12
3873.82,1125.76
3875.27,1148.46
3876.72,1160.62
3878.17,1155.37
3879.62,1125.5
3881.07,1132.37
3882.52,1131.53
3883.97,1134.61
3885.42,1147.31
3886.87,1146.36
3888.32,1156.02
3889.78,1139.16
3891.23,1149.17
3892.68,1143.74
3894.13,1141.2
3895.58,1150.47
3897.03,1164.83
3898.48,1167.25
3899.93,1176.01
3901.38,1169.98
3902.83,1146.51
3904.28,1172.39
3905.73,1175.19
3907.18,1176.45
3908.63,1155.6
3910.08,1169.97
3911.53,1165.61
3912.98,1184.65
3914.43,1174.78
3915.88,1176.66
3917.33,1163.92
3918.78,1155.13
3920.23,1178.36
3921.68,1185.78
3923.13,1201.69
3924.58,1181.06
3926.03,1191.15
3927.48,1186.32
3928.93,1227.77
3930.38,1185.24
3931.83,1191.02
3933.28,1196.2
3934.74,1202.09
3936.19,1223.06
3937.64,1209.53
3939.09,1190.89
3940.54,1223.84
3941.99,1210.49
3943.44,1201.78
3944.89,1207.36
3946.34,1219.73
3947.79,1232.8
3949.24,1223.81
3950.69,1227.85
3952.14,1235.12
3953.59,1241.73
3955.04,1245.76
3956.49,1209.57
3957.94,1250.89
3959.39,1222.71
3960.84,1219.61
3962.29,1229.44
3963.74,1223.24
3965.19,1213.28
3966.64,1259.73
3968.09,1230.88
3969.54,1254.16
3970.99,1225.05
3972.44,1249.23
3973.89,1244.99
3975.34,1272.63
3976.79,1266.12
3978.25,1274.36
3979.7,1271.24
3981.15,1258.14
3982.6,1265.57
3984.05,1277.29
3985.5,1282.97
3986.95,1299.85
3988.4,1278.21
3989.85,1283.85
3991.3,1278.74
3992.75,1287
3994.2,1302.53
3995.65,1275.17
3997.1,1339.14
3998.55,1284.12
4000,1286.88
