0,3.95934
1.45033,3.95934
2.90065,3.95934
4.35098,3.95934
5.80131,3.95934
7.25163,3.95934
8.70196,16.5642
10.1523,7.26611
11.6026,5.72547
13.0529,6.35667
14.5033,7.10778
15.9536,6.44175
17.4039,2.58337
18.8542,0.220942
20.3046,0.174163
21.7549,1.53772
23.2052,3.17973
24.6555,2.98666
26.1059,2.1311
27.5562,0.604689
29.0065,0.140867
30.4569,2.91678
31.9072,1.371
33.3575,1.27641
34.8078,1.11329
36.2582,0.608043
37.7085,1.18806
39.1588,0.162613
40.6091,1.25578
42.0595,3.50489
43.5098,5.5007
44.9601,6.27466
46.4104,5.93364
47.8608,9.17813
49.3111,16.0452
50.7614,24.2113
52.2117,60.229
53.6621,117.059
55.1124,202.515
56.5627,317.948
58.0131,455.322
59.4634,589.907
60.9137,710.564
62.364,795.113
63.8144,833.179
65.2647,902.986
66.715,932.933
68.1653,958.855
69.6157,988.196
71.066,1016.05
72.5163,1028.27
73.9666,1024.67
75.417,1015.54
76.8673,1016.62
78.3176,1059.34
79.7679,1067.43
81.2183,1084.88
82.6686,1115.36
84.1189,1154.6
85.5693,1180.44
87.0196,1187.7
88.4699,1186.76
89.9202,1161.53
91.3706,1090.92
92.8209,1032.57
94.2712,979.192
95.7215,920.047
97.1719,866.019
98.6222,850.452
100.073,820.117
101.523,784.828
102.973,752.682
104.423,727.986
105.874,708.121
107.324,691.784
108.774,683.912
110.225,671.809
111.675,648.618
113.125,653.685
114.576,663.862
116.026,658.119
117.476,637.535
118.927,612.897
120.377,619.732
121.827,606.879
123.278,599.679
124.728,599.31
126.178,590.136
127.629,577.264
129.079,563.948
130.529,555.069
131.98,549.759
133.43,538.43
134.88,524.695
136.331,506.942
137.781,498.887
139.231,501.66
140.682,479.375
142.132,485.269
143.582,476.002
145.033,460.515
146.483,450.98
147.933,436.111
149.384,448.968
150.834,444.948
152.284,429.264
153.735,421.122
155.185,438.743
156.635,423.905
158.086,418.247
159.536,426.078
160.986,435.183
162.437,433.812
163.887,418.706
165.337,401.229
166.788,387.515
168.238,380.772
169.688,382.538
171.139,374.05
172.589,369.152
174.039,367.77
175.489,355.984
176.94,379.105
178.39,384.858
179.84,383.419
181.291,380.003
182.741,372.149
184.191,362.956
185.642,354.279
187.092,344.58
188.542,338.844
189.993,354.978
191.443,341.702
192.893,341.593
194.344,349.207
195.794,352.873
197.244,332.812
198.695,337.294
200.145,338.518
201.595,333.816
203.046,325.729
204.496,324.154
205.946,332.196
207.397,336.841
208.847,341.869
210.297,347.658
211.748,339.975
213.198,340.942
214.648,343.894
216.099,343.125
217.549,337.732
218.999,340.097
220.45,347.328
221.9,342.993
223.35,333.187
224.801,327.597
226.251,338.842
227.701,335.48
229.152,342.441
230.602,337.561
232.052,315.859
233.503,333.253
234.953,334.269
236.403,335.07
237.854,335.866
239.304,335.796
240.754,335.401
242.204,332.245
243.655,329.424
245.105,322.277
246.555,312.302
248.006,315.466
249.456,316.766
250.906,322.101
252.357,327.795
253.807,326.72
255.257,306.313
256.708,311.443
258.158,316.162
259.608,318.732
261.059,320.881
262.509,327.623
263.959,299.846
265.41,296.131
266.86,296.365
268.31,298.13
269.761,318.267
271.211,308.343
272.661,304.354
274.112,298.004
275.562,293.934
277.012,304.763
278.463,303.969
279.913,306.344
281.363,303.551
282.814,300.075
284.264,304.268
285.714,293.733
287.165,296.443
288.615,300.044
290.065,294.864
291.516,279.023
292.966,288.97
294.416,299.44
295.867,292.867
297.317,283.474
298.767,284.175
300.218,279.999
301.668,282.738
303.118,283.969
304.569,272.91
306.019,255.707
307.469,271.647
308.919,264.571
310.37,266.278
311.82,265.449
313.27,259.814
314.721,259.413
316.171,258.815
317.621,261.315
319.072,255.003
320.522,248.942
321.972,261.325
323.423,260.327
324.873,251.677
326.323,251.167
327.774,256.72
329.224,259.736
330.674,250.546
332.125,259.006
333.575,259.471
335.025,252.556
336.476,244.511
337.926,243.911
339.376,242.928
340.827,246.268
342.277,248.425
343.727,249.067
345.178,253.417
346.628,240.01
348.078,246.109
349.529,258.888
350.979,265.274
352.429,255.521
353.88,240.702
355.33,248.76
356.78,253.772
358.231,254.327
359.681,252.993
361.131,247.181
362.582,237.969
364.032,233.827
365.482,236.461
366.933,240.794
368.383,235.456
369.833,233.447
371.284,230.165
372.734,230.072
374.184,230.585
375.635,228.887
377.085,242.94
378.535,249.574
379.986,238.696
381.436,229.92
382.886,235.788
384.336,241.012
385.787,235.128
387.237,230.688
388.687,232.893
390.138,239.218
391.588,241.436
393.038,237.816
394.489,228.637
395.939,233.272
397.389,239.81
398.84,233.693
400.29,224.031
401.74,238.31
403.191,230.723
404.641,229.69
406.091,237.968
407.542,225.636
408.992,231.881
410.442,239.113
411.893,240.607
413.343,240.07
414.793,241.035
416.244,229.946
417.694,238.579
419.144,239.263
420.595,231.68
422.045,225.108
423.495,234.192
424.946,231.973
426.396,228.93
427.846,223.547
429.297,227.006
430.747,242.366
432.197,225.584
433.648,234.169
435.098,231.211
436.548,224.993
437.999,223.057
439.449,225.71
440.899,217.219
442.35,228.706
443.8,228.207
445.25,222.643
446.701,226.614
448.151,237.957
449.601,236.333
451.051,234.105
452.502,232.508
453.952,227.524
455.402,215.714
456.853,229.703
458.303,225.756
459.753,226.055
461.204,226.678
462.654,223.973
464.104,225.384
465.555,222.343
467.005,226.634
468.455,231.071
469.906,227.57
471.356,216.829
472.806,235.107
474.257,237.425
475.707,232.534
477.157,231.558
478.608,236.756
480.058,239.492
481.508,218.17
482.959,228.386
484.409,229.991
485.859,229.497
487.31,233.123
488.76,223.192
490.21,235.591
491.661,241.905
493.111,234.033
494.561,220.948
496.012,217.515
497.462,228.905
498.912,221.345
500.363,225.522
501.813,227.081
503.263,223.355
504.714,223.947
506.164,231.888
507.614,229.354
509.065,226.998
510.515,227.083
511.965,226.706
513.416,219.947
514.866,224.639
516.316,229.842
517.766,230.516
519.217,227.959
520.667,225.087
522.117,223.688
523.568,228.385
525.018,223.959
526.468,220.475
527.919,219.875
529.369,223.148
530.819,239.908
532.27,223.62
533.72,228.03
535.17,227.587
536.621,223.984
538.071,231.109
539.521,233.152
540.972,227.147
542.422,230.481
543.872,227.629
545.323,223.539
546.773,233.45
548.223,228.535
549.674,227.729
551.124,231.526
552.574,233.751
554.025,232.05
555.475,228.951
556.925,227.517
558.376,226.264
559.826,223.478
561.276,222.991
562.727,222.676
564.177,216.197
565.627,224.404
567.078,220.516
568.528,214.418
569.978,213.828
571.429,217.653
572.879,217.033
574.329,224.015
575.78,217.18
577.23,221.477
578.68,226.148
580.131,226.547
581.581,232.152
583.031,219.818
584.482,225.949
585.932,224.831
587.382,223.347
588.832,223.681
590.283,216.266
591.733,216.266
593.183,220.961
594.634,228.829
596.084,224.019
597.534,209.096
598.985,206.826
600.435,208.885
601.885,220.828
603.336,223.9
604.786,225.82
606.236,228.478
607.687,224.955
609.137,223.1
610.587,225.725
612.038,230.134
613.488,230.317
614.938,228.413
616.389,230.7
617.839,225.748
619.289,231.709
620.74,222.937
622.19,221.157
623.64,224.204
625.091,216.82
626.541,215.58
627.991,223.636
629.442,232.896
630.892,234.27
632.342,228.114
633.793,221.008
635.243,219.974
636.693,232.878
638.144,231.867
639.594,226.434
641.044,224.816
642.495,229.786
643.945,235.441
645.395,218.262
646.846,231.366
648.296,237.428
649.746,236.79
651.197,235.706
652.647,233.1
654.097,233.929
655.547,238.072
656.998,238.287
658.448,234.407
659.898,230.92
661.349,232.189
662.799,229.493
664.249,235.986
665.7,237.877
667.15,233.859
668.6,234.816
670.051,245.459
671.501,239.442
672.951,237.573
674.402,239.934
675.852,242.215
677.302,237.648
678.753,230.407
680.203,238.162
681.653,241.075
683.104,243.802
684.554,237.975
686.004,237.733
687.455,241.208
688.905,235.368
690.355,239.736
691.806,247.286
693.256,240.098
694.706,242.559
696.157,246.796
697.607,242.413
699.057,250.992
700.508,241.819
701.958,238.135
703.408,238.337
704.859,239.3
706.309,236.513
707.759,229.908
709.21,247.417
710.66,246.428
712.11,243.506
713.561,240.495
715.011,240.488
716.461,244.132
717.912,243.986
719.362,238.137
720.812,250.801
722.263,252.889
723.713,253.122
725.163,252.464
726.613,239.066
728.064,241.989
729.514,237.233
730.964,239.98
732.415,249.721
733.865,250.34
735.315,239.191
736.766,249.479
738.216,247.804
739.666,243.587
741.117,245.914
742.567,250.928
744.017,253.087
745.468,249.051
746.918,237.944
748.368,238.951
749.819,244.411
751.269,260.485
752.719,262.793
754.17,249.261
755.62,257.373
757.07,266.814
758.521,261.768
759.971,252.504
761.421,243.774
762.872,246.567
764.322,258.482
765.772,246.648
767.223,242.238
768.673,255.91
770.123,254.62
771.574,244.927
773.024,243.986
774.474,256.564
775.925,250.055
777.375,261.199
778.825,252.676
780.276,253.142
781.726,254.625
783.176,254.017
784.627,260.686
786.077,253.74
787.527,264.277
788.978,260.726
790.428,257.286
791.878,256.234
793.328,256.418
794.779,259.559
796.229,260.824
797.68,252.006
799.13,252.392
800.58,258.158
802.03,264.275
803.481,263.199
804.931,248.264
806.381,253.115
807.832,261.462
809.282,265.04
810.732,263.744
812.183,261.03
813.633,257.536
815.083,249.172
816.534,256.986
817.984,250.396
819.434,261.957
820.885,266.136
822.335,263.758
823.785,269.327
825.236,280.155
826.686,270.429
828.136,275.481
829.587,286.742
831.037,281.626
832.487,272.065
833.938,271.413
835.388,261.67
836.838,283.894
838.289,275.552
839.739,268.772
841.189,266.077
842.64,268.7
844.09,272.482
845.54,267.377
846.991,278.819
848.441,270.986
849.891,283.378
851.342,280.277
852.792,265.997
854.242,263.248
855.693,275.504
857.143,260.654
858.593,279.089
860.044,287.361
861.494,291.523
862.944,286.138
864.394,276.817
865.845,280.157
867.295,271.662
868.745,280.051
870.196,276.036
871.646,275.83
873.096,273.911
874.547,268.055
875.997,268.084
877.447,284.385
878.898,287.148
880.348,271.033
881.798,269.377
883.249,267.601
884.699,268.686
886.149,280.105
887.6,276.742
889.05,273.971
890.5,276.632
891.951,281.75
893.401,282.434
894.851,289.263
896.302,298.999
897.752,285.483
899.202,278.875
900.653,272.054
902.103,289.617
903.553,288.43
905.004,280.836
906.454,281.527
907.904,284.861
909.355,284.877
910.805,278.894
912.255,294.649
913.706,302.793
915.156,296.907
916.606,295.377
918.057,304.885
919.507,297.149
920.957,285.385
922.408,302.723
923.858,298.665
925.308,288.001
926.759,289.193
928.209,298.891
929.659,298.35
931.109,289.485
932.56,296.126
934.01,287.459
935.46,294.276
936.911,297.631
938.361,301.737
939.811,309.073
941.262,298.517
942.712,299.589
944.162,285.622
945.613,302.692
947.063,295.303
948.513,283.339
949.964,284.585
951.414,296.117
952.864,319.732
954.315,311.797
955.765,296.498
957.215,304.13
958.666,303.951
960.116,298.649
961.566,294.302
963.017,287.746
964.467,296.695
965.917,297.77
967.368,305.334
968.818,300.345
970.268,296.666
971.719,300.554
973.169,304.273
974.619,297.378
976.07,289.385
977.52,306.585
978.97,307.135
980.421,306.675
981.871,308.73
983.321,301.403
984.772,288.266
986.222,297.614
987.672,304.726
989.123,311.617
990.573,308.133
992.023,304.858
993.474,304.769
994.924,305.336
996.374,301.874
997.825,295.034
999.275,309.491
1000.73,317.574
1002.18,321.389
1003.63,322.454
1005.08,313.916
1006.53,310.949
1007.98,322.803
1009.43,326.783
1010.88,332.832
1012.33,332.694
1013.78,327.171
1015.23,322.212
1016.68,328.019
1018.13,334.585
1019.58,334.373
1021.03,339.532
1022.48,334.15
1023.93,337.396
1025.38,345.502
1026.83,346.068
1028.28,344.105
1029.73,339.508
1031.18,340.076
1032.63,357.494
1034.08,356.713
1035.53,344.363
1036.98,366.19
1038.43,365.263
1039.88,370.186
1041.33,377.127
1042.78,381.876
1044.23,388.875
1045.69,365.24
1047.14,384.116
1048.59,376.954
1050.04,376.109
1051.49,381.694
1052.94,385.999
1054.39,395.044
1055.84,405.889
1057.29,387.14
1058.74,391.267
1060.19,396.247
1061.64,398.491
1063.09,405.787
1064.54,416.978
1065.99,422.655
1067.44,424.57
1068.89,435.828
1070.34,440.131
1071.79,432.734
1073.24,432.631
1074.69,439.01
1076.14,431.158
1077.59,432.654
1079.04,452.633
1080.49,465.338
1081.94,452.221
1083.39,447.429
1084.84,459.274
1086.29,443.023
1087.74,436.346
1089.2,432.155
1090.65,433.938
1092.1,442.397
1093.55,443.546
1095,443.191
1096.45,444.064
1097.9,438.625
1099.35,436.589
1100.8,433.293
1102.25,439.972
1103.7,445.764
1105.15,439.746
1106.6,438.971
1108.05,432.989
1109.5,431.676
1110.95,442.964
1112.4,438.59
1113.85,426.646
1115.3,424.727
1116.75,431.089
1118.2,428.609
1119.65,413.562
1121.1,410.145
1122.55,416.272
1124,412.36
1125.45,415.383
1126.9,412.113
1128.35,412.838
1129.8,416.732
1131.25,410.929
1132.7,406.591
1134.16,410.068
1135.61,400.644
1137.06,400.836
1138.51,401.876
1139.96,398.337
1141.41,407.705
1142.86,412.311
1144.31,395.765
1145.76,409.933
1147.21,410.609
1148.66,413.026
1150.11,399.662
1151.56,397.043
1153.01,389.056
1154.46,392.192
1155.91,404.235
1157.36,405.663
1158.81,402.653
1160.26,393.042
1161.71,391.942
1163.16,394.247
1164.61,392.023
1166.06,394.539
1167.51,397.143
1168.96,394.726
1170.41,395.692
1171.86,406.384
1173.31,394.116
1174.76,413.045
1176.21,396.912
1177.66,402.586
1179.12,400.337
1180.57,393.885
1182.02,387.421
1183.47,389.587
1184.92,402.865
1186.37,397.774
1187.82,404.174
1189.27,394.694
1190.72,409.139
1192.17,417.35
1193.62,421.074
1195.07,419.495
1196.52,417.354
1197.97,416.066
1199.42,409.45
1200.87,420.16
1202.32,419.496
1203.77,423.03
1205.22,413.898
1206.67,414.55
1208.12,409.424
1209.57,402.864
1211.02,407.311
1212.47,418.648
1213.92,423.895
1215.37,422.175
1216.82,422.175
1218.27,420.554
1219.72,417.894
1221.17,417.455
1222.63,420.663
1224.08,418.193
1225.53,422.042
1226.98,444.545
1228.43,434.55
1229.88,415.467
1231.33,431.881
1232.78,424.345
1234.23,444.006
1235.68,441.604
1237.13,440.398
1238.58,435.27
1240.03,421.803
1241.48,430.279
1242.93,440.828
1244.38,443.999
1245.83,433.114
1247.28,437.446
1248.73,444.854
1250.18,438.691
1251.63,453.377
1253.08,473.986
1254.53,466.345
1255.98,446.827
1257.43,456.538
1258.88,476.156
1260.33,466.588
1261.78,465.618
1263.23,471.001
1264.68,473.759
1266.13,475.403
1267.59,472.721
1269.04,473.576
1270.49,486.525
1271.94,497.576
1273.39,517
1274.84,503.164
1276.29,512.165
1277.74,533.199
1279.19,527.936
1280.64,523.538
1282.09,528.312
1283.54,529.882
1284.99,536.378
1286.44,564.391
1287.89,571.784
1289.34,577.611
1290.79,585.65
1292.24,597.33
1293.69,604.38
1295.14,623.141
1296.59,650.166
1298.04,662.082
1299.49,666.124
1300.94,683.378
1302.39,700.852
1303.84,737.383
1305.29,728.884
1306.74,731.54
1308.19,781.334
1309.64,819.533
1311.09,834.06
1312.55,857.71
1314,882.562
1315.45,903.301
1316.9,937.756
1318.35,970.094
1319.8,1029.34
1321.25,1055.33
1322.7,1085.92
1324.15,1136.29
1325.6,1161.4
1327.05,1188.81
1328.5,1216.59
1329.95,1230.98
1331.4,1231.82
1332.85,1241.37
1334.3,1277.08
1335.75,1267.75
1337.2,1251.58
1338.65,1232.98
1340.1,1231.76
1341.55,1234.99
1343,1189.33
1344.45,1160.7
1345.9,1149.63
1347.35,1114.08
1348.8,1074.32
1350.25,1070.48
1351.7,1046.57
1353.15,995.595
1354.6,957.13
1356.06,924.592
1357.51,908.31
1358.96,871.502
1360.41,836.736
1361.86,815.325
1363.31,779.759
1364.76,740.261
1366.21,740.876
1367.66,734.332
1369.11,703.765
1370.56,711.211
1372.01,683.638
1373.46,680.71
1374.91,669.012
1376.36,657.317
1377.81,649.593
1379.26,643.956
1380.71,631.292
1382.16,614.492
1383.61,612.004
1385.06,613.24
1386.51,622.248
1387.96,602.83
1389.41,622.447
1390.86,614.238
1392.31,598.912
1393.76,588.718
1395.21,589.419
1396.66,585.987
1398.11,584.142
1399.56,592.862
1401.02,593.335
1402.47,604.527
1403.92,610.312
1405.37,582.678
1406.82,592.21
1408.27,583.837
1409.72,587.189
1411.17,582.394
1412.62,582.954
1414.07,592.104
1415.52,593.313
1416.97,597.197
1418.42,615.682
1419.87,601.045
1421.32,616.189
1422.77,621.173
1424.22,606.19
1425.67,618.811
1427.12,615.597
1428.57,616.476
1430.02,611.03
1431.47,611.807
1432.92,619.026
1434.37,632.871
1435.82,639.478
1437.27,615.063
1438.72,632.97
1440.17,639.876
1441.62,626.911
1443.07,675.254
1444.53,665.583
1445.98,665.306
1447.43,669.609
1448.88,668.025
1450.33,667.595
1451.78,683.35
1453.23,697.744
1454.68,698.813
1456.13,714.717
1457.58,708.756
1459.03,727.705
1460.48,723.83
1461.93,733.851
1463.38,731.572
1464.83,736.528
1466.28,766.633
1467.73,787.399
1469.18,787.183
1470.63,783.042
1472.08,794.187
1473.53,812.616
1474.98,816.262
1476.43,820.404
1477.88,832.805
1479.33,870.295
1480.78,859.543
1482.23,862.338
1483.68,912.247
1485.13,917.41
1486.58,934.578
1488.03,956.23
1489.49,953.417
1490.94,976.318
1492.39,1015.57
1493.84,1028.62
1495.29,1072.32
1496.74,1058.01
1498.19,1064.47
1499.64,1133.77
1501.09,1153
1502.54,1181.84
1503.99,1213.78
1505.44,1243.77
1506.89,1280.37
1508.34,1319.9
1509.79,1378.24
1511.24,1426.67
1512.69,1474.88
1514.14,1563.41
1515.59,1641.07
1517.04,1692.53
1518.49,1761.15
1519.94,1826.4
1521.39,1966.14
1522.84,2064.63
1524.29,2178.67
1525.74,2306.83
1527.19,2450.27
1528.64,2612.28
1530.09,2789.84
1531.54,2994.88
1532.99,3231.78
1534.45,3465.54
1535.9,3723.77
1537.35,4101.92
1538.8,4475.66
1540.25,4892.93
1541.7,5279.83
1543.15,5708.62
1544.6,6221.45
1546.05,6763.74
1547.5,7381.75
1548.95,7960
1550.4,8509.25
1551.85,9111.37
1553.3,9722.03
1554.75,10330.6
1556.2,10962.6
1557.65,11542.8
1559.1,11561.5
1560.55,11575.3
1562,11601.9
1563.45,11609.8
1564.9,11615.7
1566.35,11608.8
1567.8,11605.9
1569.25,11614.8
1570.7,11612.8
1572.15,11239
1573.6,10657.5
1575.05,10056.4
1576.5,9450.31
1577.96,8788.45
1579.41,8110.73
1580.86,7493.19
1582.31,6921.54
1583.76,6325.7
1585.21,5810.59
1586.66,5312.93
1588.11,4887.54
1589.56,4517.05
1591.01,4153.73
1592.46,3851.51
1593.91,3604.26
1595.36,3343.61
1596.81,3125.04
1598.26,2901.62
1599.71,2734.44
1601.16,2621.6
1602.61,2490.03
1604.06,2369.67
1605.51,2267.64
1606.96,2159.9
1608.41,2049.43
1609.86,1963.17
1611.31,1860.11
1612.76,1822.18
1614.21,1701.72
1615.66,1656.53
1617.11,1586.52
1618.56,1544.4
1620.01,1477.39
1621.46,1423
1622.92,1368.36
1624.37,1325.29
1625.82,1294.33
1627.27,1256.74
1628.72,1227.76
1630.17,1189.26
1631.62,1166.65
1633.07,1138.05
1634.52,1116.98
1635.97,1080.62
1637.42,1078.58
1638.87,1047.47
1640.32,1020.12
1641.77,1015.36
1643.22,1002.36
1644.67,987.022
1646.12,971.027
1647.57,967.323
1649.02,952.985
1650.47,931.735
1651.92,927.47
1653.37,925.421
1654.82,903.992
1656.27,890.995
1657.72,887.381
1659.17,869.305
1660.62,853.325
1662.07,856.942
1663.52,875.055
1664.97,866.205
1666.42,854.59
1667.88,847.035
1669.33,840.046
1670.78,828.672
1672.23,811.048
1673.68,815.503
1675.13,813.299
1676.58,811.661
1678.03,800.354
1679.48,790.396
1680.93,797.038
1682.38,795.417
1683.83,788.986
1685.28,780.669
1686.73,786.219
1688.18,784.464
1689.63,781.902
1691.08,774.828
1692.53,761.535
1693.98,760.327
1695.43,774.169
1696.88,782.709
1698.33,776.698
1699.78,778.68
1701.23,767.03
1702.68,769.75
1704.13,760.17
1705.58,768.152
1707.03,767.94
1708.48,750.31
1709.93,767.757
1711.39,767.446
1712.84,766.736
1714.29,763.404
1715.74,774.712
1717.19,783.56
1718.64,767.517
1720.09,768.828
1721.54,771.657
1722.99,752.324
1724.44,755.932
1725.89,777.203
1727.34,784.307
1728.79,784.403
1730.24,765.359
1731.69,752.461
1733.14,784.473
1734.59,759.259
1736.04,753.129
1737.49,772.146
1738.94,756.276
1740.39,753.93
1741.84,768.51
1743.29,755.314
1744.74,750.29
1746.19,737.442
1747.64,730.486
1749.09,741.372
1750.54,730.563
1751.99,728.943
1753.44,740.238
1754.89,730.861
1756.35,729.282
1757.8,746.518
1759.25,742.241
1760.7,733.103
1762.15,736.359
1763.6,719.06
1765.05,720.259
1766.5,731.758
1767.95,726.959
1769.4,705.873
1770.85,703.456
1772.3,698.026
1773.75,709.85
1775.2,705.011
1776.65,703.885
1778.1,705.195
1779.55,709.284
1781,704.804
1782.45,707.402
1783.9,704.579
1785.35,713.819
1786.8,716.354
1788.25,713.327
1789.7,706.443
1791.15,704.133
1792.6,714.093
1794.05,711.915
1795.5,708.22
1796.95,705.417
1798.4,709.182
1799.85,716.789
1801.31,696.19
1802.76,696.16
1804.21,681.699
1805.66,702.145
1807.11,667.575
1808.56,682.107
1810.01,689.086
1811.46,689.965
1812.91,672.752
1814.36,694.553
1815.81,708.938
1817.26,714.941
1818.71,714.24
1820.16,705.401
1821.61,698.657
1823.06,690.302
1824.51,696.576
1825.96,698.502
1827.41,691.388
1828.86,703.099
1830.31,708.834
1831.76,703.06
1833.21,709.608
1834.66,700.59
1836.11,700.354
1837.56,691.704
1839.01,713.38
1840.46,729.5
1841.91,698.876
1843.36,707.845
1844.82,719.716
1846.27,709.011
1847.72,718.724
1849.17,725.157
1850.62,718.653
1852.07,720.719
1853.52,736.777
1854.97,737.322
1856.42,723.829
1857.87,717.957
1859.32,739.174
1860.77,748.509
1862.22,739.514
1863.67,729.638
1865.12,733.81
1866.57,736.94
1868.02,728.747
1869.47,716.221
1870.92,709.984
1872.37,720.154
1873.82,729.674
1875.27,722.175
1876.72,712.752
1878.17,720.315
1879.62,713.324
1881.07,707.413
1882.52,698.985
1883.97,700.85
1885.42,701.561
1886.87,707.848
1888.32,705.402
1889.78,696.223
1891.23,702.448
1892.68,699.292
1894.13,704.576
1895.58,699.318
1897.03,706.507
1898.48,705.49
1899.93,688.526
1901.38,690.714
1902.83,685.435
1904.28,680.778
1905.73,685.026
1907.18,695.673
1908.63,695.603
1910.08,688.073
1911.53,676.886
1912.98,666.989
1914.43,674.227
1915.88,679.73
1917.33,667.8
1918.78,668.082
1920.23,680.832
1921.68,682.009
1923.13,680.844
1924.58,678.683
1926.03,672.271
1927.48,674.395
1928.93,682.257
1930.38,678.713
1931.83,675.788
1933.29,656.895
1934.74,677.57
1936.19,682.485
1937.64,656.04
1939.09,667.347
1940.54,660.495
1941.99,675.794
1943.44,677.448
1944.89,678.178
1946.34,679.625
1947.79,664.166
1949.24,678.499
1950.69,667.358
1952.14,684.924
1953.59,688.767
1955.04,675.952
1956.49,684.812
1957.94,680.838
1959.39,671.796
1960.84,679.831
1962.29,677.311
1963.74,683.525
1965.19,688.116
1966.64,687.411
1968.09,699.781
1969.54,706.593
1970.99,708.159
1972.44,711.682
1973.89,697.92
1975.34,698.112
1976.79,705.437
1978.25,704.156
1979.7,695.36
1981.15,696.521
1982.6,701.935
1984.05,694.586
1985.5,700.732
1986.95,695.748
1988.4,686.768
1989.85,705.233
1991.3,699.526
1992.75,699.973
1994.2,702.736
1995.65,707.273
1997.1,709.531
1998.55,703.883
2000,697.484
2001.45,709.845
2002.9,701.596
2004.35,695.986
2005.8,700.127
2007.25,705.966
2008.7,709.888
2010.15,710.88
2011.6,714.737
2013.05,692.045
2014.5,687.146
2015.95,696.859
2017.4,688.073
2018.85,671.876
2020.3,696.388
2021.75,699.022
2023.21,676.012
2024.66,693.804
2026.11,685.593
2027.56,695.095
2029.01,698.555
2030.46,680.774
2031.91,682.485
2033.36,671.691
2034.81,679.488
2036.26,691.892
2037.71,684.246
2039.16,685.326
2040.61,693.395
2042.06,674.01
2043.51,661.034
2044.96,670.526
2046.41,651.163
2047.86,661.811
2049.31,670.699
2050.76,662.024
2052.21,660.652
2053.66,676.671
2055.11,680.491
2056.56,665.761
2058.01,659.892
2059.46,673.704
2060.91,675.291
2062.36,666.423
2063.81,659.311
2065.26,651.671
2066.72,654.218
2068.17,664.186
2069.62,645.616
2071.07,648.54
2072.52,667.665
2073.97,666.17
2075.42,660.409
2076.87,661.859
2078.32,658.935
2079.77,646.83
2081.22,656.097
2082.67,667.635
2084.12,664.576
2085.57,649.522
2087.02,650.522
2088.47,637.922
2089.92,637.089
2091.37,643.144
2092.82,654.271
2094.27,670.743
2095.72,661.464
2097.17,655.824
2098.62,658.136
2100.07,648.976
2101.52,641.067
2102.97,647.399
2104.42,641.005
2105.87,651.901
2107.32,656.369
2108.77,659.272
2110.22,660.604
2111.68,665.677
2113.13,657.473
2114.58,653.409
2116.03,664.549
2117.48,664.966
2118.93,654.394
2120.38,666.58
2121.83,665.784
2123.28,646.43
2124.73,658.277
2126.18,666.476
2127.63,661.737
2129.08,664.169
2130.53,669.084
2131.98,673.639
2133.43,673.183
2134.88,673.128
2136.33,668.993
2137.78,674.616
2139.23,674.384
2140.68,673.398
2142.13,666.816
2143.58,665.736
2145.03,687.839
2146.48,689.09
2147.93,680.924
2149.38,671.839
2150.83,673.27
2152.28,683.515
2153.73,684.01
2155.18,675.652
2156.64,679.638
2158.09,680.464
2159.54,678.103
2160.99,686.16
2162.44,687.295
2163.89,687.997
2165.34,681.816
2166.79,686.196
2168.24,707.671
2169.69,701.895
2171.14,692.626
2172.59,693.508
2174.04,694.922
2175.49,700.302
2176.94,702.134
2178.39,696.714
2179.84,697.755
2181.29,698.58
2182.74,702.91
2184.19,701.446
2185.64,696.229
2187.09,701.03
2188.54,707.092
2189.99,707.299
2191.44,702.968
2192.89,711.295
2194.34,710.984
2195.79,710.841
2197.24,717.232
2198.69,714.96
2200.15,704.547
2201.6,705.896
2203.05,706.313
2204.5,721.746
2205.95,717.908
2207.4,721.148
2208.85,714.79
2210.3,720.183
2211.75,727.518
2213.2,730.161
2214.65,723.747
2216.1,723.821
2217.55,729.391
2219,734.107
2220.45,714.6
2221.9,731.81
2223.35,741.125
2224.8,739.724
2226.25,727.512
2227.7,715.006
2229.15,737.021
2230.6,748.445
2232.05,747.956
2233.5,730.215
2234.95,735.62
2236.4,735.748
2237.85,738.998
2239.3,721.543
2240.75,726.469
2242.2,743.237
2243.65,753.677
2245.11,734.547
2246.56,752.021
2248.01,745.331
2249.46,743.128
2250.91,758.082
2252.36,750.415
2253.81,745.189
2255.26,753.596
2256.71,742.14
2258.16,749.909
2259.61,759.82
2261.06,754.786
2262.51,736.399
2263.96,757.655
2265.41,764.936
2266.86,754.138
2268.31,739.969
2269.76,751.699
2271.21,767.773
2272.66,759.403
2274.11,758.23
2275.56,747.107
2277.01,748.953
2278.46,771.025
2279.91,771.358
2281.36,786.164
2282.81,790.281
2284.26,764.488
2285.71,764.118
2287.16,775.934
2288.61,788.214
2290.07,776.885
2291.52,763.808
2292.97,781.643
2294.42,786.198
2295.87,789.641
2297.32,791.54
2298.77,772.011
2300.22,791.612
2301.67,819.204
2303.12,818.193
2304.57,806.461
2306.02,792.08
2307.47,797.185
2308.92,794.742
2310.37,805.747
2311.82,802.489
2313.27,813.816
2314.72,797.471
2316.17,822.078
2317.62,805.553
2319.07,814.476
2320.52,828.678
2321.97,817.247
2323.42,819.909
2324.87,844.606
2326.32,827.04
2327.77,830.117
2329.22,824.028
2330.67,847.336
2332.12,850.77
2333.57,853.62
2335.03,855.792
2336.48,834.394
2337.93,833.164
2339.38,850.497
2340.83,867.885
2342.28,861.395
2343.73,869.739
2345.18,861.38
2346.63,873.356
2348.08,886.641
2349.53,887.829
2350.98,885.61
2352.43,899.446
2353.88,894.497
2355.33,897.985
2356.78,900.497
2358.23,917.867
2359.68,908.535
2361.13,920.384
2362.58,945.94
2364.03,951.935
2365.48,933.227
2366.93,938.136
2368.38,960.839
2369.83,962.048
2371.28,956.808
2372.73,963.241
2374.18,993.049
2375.63,1003.87
2377.08,1009.98
2378.54,1015.11
2379.99,1015.35
2381.44,1024.16
2382.89,1054.32
2384.34,1063.89
2385.79,1056
2387.24,1066.54
2388.69,1089.75
2390.14,1107.09
2391.59,1127.26
2393.04,1126.36
2394.49,1131.83
2395.94,1151.48
2397.39,1142.49
2398.84,1146.57
2400.29,1199.5
2401.74,1221.6
2403.19,1226.9
2404.64,1232.54
2406.09,1235.72
2407.54,1270.49
2408.99,1257.95
2410.44,1268.4
2411.89,1264.12
2413.34,1296.63
2414.79,1312
2416.24,1288.96
2417.69,1320.23
2419.14,1313.31
2420.59,1325.38
2422.04,1333.53
2423.5,1327.05
2424.95,1340.28
2426.4,1350.73
2427.85,1349.14
2429.3,1331.07
2430.75,1328.05
2432.2,1314.71
2433.65,1322.43
2435.1,1327.55
2436.55,1338.74
2438,1305.05
2439.45,1313.31
2440.9,1317.29
2442.35,1312.8
2443.8,1289.82
2445.25,1283.54
2446.7,1303.3
2448.15,1286.52
2449.6,1279.4
2451.05,1286.83
2452.5,1267.92
2453.95,1276.53
2455.4,1266.92
2456.85,1256.2
2458.3,1235.86
2459.75,1206.44
2461.2,1215.75
2462.65,1216.35
2464.1,1222.42
2465.55,1232.13
2467.01,1242.65
2468.46,1210.95
2469.91,1240.47
2471.36,1236.99
2472.81,1218.45
2474.26,1208.82
2475.71,1202.49
2477.16,1231.81
2478.61,1222.2
2480.06,1214.11
2481.51,1220.36
2482.96,1199.25
2484.41,1215.29
2485.86,1208.44
2487.31,1214.11
2488.76,1213.31
2490.21,1217.09
2491.66,1207.51
2493.11,1216.06
2494.56,1242.43
2496.01,1227.54
2497.46,1232.31
2498.91,1230.1
2500.36,1253.29
2501.81,1245.61
2503.26,1240.93
2504.71,1262.48
2506.16,1272.74
2507.61,1258.04
2509.06,1270.61
2510.51,1271.23
2511.97,1264.16
2513.42,1248.12
2514.87,1287.4
2516.32,1286.46
2517.77,1278.22
2519.22,1296.17
2520.67,1300.15
2522.12,1297.96
2523.57,1320.36
2525.02,1357.82
2526.47,1368.4
2527.92,1371.3
2529.37,1373.7
2530.82,1402.91
2532.27,1413.88
2533.72,1411.55
2535.17,1423.72
2536.62,1428.11
2538.07,1458.91
2539.52,1445.99
2540.97,1476.34
2542.42,1493.31
2543.87,1495.78
2545.32,1528.79
2546.77,1522.44
2548.22,1566.11
2549.67,1603.97
2551.12,1620.02
2552.57,1631.01
2554.02,1632.8
2555.48,1641.27
2556.93,1674.1
2558.38,1713.61
2559.83,1734.25
2561.28,1755.1
2562.73,1780.65
2564.18,1844.71
2565.63,1852.32
2567.08,1900.73
2568.53,1918.84
2569.98,2005.74
2571.43,2040.66
2572.88,2068.91
2574.33,2103.17
2575.78,2153.02
2577.23,2192.58
2578.68,2238.08
2580.13,2293.96
2581.58,2322.84
2583.03,2353.18
2584.48,2433.91
2585.93,2495.91
2587.38,2549.11
2588.83,2657.44
2590.28,2693.82
2591.73,2746.93
2593.18,2853.87
2594.63,2956.49
2596.08,3024.68
2597.53,3120.66
2598.98,3248.88
2600.44,3339.76
2601.89,3432
2603.34,3552.15
2604.79,3677.06
2606.24,3763.28
2607.69,3907.98
2609.14,4034.94
2610.59,4189.14
2612.04,4303.67
2613.49,4498.66
2614.94,4596.85
2616.39,4726.2
2617.84,4957.6
2619.29,5094.73
2620.74,5272.82
2622.19,5493.2
2623.64,5674.5
2625.09,5819.34
2626.54,5996.65
2627.99,6176.79
2629.44,6389.14
2630.89,6527.82
2632.34,6717.12
2633.79,6931.05
2635.24,7123.85
2636.69,7329.79
2638.14,7473.65
2639.59,7613.6
2641.04,7806.66
2642.49,7983.85
2643.94,8103.19
2645.4,8226.42
2646.85,8314.7
2648.3,8425.07
2649.75,8490.96
2651.2,8543.17
2652.65,8574.3
2654.1,8517.48
2655.55,8535.54
2657,8575.78
2658.45,8507.12
2659.9,8487.34
2661.35,8453.99
2662.8,8373.28
2664.25,8223.5
2665.7,8096.3
2667.15,7999.12
2668.6,7859.22
2670.05,7630.85
2671.5,7424.01
2672.95,7344.1
2674.4,7082.16
2675.85,6964.51
2677.3,6738.69
2678.75,6534.31
2680.2,6345.86
2681.65,6102.67
2683.1,5938.49
2684.55,5765
2686,5603.02
2687.45,5399.46
2688.91,5161.9
2690.36,4985.18
2691.81,4771.36
2693.26,4591.59
2694.71,4439.56
2696.16,4286.25
2697.61,4061.05
2699.06,3983.57
2700.51,3873.69
2701.96,3733.68
2703.41,3586.73
2704.86,3445.1
2706.31,3317.21
2707.76,3205.55
2709.21,3083.35
2710.66,2953.58
2712.11,2856.36
2713.56,2776.34
2715.01,2690.18
2716.46,2677.99
2717.91,2548.5
2719.36,2489.24
2720.81,2404.05
2722.26,2302.61
2723.71,2274.78
2725.16,2230.68
2726.61,2151.75
2728.06,2105.25
2729.51,2087.11
2730.96,2003.32
2732.41,1985.57
2733.87,1935.85
2735.32,1864.48
2736.77,1843.36
2738.22,1801.85
2739.67,1786.11
2741.12,1745.25
2742.57,1718.68
2744.02,1708.6
2745.47,1628.62
2746.92,1633.62
2748.37,1599.32
2749.82,1591.63
2751.27,1556.56
2752.72,1523.98
2754.17,1533.38
2755.62,1485
2757.07,1452.38
2758.52,1454.68
2759.97,1435.57
2761.42,1420.68
2762.87,1422.89
2764.32,1380.35
2765.77,1378.43
2767.22,1379.24
2768.67,1350.86
2770.12,1334.67
2771.57,1336.92
2773.02,1313.68
2774.47,1312.29
2775.92,1297.15
2777.38,1291.11
2778.83,1278.51
2780.28,1265.34
2781.73,1248.92
2783.18,1220.94
2784.63,1253.42
2786.08,1212.49
2787.53,1218.66
2788.98,1212.11
2790.43,1195.62
2791.88,1196.99
2793.33,1189.51
2794.78,1163.93
2796.23,1179.69
2797.68,1157.73
2799.13,1178.28
2800.58,1153.79
2802.03,1144.61
2803.48,1129.12
2804.93,1157.85
2806.38,1147.06
2807.83,1124.76
2809.28,1118.82
2810.73,1120.22
2812.18,1104.13
2813.63,1119.83
2815.08,1102.26
2816.53,1103.22
2817.98,1099.99
2819.43,1105.22
2820.88,1100.62
2822.33,1084.7
2823.79,1071.22
2825.24,1081.11
2826.69,1085.84
2828.14,1081.79
2829.59,1068.18
2831.04,1073.64
2832.49,1050.82
2833.94,1053.8
2835.39,1068.48
2836.84,1057.14
2838.29,1031.77
2839.74,1025.32
2841.19,1032.17
2842.64,1050.01
2844.09,1045.6
2845.54,1036.42
2846.99,1011.16
2848.44,1051.74
2849.89,1038.46
2851.34,1035.91
2852.79,1040.11
2854.24,1037.19
2855.69,1031.55
2857.14,1029.78
2858.59,1031.64
2860.04,1009.22
2861.49,1051.08
2862.94,1008.65
2864.39,1018.42
2865.84,1035.58
2867.3,1039.23
2868.75,1021.52
2870.2,1019.61
2871.65,1016.16
2873.1,1010.29
2874.55,1001.72
2876,998.465
2877.45,1021.24
2878.9,1026.38
2880.35,993.858
2881.8,997.537
2883.25,1014.86
2884.7,1018.58
2886.15,1015.29
2887.6,1010.23
2889.05,1016.05
2890.5,1023.18
2891.95,1009.16
2893.4,1011.52
2894.85,1004.27
2896.3,1008.42
2897.75,1007.86
2899.2,1009.58
2900.65,1011.52
2902.1,1009.68
2903.55,993.839
2905,1000.2
2906.45,1007.38
2907.9,999.382
2909.35,994.361
2910.8,989.212
2912.26,977.346
2913.71,987.585
2915.16,976.81
2916.61,982.723
2918.06,962.202
2919.51,987.022
2920.96,975.246
2922.41,988.62
2923.86,975.462
2925.31,967.786
2926.76,977.431
2928.21,971.87
2929.66,964.904
2931.11,956.403
2932.56,956.46
2934.01,954.753
2935.46,935.857
2936.91,934.312
2938.36,934.828
2939.81,933.359
2941.26,927.782
2942.71,923.329
2944.16,936.544
2945.61,933.605
2947.06,916.665
2948.51,916.396
2949.96,907.02
2951.41,915.21
2952.86,920.54
2954.31,916.003
2955.77,896.329
2957.22,895.122
2958.67,884.411
2960.12,902.131
2961.57,877.914
2963.02,892.814
2964.47,888.195
2965.92,891.67
2967.37,885.239
2968.82,885.042
2970.27,881.365
2971.72,881.246
2973.17,870.851
2974.62,869.288
2976.07,862.075
2977.52,858.083
2978.97,860.026
2980.42,866.547
2981.87,858.742
2983.32,859.793
2984.77,855.375
2986.22,859.173
2987.67,857.556
2989.12,870.461
2990.57,859.104
2992.02,861.846
2993.47,862.351
2994.92,863.347
2996.37,853.067
2997.82,863.468
2999.27,870.62
3000.73,849.814
3002.18,857.833
3003.63,836.32
3005.08,858.855
3006.53,861.182
3007.98,857.558
3009.43,858.892
3010.88,850.63
3012.33,841.783
3013.78,831.099
3015.23,840.878
3016.68,849.179
3018.13,858.042
3019.58,830.194
3021.03,829.685
3022.48,834.838
3023.93,844.248
3025.38,849.982
3026.83,854.922
3028.28,853.189
3029.73,858.974
3031.18,849.182
3032.63,838.935
3034.08,859.67
3035.53,838.939
3036.98,846.166
3038.43,825.38
3039.88,838.571
3041.33,873.674
3042.78,869.774
3044.23,850.753
3045.69,850.68
3047.14,844.649
3048.59,840.389
3050.04,848.102
3051.49,826.668
3052.94,847.066
3054.39,850.39
3055.84,835.071
3057.29,852.71
3058.74,857.359
3060.19,880.407
3061.64,862.719
3063.09,875.219
3064.54,867.216
3065.99,861.176
3067.44,868.08
3068.89,877.69
3070.34,876.533
3071.79,862.216
3073.24,879.673
3074.69,887.872
3076.14,894.936
3077.59,894.495
3079.04,906.344
3080.49,915.72
3081.94,914.717
3083.39,883.755
3084.84,909.314
3086.29,931.646
3087.74,909.734
3089.2,926.421
3090.65,938.496
3092.1,959.488
3093.55,947.91
3095,951.741
3096.45,952.007
3097.9,959.308
3099.35,954.822
3100.8,960.319
3102.25,984.415
3103.7,972.321
3105.15,1008.66
3106.6,1015.7
3108.05,1015.17
3109.5,1011.83
3110.95,1027.64
3112.4,1039.01
3113.85,1048.9
3115.3,1016.06
3116.75,1045.62
3118.2,1083.23
3119.65,1075.09
3121.1,1092.33
3122.55,1110.23
3124,1104.2
3125.45,1103.95
3126.9,1123.92
3128.35,1126.13
3129.8,1112.85
3131.25,1135.21
3132.7,1136.89
3134.16,1129.13
3135.61,1138.02
3137.06,1124.45
3138.51,1132.31
3139.96,1167.16
3141.41,1171.29
3142.86,1172.42
3144.31,1174.7
3145.76,1160.87
3147.21,1172.23
3148.66,1206.97
3150.11,1196.45
3151.56,1183.05
3153.01,1184.88
3154.46,1193.74
3155.91,1177.88
3157.36,1206.28
3158.81,1199.01
3160.26,1213.07
3161.71,1207.61
3163.16,1199.77
3164.61,1213.32
3166.06,1203.72
3167.51,1215.03
3168.96,1220.16
3170.41,1248.83
3171.86,1267.58
3173.31,1250.53
3174.76,1256
3176.21,1260.97
3177.67,1260.84
3179.12,1287.16
3180.57,1277.21
3182.02,1279.82
3183.47,1299.99
3184.92,1304.64
3186.37,1314.86
3187.82,1312.71
3189.27,1298.96
3190.72,1307.85
3192.17,1308.03
3193.62,1306.71
3195.07,1299.74
3196.52,1294.65
3197.97,1296.87
3199.42,1293.35
3200.87,1268.74
3202.32,1290.31
3203.77,1258.38
3205.22,1237.89
3206.67,1222.11
3208.12,1273.08
3209.57,1232.67
3211.02,1205.42
3212.47,1192.76
3213.92,1198.89
3215.37,1188.19
3216.82,1169.95
3218.27,1175.45
3219.72,1153.13
3221.17,1139.79
3222.63,1128.24
3224.08,1125.24
3225.53,1105.93
3226.98,1075.24
3228.43,1072.15
3229.88,1056.97
3231.33,1040.46
3232.78,1014.39
3234.23,1008.43
3235.68,988.088
3237.13,951.261
3238.58,982.319
3240.03,982.934
3241.48,961.266
3242.93,943.942
3244.38,934.932
3245.83,912.24
3247.28,903.914
3248.73,901.744
3250.18,913.615
3251.63,898.759
3253.08,882.04
3254.53,879.528
3255.98,858.47
3257.43,851.822
3258.88,862.704
3260.33,847.284
3261.78,865.735
3263.23,857.446
3264.68,833.956
3266.13,852.729
3267.59,870.554
3269.04,846.339
3270.49,836.14
3271.94,851.92
3273.39,829.397
3274.84,818.932
3276.29,851.711
3277.74,816.117
3279.19,820.892
3280.64,838.557
3282.09,836.503
3283.54,830.737
3284.99,814.465
3286.44,820.663
3287.89,826.078
3289.34,804.69
3290.79,818.889
3292.24,823.326
3293.69,821.481
3295.14,819.977
3296.59,818.352
3298.04,808.958
3299.49,820.263
3300.94,817.718
3302.39,836.283
3303.84,814.023
3305.29,811.028
3306.74,820.985
3308.19,815.341
3309.64,817.03
3311.09,825.606
3312.55,821.523
3314,837.333
3315.45,824.59
3316.9,817.804
3318.35,812.21
3319.8,806.912
3321.25,820.48
3322.7,809.419
3324.15,809.551
3325.6,828.062
3327.05,828.145
3328.5,807.878
3329.95,815.338
3331.4,833.457
3332.85,814.805
3334.3,814.087
3335.75,807.89
3337.2,812.644
3338.65,802.65
3340.1,820.464
3341.55,806.829
3343,808.042
3344.45,805.484
3345.9,810.451
3347.35,772.228
3348.8,812.601
3350.25,817.317
3351.7,825.7
3353.15,825.371
3354.6,816.574
3356.06,811.137
3357.51,826.114
3358.96,791.564
3360.41,799.366
3361.86,804.146
3363.31,815.833
3364.76,793.95
3366.21,807.257
3367.66,827.762
3369.11,824.143
3370.56,819.359
3372.01,821.589
3373.46,798.984
3374.91,827.655
3376.36,830.523
3377.81,819.624
3379.26,804.371
3380.71,831.066
3382.16,837.792
3383.61,825.21
3385.06,818.659
3386.51,810.051
3387.96,820.938
3389.41,840.368
3390.86,838.381
3392.31,810.767
3393.76,819.312
3395.21,827.046
3396.66,800.581
3398.11,826.701
3399.56,823.408
3401.02,824.279
3402.47,823.443
3403.92,813.505
3405.37,826.533
3406.82,806.842
3408.27,836.008
3409.72,821.066
3411.17,824.43
3412.62,809.093
3414.07,832.691
3415.52,808.334
3416.97,829.583
3418.42,828.411
3419.87,821.344
3421.32,817.252
3422.77,816.542
3424.22,826.23
3425.67,842.835
3427.12,851.988
3428.57,827.079
3430.02,831.062
3431.47,825.812
3432.92,810.558
3434.37,822.899
3435.82,834.316
3437.27,835.754
3438.72,840.283
3440.17,822.037
3441.62,826.669
3443.07,830.423
3444.52,839.447
3445.98,828.948
3447.43,805.311
3448.88,813.881
3450.33,819.512
3451.78,826.546
3453.23,841.747
3454.68,824.436
3456.13,829.225
3457.58,850.106
3459.03,829.065
3460.48,824.234
3461.93,826.109
3463.38,819
3464.83,835.652
3466.28,835.15
3467.73,815.526
3469.18,842.026
3470.63,834.046
3472.08,830.415
3473.53,825.751
3474.98,832.954
3476.43,808.722
3477.88,847.445
3479.33,837.286
3480.78,834.732
3482.23,843.746
3483.68,838.947
3485.13,830.716
3486.58,836.704
3488.03,825.457
3489.49,825.279
3490.94,826.729
3492.39,828.046
3493.84,840.495
3495.29,826.03
3496.74,836.774
3498.19,825.086
3499.64,854.468
3501.09,825.631
3502.54,853.25
3503.99,842.764
3505.44,828.449
3506.89,848.33
3508.34,845.797
3509.79,859.445
3511.24,854.848
3512.69,853.608
3514.14,842.752
3515.59,851.008
3517.04,877.673
3518.49,856.764
3519.94,842.652
3521.39,826.108
3522.84,864.073
3524.29,845.483
3525.74,835.614
3527.19,856.812
3528.64,847.659
3530.09,853.255
3531.54,834.1
3532.99,836.504
3534.45,845.989
3535.9,866.057
3537.35,844.214
3538.8,844.538
3540.25,829.808
3541.7,832.9
3543.15,837.585
3544.6,844.077
3546.05,868.064
3547.5,858.706
3548.95,865.725
3550.4,861.08
3551.85,861.084
3553.3,833.791
3554.75,840.215
3556.2,841.313
3557.65,857.23
3559.1,849.142
3560.55,844.677
3562,834.125
3563.45,863.427
3564.9,861.109
3566.35,845.136
3567.8,865.121
3569.25,849.945
3570.7,859.659
3572.15,861.783
3573.6,865.289
3575.05,860.256
3576.5,835.949
3577.96,833.394
3579.41,854.552
3580.86,847.731
3582.31,859.298
3583.76,866.176
3585.21,864.156
3586.66,857.043
3588.11,870.271
3589.56,852.696
3591.01,867.202
3592.46,877.163
3593.91,853.943
3595.36,856.907
3596.81,869.744
3598.26,865.131
3599.71,849.594
3601.16,861.549
3602.61,871.398
3604.06,860.593
3605.51,858.74
3606.96,857.249
3608.41,870.473
3609.86,862.963
3611.31,873.298
3612.76,853.854
3614.21,852.798
3615.66,887.326
3617.11,860.535
3618.56,870.41
3620.01,863.262
3621.46,873.385
3622.92,872.174
3624.37,872.763
3625.82,872.993
3627.27,876.12
3628.72,850.226
3630.17,863.224
3631.62,875.291
3633.07,856.553
3634.52,873.381
3635.97,875.261
3637.42,873.207
3638.87,880.395
3640.32,856.479
3641.77,891.321
3643.22,893.047
3644.67,879.288
3646.12,879.829
3647.57,882.515
3649.02,878.208
3650.47,888.486
3651.92,881.251
3653.37,889.751
3654.82,885.029
3656.27,880.547
3657.72,876.831
3659.17,889.847
3660.62,896.849
3662.07,888.466
3663.52,886.099
3664.97,890.21
3666.43,884.758
3667.88,901.005
3669.33,874.36
3670.78,878.554
3672.23,888.635
3673.68,897.313
3675.13,897.435
3676.58,900.927
3678.03,887.235
3679.48,901.075
3680.93,907.452
3682.38,887.827
3683.83,886.773
3685.28,885.206
3686.73,905.958
3688.18,898.616
3689.63,900.685
3691.08,892.342
3692.53,906.329
3693.98,896.409
3695.43,905.322
3696.88,896.037
3698.33,885.846
3699.78,885.931
3701.23,896.93
3702.68,900.648
3704.13,916.892
3705.58,900.473
3707.03,916.723
3708.48,899.412
3709.93,895.287
3711.39,905.527
3712.84,882.582
3714.29,911.764
3715.74,903.061
3717.19,905.171
3718.64,911.083
3720.09,904.499
3721.54,904.087
3722.99,904.066
3724.44,908.823
3725.89,898.665
3727.34,887.855
3728.79,890.99
3730.24,887.276
3731.69,914.3
3733.14,910.969
3734.59,913.684
3736.04,902.133
3737.49,905.262
3738.94,916.33
3740.39,932.259
3741.84,901.308
3743.29,928.135
3744.74,936.331
3746.19,910.591
3747.64,921.512
3749.09,930.16
3750.54,906.617
3751.99,910.894
3753.44,916.667
3754.89,918.808
3756.35,927.966
3757.8,923.462
3759.25,922.887
3760.7,923.643
3762.15,920.431
3763.6,909.798
3765.05,926.508
3766.5,925.946
3767.95,931.3
3769.4,928.08
3770.85,924.956
3772.3,916.6
3773.75,918.186
3775.2,925.045
3776.65,922.046
3778.1,936.142
3779.55,922.901
3781,937.578
3782.45,948.813
3783.9,931.98
3785.35,917.928
3786.8,953.043
3788.25,917.603
3789.7,935.64
3791.15,920.768
3792.6,949.157
3794.05,930.254
3795.5,918.151
3796.95,925.622
3798.4,915.675
3799.85,936.805
3801.31,937.313
3802.76,918.44
3804.21,959.686
3805.66,956.014
3807.11,956.748
3808.56,947.611
3810.01,955.779
3811.46,962.42
3812.91,960.349
3814.36,946.117
3815.81,946.856
3817.26,951.215
3818.71,950.523
3820.16,960.201
3821.61,962.543
3823.06,944.735
3824.51,938.895
3825.96,957.462
3827.41,958.299
3828.86,956.674
3830.31,966.099
3831.76,956.944
3833.21,962.836
3834.66,977.227
3836.11,975.001
3837.56,969.012
3839.01,962.442
3840.46,962.836
3841.91,954.391
3843.36,952.756
3844.82,925.846
3846.27,959.287
3847.72,971.682
3849.17,969.484
3850.62,986.062
3852.07,974.293
3853.52,969.01
3854.97,970.437
3856.42,969.203
3857.87,969.023
3859.32,978.851
3860.77,974.406
3862.22,972.71
3863.67,984.168
3865.12,982.161
3866.57,972.828
3868.02,973.118
3869.47,994.5
3870.92,972.438
3872.37,967.459
3873.82,982.858
3875.27,1002.68
3876.72,1013.29
3878.17,1008.7
3879.62,982.627
3881.07,988.63
3882.52,987.891
3883.97,990.583
3885.42,1001.67
3886.87,1000.84
3888.32,1009.28
3889.78,994.559
3891.23,1003.3
3892.68,998.554
3894.13,996.334
3895.58,1004.43
3897.03,1016.97
3898.48,1019.08
3899.93,1026.72
3901.38,1021.47
3902.83,1000.97
3904.28,1023.57
3905.73,1026.01
3907.18,1027.11
3908.63,1008.91
3910.08,1021.46
3911.53,1017.65
3912.98,1034.27
3914.43,1025.65
3915.88,1027.3
3917.33,1016.17
3918.78,1008.5
3920.23,1028.78
3921.68,1035.26
3923.13,1049.15
3924.58,1031.13
3926.03,1039.94
3927.48,1035.73
3928.93,1071.92
3930.38,1034.78
3931.83,1039.83
3933.28,1044.35
3934.74,1049.5
3936.19,1067.81
3937.64,1055.99
3939.09,1039.72
3940.54,1068.49
3941.99,1056.83
3943.44,1049.22
3944.89,1054.1
3946.34,1064.9
3947.79,1076.31
3949.24,1068.46
3950.69,1071.99
3952.14,1078.33
3953.59,1084.1
3955.04,1087.62
3956.49,1056.03
3957.94,1092.1
3959.39,1067.5
3960.84,1064.79
3962.29,1073.37
3963.74,1067.97
3965.19,1059.27
3966.64,1099.82
3968.09,1074.63
3969.54,1094.95
3970.99,1069.54
3972.44,1090.65
3973.89,1086.95
3975.34,1111.08
3976.79,1105.4
3978.25,1112.59
3979.7,1109.87
3981.15,1098.44
3982.6,1104.92
3984.05,1115.15
3985.5,1120.11
3986.95,1134.84
3988.4,1115.95
3989.85,1120.88
3991.3,1116.42
3992.75,1123.63
3994.2,1137.19
3995.65,1113.3
3997.1,1169.15
3998.55,1121.11
4000,1123.52
