0.1,4.72849
1.45033,4.72849
2.90065,4.72849
4.35098,4.72849
5.80131,4.72849
7.25163,4.72849
8.70196,19.782
10.1523,8.67764
11.6026,6.83771
13.0529,7.59153
14.5033,8.48855
15.9536,7.69313
17.4039,3.08522
18.8542,0.263862
20.3046,0.207996
21.7549,1.83643
23.2052,3.79743
24.6555,3.56686
26.1059,2.54509
27.5562,0.722157
29.0065,0.168232
30.4569,3.4834
31.9072,1.63733
33.3575,1.52437
34.8078,1.32956
36.2582,0.726163
37.7085,1.41885
39.1588,0.194203
40.6091,1.49974
42.0595,4.18576
43.5098,6.56927
44.9601,7.49359
46.4104,7.08632
47.8608,10.9611
49.3111,19.1622
50.7614,28.9146
52.2117,71.9291
53.6621,139.799
55.1124,241.856
56.5627,379.714
58.0131,543.774
59.4634,704.504
60.9137,848.599
62.364,949.573
63.8144,995.034
65.2647,1078.4
66.715,1114.17
68.1653,1145.12
69.6157,1180.16
71.066,1213.43
72.5163,1228.03
73.9666,1223.73
75.417,1212.82
76.8673,1214.12
78.3176,1265.13
79.7679,1274.79
81.2183,1295.63
82.6686,1332.03
84.1189,1378.9
85.5693,1409.76
87.0196,1418.43
88.4699,1417.3
89.9202,1387.18
91.3706,1302.84
92.8209,1233.16
94.2712,1169.41
95.7215,1098.78
97.1719,1034.25
98.6222,1015.66
100.073,979.435
101.523,937.29
102.973,898.9
104.423,869.406
105.874,845.682
107.324,826.171
108.774,816.77
110.225,802.316
111.675,774.62
113.125,780.671
114.576,792.825
116.026,785.966
117.476,761.384
118.927,731.959
120.377,740.122
121.827,724.773
123.278,716.173
124.728,715.733
126.178,704.777
127.629,689.404
129.079,673.502
130.529,662.898
131.98,656.556
133.43,643.027
134.88,626.623
136.331,605.422
137.781,595.802
139.231,599.113
140.682,572.5
142.132,579.538
143.582,568.471
145.033,549.975
146.483,538.588
147.933,520.831
149.384,536.185
150.834,531.385
152.284,512.653
153.735,502.93
155.185,523.974
156.635,506.253
158.086,499.496
159.536,508.848
160.986,519.722
162.437,518.085
163.887,500.045
165.337,479.173
166.788,462.794
168.238,454.741
169.688,456.851
171.139,446.714
172.589,440.864
174.039,439.214
175.489,425.138
176.94,452.75
178.39,459.621
179.84,457.903
181.291,453.823
182.741,444.443
184.191,433.465
185.642,423.102
187.092,411.519
188.542,404.669
189.993,423.936
191.443,408.081
192.893,407.952
194.344,417.045
195.794,421.422
197.244,397.465
198.695,402.818
200.145,404.279
201.595,398.664
203.046,389.006
204.496,387.124
205.946,396.729
207.397,402.276
208.847,408.282
210.297,415.194
211.748,406.019
213.198,407.174
214.648,410.7
216.099,409.781
217.549,403.34
218.999,406.165
220.45,414.801
221.9,409.623
223.35,397.913
224.801,391.237
226.251,404.666
227.701,400.65
229.152,408.964
230.602,403.136
232.052,377.219
233.503,397.992
234.953,399.205
236.403,400.161
237.854,401.112
239.304,401.028
240.754,400.556
242.204,396.788
243.655,393.419
245.105,384.883
246.555,372.971
248.006,376.749
249.456,378.301
250.906,384.673
252.357,391.473
253.807,390.19
255.257,365.818
256.708,371.945
258.158,377.58
259.608,380.649
261.059,383.216
262.509,391.268
263.959,358.095
265.41,353.658
266.86,353.938
268.31,356.045
269.761,380.094
271.211,368.242
272.661,363.478
274.112,355.894
275.562,351.034
277.012,363.967
278.463,363.019
279.913,365.855
281.363,362.519
282.814,358.368
284.264,363.376
285.714,350.793
287.165,354.031
288.615,358.332
290.065,352.145
291.516,333.227
292.966,345.106
294.416,357.609
295.867,349.76
297.317,338.542
298.767,339.38
300.218,334.392
301.668,337.663
303.118,339.134
304.569,325.926
306.019,305.381
307.469,324.418
308.919,315.967
310.37,318.006
311.82,317.015
313.27,310.286
314.721,309.807
316.171,309.093
317.621,312.078
319.072,304.54
320.522,297.302
321.972,312.09
323.423,310.899
324.873,300.568
326.323,299.959
327.774,306.591
329.224,310.192
330.674,299.218
332.125,309.321
333.575,309.877
335.025,301.618
336.476,292.01
337.926,291.293
339.376,290.12
340.827,294.109
342.277,296.684
343.727,297.451
345.178,302.646
346.628,286.634
348.078,293.918
349.529,309.18
350.979,316.807
352.429,305.159
353.88,287.461
355.33,297.085
356.78,303.07
358.231,303.733
359.681,302.139
361.131,295.199
362.582,284.197
364.032,279.251
365.482,282.396
366.933,287.571
368.383,281.196
369.833,278.797
371.284,274.877
372.734,274.766
374.184,275.379
375.635,273.351
377.085,290.134
378.535,298.056
379.986,285.065
381.436,274.585
382.886,281.592
384.336,287.831
385.787,280.804
387.237,275.502
388.687,278.135
390.138,285.688
391.588,288.338
393.038,284.014
394.489,273.052
395.939,278.587
397.389,286.395
398.84,279.09
400.29,267.552
401.74,284.605
403.191,275.543
404.641,274.31
406.091,284.196
407.542,269.468
408.992,276.926
410.442,285.564
411.893,287.348
413.343,286.706
414.793,287.858
416.244,274.615
417.694,284.926
419.144,285.743
420.595,276.686
422.045,268.838
423.495,279.687
424.946,277.036
426.396,273.402
427.846,266.973
429.297,271.105
430.747,289.449
432.197,269.406
433.648,279.659
435.098,276.127
436.548,268.7
437.999,266.388
439.449,269.557
440.899,259.417
442.35,273.134
443.8,272.538
445.25,265.894
446.701,270.636
448.151,284.183
449.601,282.244
451.051,279.583
452.502,277.676
453.952,271.723
455.402,257.619
456.853,274.325
458.303,269.612
459.753,269.969
461.204,270.712
462.654,267.482
464.104,269.168
465.555,265.536
467.005,270.661
468.455,275.959
469.906,271.779
471.356,258.95
472.806,280.78
474.257,283.548
475.707,277.706
477.157,276.541
478.608,282.748
480.058,286.016
481.508,260.552
482.959,272.753
484.409,274.669
485.859,274.079
487.31,278.409
488.76,266.549
490.21,281.357
491.661,288.897
493.111,279.497
494.561,263.869
496.012,259.77
497.462,273.372
498.912,264.344
500.363,269.332
501.813,271.194
503.263,266.744
504.714,267.452
506.164,276.935
507.614,273.908
509.065,271.095
510.515,271.197
511.965,270.747
513.416,262.674
514.866,268.277
516.316,274.491
517.766,275.296
519.217,272.243
520.667,268.812
522.117,267.142
523.568,272.752
525.018,267.466
526.468,263.305
527.919,262.588
529.369,266.498
530.819,286.513
532.27,267.061
533.72,272.328
535.17,271.799
536.621,267.495
538.071,276.004
539.521,278.445
540.972,271.273
542.422,275.255
543.872,271.848
545.323,266.964
546.773,278.801
548.223,272.931
549.674,271.968
551.124,276.502
552.574,279.16
554.025,277.128
555.475,273.428
556.925,271.715
558.376,270.219
559.826,266.891
561.276,266.31
562.727,265.933
564.177,258.196
565.627,267.997
567.078,263.353
568.528,256.071
569.978,255.367
571.429,259.935
572.879,259.194
574.329,267.533
575.78,259.369
577.23,264.502
578.68,270.08
580.131,270.557
581.581,277.25
583.031,262.521
584.482,269.842
585.932,268.507
587.382,266.734
588.832,267.134
590.283,258.279
591.733,258.279
593.183,263.885
594.634,273.282
596.084,267.538
597.534,249.716
598.985,247.004
600.435,249.463
601.885,263.727
603.336,267.395
604.786,269.689
606.236,272.862
607.687,268.656
609.137,266.44
610.587,269.574
612.038,274.84
613.488,275.059
614.938,272.785
616.389,275.516
617.839,269.603
619.289,276.721
620.74,266.245
622.19,264.119
623.64,267.758
625.091,258.939
626.541,257.459
627.991,267.079
629.442,278.139
630.892,279.78
632.342,272.428
633.793,263.941
635.243,262.707
636.693,278.117
638.144,276.91
639.594,270.421
641.044,268.489
642.495,274.424
643.945,281.178
645.395,260.662
646.846,276.311
648.296,283.552
649.746,282.789
651.197,281.495
652.647,278.382
654.097,279.372
655.547,284.321
656.998,284.576
658.448,279.943
659.898,275.779
661.349,277.294
662.799,274.074
664.249,281.829
665.7,284.088
667.15,279.288
668.6,280.432
670.051,293.142
671.501,285.956
672.951,283.725
674.402,286.544
675.852,289.268
677.302,283.814
678.753,275.166
680.203,284.428
681.653,287.907
683.104,291.164
684.554,284.204
686.004,283.916
687.455,288.066
688.905,281.091
690.355,286.307
691.806,295.325
693.256,286.74
694.706,289.678
696.157,294.739
697.607,289.504
699.057,299.75
700.508,288.795
701.958,284.395
703.408,284.637
704.859,285.787
706.309,282.458
707.759,274.57
709.21,295.481
710.66,294.3
712.11,290.809
713.561,287.214
715.011,287.206
716.461,291.557
717.912,291.383
719.362,284.397
720.812,299.522
722.263,302.016
723.713,302.294
725.163,301.508
726.613,285.507
728.064,288.999
729.514,283.318
730.964,286.599
732.415,298.232
733.865,298.972
735.315,285.657
736.766,297.943
738.216,295.943
739.666,290.907
741.117,293.686
742.567,299.674
744.017,302.252
745.468,297.432
746.918,284.168
748.368,285.37
749.819,291.891
751.269,311.087
752.719,313.844
754.17,297.683
755.62,307.371
757.07,318.646
758.521,312.619
759.971,301.556
761.421,291.13
762.872,294.466
764.322,308.695
765.772,294.562
767.223,289.296
768.673,305.624
770.123,304.083
771.574,292.507
773.024,291.383
774.474,306.405
775.925,298.631
777.375,311.94
778.825,301.761
780.276,302.317
781.726,304.089
783.176,303.362
784.627,311.328
786.077,303.032
787.527,315.616
788.978,311.375
790.428,307.267
791.878,306.01
793.328,306.231
794.779,309.981
796.229,311.492
797.68,300.961
799.13,301.422
800.58,308.309
802.03,315.613
803.481,314.328
804.931,296.492
806.381,302.285
807.832,312.254
809.282,316.528
810.732,314.98
812.183,311.738
813.633,307.565
815.083,297.577
816.534,306.908
817.984,299.039
819.434,312.845
820.885,317.836
822.335,314.996
823.785,321.647
825.236,334.578
826.686,322.963
828.136,328.997
829.587,342.445
831.037,336.336
832.487,324.917
833.938,324.139
835.388,312.502
836.838,339.044
838.289,329.082
839.739,320.984
841.189,317.766
842.64,320.898
844.09,325.414
845.54,319.318
846.991,332.983
848.441,323.629
849.891,338.428
851.342,334.724
852.792,317.67
854.242,314.387
855.693,329.024
857.143,311.289
858.593,333.305
860.044,343.185
861.494,348.155
862.944,341.724
864.394,330.592
865.845,334.58
867.295,324.436
868.745,334.454
870.196,329.659
871.646,329.413
873.096,327.121
874.547,320.128
875.997,320.163
877.447,339.63
878.898,342.93
880.348,323.684
881.798,321.706
883.249,319.586
884.699,320.881
886.149,334.519
887.6,330.502
889.05,327.193
890.5,330.372
891.951,336.483
893.401,337.301
894.851,345.456
896.302,357.083
897.752,340.942
899.202,333.05
900.653,324.903
902.103,345.879
903.553,344.461
905.004,335.392
906.454,336.217
907.904,340.198
909.355,340.217
910.805,333.073
912.255,351.888
913.706,361.615
915.156,354.584
916.606,352.757
918.057,364.112
919.507,354.874
920.957,340.824
922.408,361.531
923.858,356.685
925.308,343.948
926.759,345.372
928.209,356.954
929.659,356.308
931.109,345.721
932.56,353.651
934.01,343.301
935.46,351.443
936.911,355.449
938.361,360.353
939.811,369.114
941.262,356.508
942.712,357.787
944.162,341.108
945.613,361.493
947.063,352.669
948.513,338.381
949.964,339.869
951.414,353.641
952.864,381.844
954.315,372.368
955.765,354.097
957.215,363.211
958.666,362.996
960.116,356.665
961.566,351.473
963.017,343.644
964.467,354.331
965.917,355.615
967.368,364.649
968.818,358.691
970.268,354.297
971.719,358.941
973.169,363.382
974.619,355.147
976.07,345.601
977.52,366.143
978.97,366.799
980.421,366.25
981.871,368.704
983.321,359.954
984.772,344.265
986.222,355.429
987.672,363.922
989.123,372.152
990.573,367.991
992.023,364.08
993.474,363.974
994.924,364.652
996.374,360.517
997.825,352.347
999.275,369.613
1000.73,379.266
1002.18,383.823
1003.63,385.095
1005.08,374.898
1006.53,371.354
1007.98,385.512
1009.43,390.264
1010.88,397.489
1012.33,397.324
1013.78,390.728
1015.23,384.805
1016.68,391.74
1018.13,399.582
1019.58,399.329
1021.03,405.49
1022.48,399.062
1023.93,402.939
1025.38,412.62
1026.83,413.296
1028.28,410.951
1029.73,405.461
1031.18,406.14
1032.63,426.941
1034.08,426.008
1035.53,411.26
1036.98,437.327
1038.43,436.219
1039.88,442.099
1041.33,450.388
1042.78,456.06
1044.23,464.418
1045.69,436.192
1047.14,458.736
1048.59,450.182
1050.04,449.173
1051.49,455.842
1052.94,460.983
1054.39,471.785
1055.84,484.738
1057.29,462.346
1058.74,467.275
1060.19,473.223
1061.64,475.903
1063.09,484.615
1064.54,497.981
1065.99,504.761
1067.44,507.048
1068.89,520.493
1070.34,525.631
1071.79,516.797
1073.24,516.675
1074.69,524.293
1076.14,514.915
1077.59,516.702
1079.04,540.563
1080.49,555.735
1081.94,540.07
1083.39,534.347
1084.84,548.493
1086.29,529.085
1087.74,521.111
1089.2,516.106
1090.65,518.236
1092.1,528.338
1093.55,529.71
1095,529.287
1096.45,530.329
1097.9,523.833
1099.35,521.401
1100.8,517.465
1102.25,525.442
1103.7,532.359
1105.15,525.172
1106.6,524.246
1108.05,517.102
1109.5,515.535
1110.95,529.014
1112.4,523.791
1113.85,509.527
1115.3,507.235
1116.75,514.832
1118.2,511.871
1119.65,493.902
1121.1,489.821
1122.55,497.138
1124,492.466
1125.45,496.076
1126.9,492.171
1128.35,493.037
1129.8,497.686
1131.25,490.756
1132.7,485.577
1134.16,489.728
1135.61,478.474
1137.06,478.703
1138.51,479.945
1139.96,475.719
1141.41,486.907
1142.86,492.407
1144.31,472.647
1145.76,489.568
1147.21,490.375
1148.66,493.261
1150.11,477.301
1151.56,474.173
1153.01,464.635
1154.46,468.38
1155.91,482.762
1157.36,484.468
1158.81,480.873
1160.26,469.395
1161.71,468.081
1163.16,470.834
1164.61,468.179
1166.06,471.182
1167.51,474.293
1168.96,471.406
1170.41,472.56
1171.86,485.329
1173.31,470.677
1174.76,493.284
1176.21,474.017
1177.66,480.793
1179.12,478.107
1180.57,470.401
1182.02,462.682
1183.47,465.269
1184.92,481.126
1186.37,475.046
1187.82,482.689
1189.27,471.367
1190.72,488.619
1192.17,498.425
1193.62,502.872
1195.07,500.987
1196.52,498.43
1197.97,496.891
1199.42,488.99
1200.87,501.781
1202.32,500.988
1203.77,505.208
1205.22,494.302
1206.67,495.081
1208.12,488.96
1209.57,481.125
1211.02,486.435
1212.47,499.975
1213.92,506.241
1215.37,504.188
1216.82,504.188
1218.27,502.251
1219.72,499.074
1221.17,498.55
1222.63,502.382
1224.08,499.432
1225.53,504.029
1226.98,530.903
1228.43,518.966
1229.88,496.176
1231.33,515.778
1232.78,506.778
1234.23,530.26
1235.68,527.39
1237.13,525.951
1238.58,519.826
1240.03,503.743
1241.48,513.865
1242.93,526.464
1244.38,530.252
1245.83,517.252
1247.28,522.425
1248.73,531.272
1250.18,523.911
1251.63,541.451
1253.08,566.063
1254.53,556.938
1255.98,533.629
1257.43,545.226
1258.88,568.655
1260.33,557.228
1261.78,556.07
1263.23,562.498
1264.68,565.792
1266.13,567.756
1267.59,564.553
1269.04,565.574
1270.49,581.038
1271.94,594.236
1273.39,617.433
1274.84,600.91
1276.29,611.659
1277.74,636.779
1279.19,630.494
1280.64,625.241
1282.09,630.943
1283.54,632.818
1284.99,640.576
1286.44,674.031
1287.89,682.86
1289.34,689.819
1290.79,699.42
1292.24,713.368
1293.69,721.788
1295.14,744.193
1296.59,776.468
1298.04,790.699
1299.49,795.526
1300.94,816.132
1302.39,837
1303.84,880.628
1305.29,870.478
1306.74,873.651
1308.19,933.118
1309.64,978.737
1311.09,996.086
1312.55,1024.33
1314,1054.01
1315.45,1078.78
1316.9,1119.93
1318.35,1158.55
1319.8,1229.3
1321.25,1260.34
1322.7,1296.87
1324.15,1357.03
1325.6,1387.01
1327.05,1419.75
1328.5,1452.92
1329.95,1470.11
1331.4,1471.11
1332.85,1482.52
1334.3,1525.17
1335.75,1514.02
1337.2,1494.72
1338.65,1472.5
1340.1,1471.04
1341.55,1474.9
1343,1420.37
1344.45,1386.18
1345.9,1372.96
1347.35,1330.5
1348.8,1283.02
1350.25,1278.43
1351.7,1249.88
1353.15,1189
1354.6,1143.06
1356.06,1104.2
1357.51,1084.76
1358.96,1040.8
1360.41,999.282
1361.86,973.712
1363.31,931.236
1364.76,884.065
1366.21,884.8
1367.66,876.984
1369.11,840.48
1370.56,849.372
1372.01,816.443
1373.46,812.945
1374.91,798.975
1376.36,785.009
1377.81,775.784
1379.26,769.052
1380.71,753.928
1382.16,733.864
1383.61,730.893
1385.06,732.37
1386.51,743.127
1387.96,719.937
1389.41,743.365
1390.86,733.56
1392.31,715.258
1393.76,703.083
1395.21,703.921
1396.66,699.822
1398.11,697.618
1399.56,708.032
1401.02,708.597
1402.47,721.963
1403.92,728.872
1405.37,695.87
1406.82,707.254
1408.27,697.254
1409.72,701.257
1411.17,695.531
1412.62,696.2
1414.07,707.127
1415.52,708.571
1416.97,713.209
1418.42,735.285
1419.87,717.805
1421.32,735.891
1422.77,741.843
1424.22,723.949
1425.67,739.022
1427.12,735.184
1428.57,736.233
1430.02,729.729
1431.47,730.658
1432.92,739.279
1434.37,755.814
1435.82,763.705
1437.27,734.547
1438.72,755.932
1440.17,764.179
1441.62,748.696
1443.07,806.43
1444.53,794.88
1445.98,794.549
1447.43,799.688
1448.88,797.796
1450.33,797.283
1451.78,816.099
1453.23,833.289
1454.68,834.565
1456.13,853.56
1457.58,846.44
1459.03,869.07
1460.48,864.442
1461.93,876.411
1463.38,873.688
1464.83,879.607
1466.28,915.561
1467.73,940.36
1469.18,940.102
1470.63,935.157
1472.08,948.467
1473.53,970.476
1474.98,974.831
1476.43,979.777
1477.88,994.587
1479.33,1039.36
1480.78,1026.52
1482.23,1029.86
1483.68,1089.46
1485.13,1095.63
1486.58,1116.13
1488.03,1141.99
1489.49,1138.63
1490.94,1165.98
1492.39,1212.85
1493.84,1228.44
1495.29,1280.63
1496.74,1263.54
1498.19,1271.26
1499.64,1354.02
1501.09,1376.99
1502.54,1411.43
1503.99,1449.58
1505.44,1485.39
1506.89,1529.09
1508.34,1576.31
1509.79,1645.99
1511.24,1703.81
1512.69,1761.39
1514.14,1867.12
1515.59,1959.87
1517.04,2021.32
1518.49,2103.28
1519.94,2181.2
1521.39,2348.09
1522.84,2465.7
1524.29,2601.9
1525.74,2754.96
1527.19,2926.27
1528.64,3119.75
1530.09,3331.8
1531.54,3576.67
1532.99,3859.59
1534.45,4138.76
1535.9,4447.16
1537.35,4898.76
1538.8,5345.11
1540.25,5843.43
1541.7,6305.49
1543.15,6817.59
1544.6,7430.03
1546.05,8077.68
1547.5,8815.74
1548.95,9506.32
1550.4,10162.3
1551.85,10881.4
1553.3,11610.6
1554.75,12337.4
1556.2,13092.2
1557.65,13785.2
1559.1,13807.4
1560.55,13823.9
1562,13855.7
1563.45,13865.2
1564.9,13872.2
1566.35,13864
1567.8,13860.5
1569.25,13871.1
1570.7,13868.7
1572.15,13422.4
1573.6,12727.8
1575.05,12009.9
1576.5,11286.1
1577.96,10495.7
1579.41,9686.33
1580.86,8948.83
1582.31,8266.13
1583.76,7554.54
1585.21,6939.37
1586.66,6345.03
1588.11,5837
1589.56,5394.54
1591.01,4960.64
1592.46,4599.71
1593.91,4304.43
1595.36,3993.14
1596.81,3732.11
1598.26,3465.29
1599.71,3265.64
1601.16,3130.88
1602.61,2973.74
1604.06,2830
1605.51,2708.16
1606.96,2579.49
1608.41,2447.56
1609.86,2344.53
1611.31,2221.45
1612.76,2176.16
1614.21,2032.3
1615.66,1978.33
1617.11,1894.72
1618.56,1844.42
1620.01,1764.39
1621.46,1699.43
1622.92,1634.18
1624.37,1582.74
1625.82,1545.77
1627.27,1500.88
1628.72,1466.27
1630.17,1420.29
1631.62,1393.29
1633.07,1359.13
1634.52,1333.97
1635.97,1290.54
1637.42,1288.11
1638.87,1250.95
1640.32,1218.29
1641.77,1212.61
1643.22,1197.08
1644.67,1178.76
1646.12,1159.66
1647.57,1155.24
1649.02,1138.11
1650.47,1112.74
1651.92,1107.64
1653.37,1105.19
1654.82,1079.6
1656.27,1064.08
1657.72,1059.77
1659.17,1038.18
1660.62,1019.09
1662.07,1023.41
1663.52,1045.04
1664.97,1034.47
1666.42,1020.6
1667.88,1011.58
1669.33,1003.24
1670.78,989.652
1672.23,968.604
1673.68,973.924
1675.13,971.292
1676.58,969.335
1678.03,955.832
1679.48,943.94
1680.93,951.872
1682.38,949.936
1683.83,942.255
1685.28,932.324
1686.73,938.951
1688.18,936.855
1689.63,933.795
1691.08,925.347
1692.53,909.472
1693.98,908.03
1695.43,924.56
1696.88,934.76
1698.33,927.581
1699.78,929.948
1701.23,916.034
1702.68,919.283
1704.13,907.842
1705.58,917.375
1707.03,917.121
1708.48,896.067
1709.93,916.902
1711.39,916.531
1712.84,915.683
1714.29,911.704
1715.74,925.209
1717.19,935.775
1718.64,916.616
1720.09,918.182
1721.54,921.56
1722.99,898.471
1724.44,902.78
1725.89,928.184
1727.34,936.667
1728.79,936.782
1730.24,914.039
1731.69,898.635
1733.14,936.866
1734.59,906.754
1736.04,899.433
1737.49,922.144
1738.94,903.192
1740.39,900.39
1741.84,917.802
1743.29,902.043
1744.74,896.042
1746.19,880.698
1747.64,872.391
1749.09,885.392
1750.54,872.483
1751.99,870.549
1753.44,884.038
1754.89,872.839
1756.35,870.954
1757.8,891.537
1759.25,886.43
1760.7,875.516
1762.15,879.405
1763.6,858.745
1765.05,860.178
1766.5,873.911
1767.95,868.179
1769.4,842.997
1770.85,840.11
1772.3,833.625
1773.75,847.746
1775.2,841.968
1776.65,840.623
1778.1,842.187
1779.55,847.071
1781,841.721
1782.45,844.824
1783.9,841.452
1785.35,852.487
1786.8,855.514
1788.25,851.899
1789.7,843.677
1791.15,840.918
1792.6,852.814
1794.05,850.213
1795.5,845.8
1796.95,842.452
1798.4,846.949
1799.85,856.034
1801.31,831.433
1802.76,831.398
1804.21,814.127
1805.66,838.545
1807.11,797.259
1808.56,814.614
1810.01,822.949
1811.46,823.999
1812.91,803.442
1814.36,829.478
1815.81,846.658
1817.26,853.827
1818.71,852.989
1820.16,842.433
1821.61,834.379
1823.06,824.401
1824.51,831.893
1825.96,834.194
1827.41,825.699
1828.86,839.684
1830.31,846.533
1831.76,839.638
1833.21,847.457
1834.66,836.688
1836.11,836.406
1837.56,826.076
1839.01,851.962
1840.46,871.214
1841.91,834.641
1843.36,845.352
1844.82,859.53
1846.27,846.745
1847.72,858.345
1849.17,866.028
1850.62,858.26
1852.07,860.727
1853.52,879.905
1854.97,880.556
1856.42,864.441
1857.87,857.428
1859.32,882.767
1860.77,893.916
1862.22,883.173
1863.67,871.379
1865.12,876.361
1866.57,880.099
1868.02,870.314
1869.47,855.355
1870.92,847.906
1872.37,860.053
1873.82,871.422
1875.27,862.466
1876.72,851.213
1878.17,860.245
1879.62,851.895
1881.07,844.837
1882.52,834.771
1883.97,836.998
1885.42,837.847
1886.87,845.356
1888.32,842.435
1889.78,831.472
1891.23,838.906
1892.68,835.138
1894.13,841.449
1895.58,835.168
1897.03,843.754
1898.48,842.539
1899.93,822.28
1901.38,824.893
1902.83,818.589
1904.28,813.027
1905.73,818.1
1907.18,830.816
1908.63,830.732
1910.08,821.739
1911.53,808.379
1912.98,796.559
1914.43,805.203
1915.88,811.776
1917.33,797.528
1918.78,797.865
1920.23,813.091
1921.68,814.497
1923.13,813.106
1924.58,810.526
1926.03,802.867
1927.48,805.404
1928.93,814.794
1930.38,810.561
1931.83,807.067
1933.29,784.505
1934.74,809.196
1936.19,815.066
1937.64,783.483
1939.09,796.987
1940.54,788.803
1941.99,807.075
1943.44,809.05
1944.89,809.922
1946.34,811.65
1947.79,793.188
1949.24,810.305
1950.69,797
1952.14,817.979
1953.59,822.569
1955.04,807.264
1956.49,817.845
1957.94,813.099
1959.39,802.301
1960.84,811.896
1962.29,808.887
1963.74,816.307
1965.19,821.791
1966.64,820.949
1968.09,835.721
1969.54,843.857
1970.99,845.727
1972.44,849.935
1973.89,833.499
1975.34,833.728
1976.79,842.477
1978.25,840.947
1979.7,830.442
1981.15,831.829
1982.6,838.294
1984.05,829.518
1985.5,836.858
1986.95,830.905
1988.4,820.181
1989.85,842.233
1991.3,835.417
1992.75,835.951
1994.2,839.25
1995.65,844.669
1997.1,847.365
1998.55,840.62
2000,832.979
2001.45,847.74
2002.9,837.89
2004.35,831.189
2005.8,836.135
2007.25,843.108
2008.7,847.792
2010.15,848.976
2011.6,853.583
2013.05,826.483
2014.5,820.632
2015.95,832.232
2017.4,821.739
2018.85,802.396
2020.3,831.67
2021.75,834.815
2023.21,807.336
2024.66,828.583
2026.11,818.778
2027.56,830.126
2029.01,834.258
2030.46,813.022
2031.91,815.066
2033.36,802.175
2034.81,811.487
2036.26,826.301
2037.71,817.169
2039.16,818.458
2040.61,828.094
2042.06,804.945
2043.51,789.448
2044.96,800.784
2046.41,777.659
2047.86,790.376
2049.31,800.99
2050.76,790.63
2052.21,788.992
2053.66,808.123
2055.11,812.684
2056.56,795.093
2058.01,788.083
2059.46,804.579
2060.91,806.474
2062.36,795.883
2063.81,787.39
2065.26,778.266
2066.72,781.308
2068.17,793.211
2069.62,771.034
2071.07,774.527
2072.52,797.366
2073.97,795.581
2075.42,788.701
2076.87,790.433
2078.32,786.941
2079.77,772.484
2081.22,783.552
2082.67,797.331
2084.12,793.678
2085.57,775.699
2087.02,776.894
2088.47,761.846
2089.92,760.851
2091.37,768.082
2092.82,781.371
2094.27,801.043
2095.72,789.961
2097.17,783.225
2098.62,785.987
2100.07,775.048
2101.52,765.602
2102.97,773.164
2104.42,765.528
2105.87,778.54
2107.32,783.877
2108.77,787.344
2110.22,788.934
2111.68,794.992
2113.13,785.195
2114.58,780.342
2116.03,793.646
2117.48,794.143
2118.93,781.517
2120.38,796.07
2121.83,795.12
2123.28,772.006
2124.73,786.155
2126.18,795.947
2127.63,790.287
2129.08,793.191
2130.53,799.062
2131.98,804.501
2133.43,803.957
2134.88,803.891
2136.33,798.953
2137.78,805.668
2139.23,805.391
2140.68,804.214
2142.13,796.353
2143.58,795.063
2145.03,821.46
2146.48,822.954
2147.93,813.201
2149.38,802.351
2150.83,804.061
2152.28,816.296
2153.73,816.887
2155.18,806.906
2156.64,811.666
2158.09,812.652
2159.54,809.832
2160.99,819.454
2162.44,820.81
2163.89,821.649
2165.34,814.266
2166.79,819.497
2168.24,845.144
2169.69,838.246
2171.14,827.177
2172.59,828.23
2174.04,829.918
2175.49,836.344
2176.94,838.532
2178.39,832.059
2179.84,833.302
2181.29,834.288
2182.74,839.459
2184.19,837.71
2185.64,831.48
2187.09,837.214
2188.54,844.453
2189.99,844.7
2191.44,839.528
2192.89,849.473
2194.34,849.101
2195.79,848.93
2197.24,856.562
2198.69,853.849
2200.15,841.413
2201.6,843.025
2203.05,843.523
2204.5,861.954
2205.95,857.37
2207.4,861.239
2208.85,853.647
2210.3,860.087
2211.75,868.847
2213.2,872.004
2214.65,864.343
2216.1,864.431
2217.55,871.084
2219,876.716
2220.45,853.419
2221.9,873.973
2223.35,885.097
2224.8,883.424
2226.25,868.84
2227.7,853.905
2229.15,880.196
2230.6,893.839
2232.05,893.255
2233.5,872.067
2234.95,878.523
2236.4,878.676
2237.85,882.557
2239.3,861.711
2240.75,867.594
2242.2,887.619
2243.65,900.087
2245.11,877.241
2246.56,898.11
2248.01,890.12
2249.46,887.49
2250.91,905.348
2252.36,896.192
2253.81,889.951
2255.26,899.991
2256.71,886.31
2258.16,895.587
2259.61,907.424
2261.06,901.411
2262.51,879.453
2263.96,904.838
2265.41,913.534
2266.86,900.639
2268.31,883.717
2269.76,897.726
2271.21,916.921
2272.66,906.926
2274.11,905.525
2275.56,892.242
2277.01,894.446
2278.46,920.805
2279.91,921.203
2281.36,938.885
2282.81,943.802
2284.26,912.998
2285.71,912.557
2287.16,926.668
2288.61,941.334
2290.07,927.804
2291.52,912.187
2292.97,933.486
2294.42,938.926
2295.87,943.037
2297.32,945.305
2298.77,921.983
2300.22,945.391
2301.67,978.344
2303.12,977.136
2304.57,963.125
2306.02,945.951
2307.47,952.047
2308.92,949.13
2310.37,962.272
2311.82,958.381
2313.27,971.91
2314.72,952.389
2316.17,981.777
2317.62,962.041
2319.07,972.698
2320.52,989.659
2321.97,976.007
2323.42,979.186
2324.87,1008.68
2326.32,987.702
2327.77,991.377
2329.22,984.105
2330.67,1011.94
2332.12,1016.04
2333.57,1019.45
2335.03,1022.04
2336.48,996.485
2337.93,995.016
2339.38,1015.72
2340.83,1036.48
2342.28,1028.73
2343.73,1038.7
2345.18,1028.71
2346.63,1043.02
2348.08,1058.88
2349.53,1060.3
2350.98,1057.65
2352.43,1074.17
2353.88,1068.26
2355.33,1072.43
2356.78,1075.43
2358.23,1096.17
2359.68,1085.03
2361.13,1099.18
2362.58,1129.7
2364.03,1136.86
2365.48,1114.52
2366.93,1120.38
2368.38,1147.49
2369.83,1148.94
2371.28,1142.68
2372.73,1150.36
2374.18,1185.96
2375.63,1198.88
2377.08,1206.18
2378.54,1212.3
2379.99,1212.6
2381.44,1223.12
2382.89,1259.14
2384.34,1270.57
2385.79,1261.14
2387.24,1273.72
2388.69,1301.44
2390.14,1322.15
2391.59,1346.24
2393.04,1345.17
2394.49,1351.71
2395.94,1375.17
2397.39,1364.43
2398.84,1369.31
2400.29,1432.52
2401.74,1458.91
2403.19,1465.24
2404.64,1471.97
2406.09,1475.77
2407.54,1517.3
2408.99,1502.32
2410.44,1514.8
2411.89,1509.69
2413.34,1548.52
2414.79,1566.87
2416.24,1539.35
2417.69,1576.69
2419.14,1568.44
2420.59,1582.86
2422.04,1592.59
2423.5,1584.85
2424.95,1600.64
2426.4,1613.13
2427.85,1611.22
2429.3,1589.64
2430.75,1586.04
2432.2,1570.11
2433.65,1579.33
2435.1,1585.45
2436.55,1598.81
2438,1558.58
2439.45,1568.44
2440.9,1573.18
2442.35,1567.82
2443.8,1540.38
2445.25,1532.88
2446.7,1556.48
2448.15,1536.44
2449.6,1527.94
2451.05,1536.81
2452.5,1514.22
2453.95,1524.51
2455.4,1513.04
2456.85,1500.23
2458.3,1475.94
2459.75,1440.8
2461.2,1451.92
2462.65,1452.64
2464.1,1459.88
2465.55,1471.49
2467.01,1484.04
2468.46,1446.19
2469.91,1481.44
2471.36,1477.29
2472.81,1455.15
2474.26,1443.65
2475.71,1436.09
2477.16,1471.1
2478.61,1459.62
2480.06,1449.96
2481.51,1457.43
2482.96,1432.22
2484.41,1451.38
2485.86,1443.19
2487.31,1449.96
2488.76,1449.01
2490.21,1453.52
2491.66,1442.08
2493.11,1452.3
2494.56,1483.78
2496.01,1466.01
2497.46,1471.7
2498.91,1469.06
2500.36,1496.75
2501.81,1487.58
2503.26,1481.99
2504.71,1507.73
2506.16,1519.99
2507.61,1502.43
2509.06,1517.44
2510.51,1518.18
2511.97,1509.74
2513.42,1490.58
2514.87,1537.49
2516.32,1536.37
2517.77,1526.54
2519.22,1547.96
2520.67,1552.72
2522.12,1550.11
2523.57,1576.86
2525.02,1621.59
2526.47,1634.23
2527.92,1637.69
2529.37,1640.55
2530.82,1675.45
2532.27,1688.55
2533.72,1685.75
2535.17,1700.29
2536.62,1705.53
2538.07,1742.32
2539.52,1726.89
2540.97,1763.14
2542.42,1783.4
2543.87,1786.36
2545.32,1825.77
2546.77,1818.19
2548.22,1870.35
2549.67,1915.56
2551.12,1934.73
2552.57,1947.85
2554.02,1949.99
2555.48,1960.1
2556.93,1999.32
2558.38,2046.5
2559.83,2071.15
2561.28,2096.04
2562.73,2126.57
2564.18,2203.07
2565.63,2212.16
2567.08,2269.97
2568.53,2291.59
2569.98,2395.38
2571.43,2437.08
2572.88,2470.82
2574.33,2511.74
2575.78,2571.26
2577.23,2618.51
2578.68,2672.86
2580.13,2739.59
2581.58,2774.08
2583.03,2810.32
2584.48,2906.73
2585.93,2980.76
2587.38,3044.31
2588.83,3173.68
2590.28,3217.13
2591.73,3280.56
2593.18,3408.26
2594.63,3530.82
2596.08,3612.26
2597.53,3726.88
2598.98,3880.01
2600.44,3988.55
2601.89,4098.71
2603.34,4242.2
2604.79,4391.37
2606.24,4494.34
2607.69,4667.15
2609.14,4818.78
2610.59,5002.93
2612.04,5139.71
2613.49,5372.58
2614.94,5489.84
2616.39,5644.31
2617.84,5920.67
2619.29,6084.44
2620.74,6297.13
2622.19,6560.32
2623.64,6776.84
2625.09,6949.82
2626.54,7161.56
2627.99,7376.71
2629.44,7630.31
2630.89,7795.92
2632.34,8021.99
2633.79,8277.48
2635.24,8507.74
2636.69,8753.69
2638.14,8925.49
2639.59,9092.63
2641.04,9323.2
2642.49,9534.81
2643.94,9677.32
2645.4,9824.5
2646.85,9929.92
2648.3,10061.7
2649.75,10140.4
2651.2,10202.8
2652.65,10240
2654.1,10172.1
2655.55,10193.7
2657,10241.7
2658.45,10159.7
2659.9,10136.1
2661.35,10096.3
2662.8,9999.89
2664.25,9821.02
2665.7,9669.1
2667.15,9553.04
2668.6,9385.96
2670.05,9113.23
2671.5,8866.21
2672.95,8770.77
2674.4,8457.95
2675.85,8317.45
2677.3,8047.76
2678.75,7803.67
2680.2,7578.62
2681.65,7288.19
2683.1,7092.11
2684.55,6884.92
2686,6691.47
2687.45,6448.36
2688.91,6164.66
2690.36,5953.61
2691.81,5698.25
2693.26,5483.56
2694.71,5302
2696.16,5118.91
2697.61,4849.96
2699.06,4757.43
2700.51,4626.2
2701.96,4458.99
2703.41,4283.5
2704.86,4114.35
2706.31,3961.62
2707.76,3828.27
2709.21,3682.33
2710.66,3527.35
2712.11,3411.24
2713.56,3315.67
2715.01,3212.78
2716.46,3198.22
2717.91,3043.58
2719.36,2972.8
2720.81,2871.07
2722.26,2749.92
2723.71,2716.68
2725.16,2664.02
2726.61,2569.76
2728.06,2514.22
2729.51,2492.55
2730.96,2392.49
2732.41,2371.29
2733.87,2311.91
2735.32,2226.67
2736.77,2201.45
2738.22,2151.88
2739.67,2133.08
2741.12,2084.29
2742.57,2052.55
2744.02,2040.51
2745.47,1945
2746.92,1950.97
2748.37,1910
2749.82,1900.82
2751.27,1858.93
2752.72,1820.04
2754.17,1831.26
2755.62,1773.48
2757.07,1734.52
2758.52,1737.27
2759.97,1714.45
2761.42,1696.66
2762.87,1699.3
2764.32,1648.49
2765.77,1646.21
2767.22,1647.18
2768.67,1613.28
2770.12,1593.94
2771.57,1596.64
2773.02,1568.87
2774.47,1567.21
2775.92,1549.14
2777.38,1541.92
2778.83,1526.88
2780.28,1511.15
2781.73,1491.54
2783.18,1458.12
2784.63,1496.91
2786.08,1448.03
2787.53,1455.4
2788.98,1447.57
2790.43,1427.89
2791.88,1429.51
2793.33,1420.58
2794.78,1390.04
2796.23,1408.86
2797.68,1382.63
2799.13,1407.18
2800.58,1377.93
2802.03,1366.96
2803.48,1348.47
2804.93,1382.77
2806.38,1369.9
2807.83,1343.26
2809.28,1336.17
2810.73,1337.84
2812.18,1318.62
2813.63,1337.37
2815.08,1316.39
2816.53,1317.53
2817.98,1313.68
2819.43,1319.92
2820.88,1314.42
2822.33,1295.42
2823.79,1279.32
2825.24,1291.13
2826.69,1296.78
2828.14,1291.93
2829.59,1275.69
2831.04,1282.2
2832.49,1254.96
2833.94,1258.51
2835.39,1276.04
2836.84,1262.5
2838.29,1232.2
2839.74,1224.51
2841.19,1232.68
2842.64,1253.99
2844.09,1248.73
2845.54,1237.76
2846.99,1207.59
2848.44,1256.05
2849.89,1240.2
2851.34,1237.15
2852.79,1242.16
2854.24,1238.68
2855.69,1231.94
2857.14,1229.83
2858.59,1232.04
2860.04,1205.27
2861.49,1255.26
2862.94,1204.6
2864.39,1216.26
2865.84,1236.76
2867.3,1241.12
2868.75,1219.96
2870.2,1217.68
2871.65,1213.56
2873.1,1206.55
2874.55,1196.32
2876,1192.43
2877.45,1219.63
2878.9,1225.77
2880.35,1186.93
2881.8,1191.32
2883.25,1212.01
2884.7,1216.45
2886.15,1212.53
2887.6,1206.48
2889.05,1213.43
2890.5,1221.95
2891.95,1205.2
2893.4,1208.02
2894.85,1199.37
2896.3,1204.31
2897.75,1203.64
2899.2,1205.7
2900.65,1208.02
2902.1,1205.82
2903.55,1186.9
2905,1194.5
2906.45,1203.08
2907.9,1193.52
2909.35,1187.53
2910.8,1181.38
2912.26,1167.21
2913.71,1179.43
2915.16,1166.57
2916.61,1173.63
2918.06,1149.12
2919.51,1178.76
2920.96,1164.7
2922.41,1180.67
2923.86,1164.96
2925.31,1155.79
2926.76,1167.31
2928.21,1160.67
2929.66,1152.35
2931.11,1142.2
2932.56,1142.26
2934.01,1140.22
2935.46,1117.66
2936.91,1115.81
2938.36,1116.43
2939.81,1114.67
2941.26,1108.01
2942.71,1102.7
2944.16,1118.48
2945.61,1114.97
2947.06,1094.74
2948.51,1094.42
2949.96,1083.22
2951.41,1093
2952.86,1099.37
2954.31,1093.95
2955.77,1070.45
2957.22,1069.01
2958.67,1056.22
2960.12,1077.38
2961.57,1048.46
2963.02,1066.25
2964.47,1060.74
2965.92,1064.89
2967.37,1057.21
2968.82,1056.97
2970.27,1052.58
2971.72,1052.44
2973.17,1040.02
2974.62,1038.16
2976.07,1029.54
2977.52,1024.78
2978.97,1027.1
2980.42,1034.88
2981.87,1025.56
2983.32,1026.82
2984.77,1021.54
2986.22,1026.08
2987.67,1024.15
2989.12,1039.56
2990.57,1026
2992.02,1029.27
2993.47,1029.87
2994.92,1031.06
2996.37,1018.78
2997.82,1031.21
2999.27,1039.75
3000.73,1014.9
3002.18,1024.48
3003.63,998.784
3005.08,1025.7
3006.53,1028.48
3007.98,1024.15
3009.43,1025.74
3010.88,1015.87
3012.33,1005.31
3013.78,992.55
3015.23,1004.23
3016.68,1014.14
3018.13,1024.73
3019.58,991.469
3021.03,990.861
3022.48,997.015
3023.93,1008.25
3025.38,1015.1
3026.83,1021
3028.28,1018.93
3029.73,1025.84
3031.18,1014.15
3032.63,1001.91
3034.08,1026.67
3035.53,1001.91
3036.98,1010.54
3038.43,985.719
3039.88,1001.47
3041.33,1043.4
3042.78,1038.74
3044.23,1016.02
3045.69,1015.93
3047.14,1008.73
3048.59,1003.64
3050.04,1012.86
3051.49,987.258
3052.94,1011.62
3054.39,1015.59
3055.84,997.293
3057.29,1018.36
3058.74,1023.91
3060.19,1051.44
3061.64,1030.31
3063.09,1045.24
3064.54,1035.68
3065.99,1028.47
3067.44,1036.71
3068.89,1048.19
3070.34,1046.81
3071.79,1029.71
3073.24,1050.56
3074.69,1060.35
3076.14,1068.79
3077.59,1068.26
3079.04,1082.41
3080.49,1093.61
3081.94,1092.41
3083.39,1055.44
3084.84,1085.96
3086.29,1112.63
3087.74,1086.46
3089.2,1106.39
3090.65,1120.81
3092.1,1145.88
3093.55,1132.05
3095,1136.63
3096.45,1136.94
3097.9,1145.66
3099.35,1140.31
3100.8,1146.87
3102.25,1175.65
3103.7,1161.21
3105.15,1204.61
3106.6,1213.01
3108.05,1212.38
3109.5,1208.39
3110.95,1227.27
3112.4,1240.84
3113.85,1252.66
3115.3,1213.44
3116.75,1248.75
3118.2,1293.65
3119.65,1283.94
3121.1,1304.53
3122.55,1325.91
3124,1318.7
3125.45,1318.4
3126.9,1342.26
3128.35,1344.9
3129.8,1329.03
3131.25,1355.74
3132.7,1357.75
3134.16,1348.48
3135.61,1359.09
3137.06,1342.88
3138.51,1352.27
3139.96,1393.89
3141.41,1398.83
3142.86,1400.18
3144.31,1402.9
3145.76,1386.39
3147.21,1399.95
3148.66,1441.44
3150.11,1428.88
3151.56,1412.87
3153.01,1415.06
3154.46,1425.64
3155.91,1406.7
3157.36,1440.61
3158.81,1431.93
3160.26,1448.73
3161.71,1442.2
3163.16,1432.84
3164.61,1449.02
3166.06,1437.56
3167.51,1451.06
3168.96,1457.19
3170.41,1491.43
3171.86,1513.82
3173.31,1493.46
3174.76,1499.99
3176.21,1505.93
3177.67,1505.78
3179.12,1537.21
3180.57,1525.32
3182.02,1528.44
3183.47,1552.53
3184.92,1558.08
3186.37,1570.29
3187.82,1567.72
3189.27,1551.3
3190.72,1561.91
3192.17,1562.13
3193.62,1560.56
3195.07,1552.23
3196.52,1546.15
3197.97,1548.8
3199.42,1544.59
3200.87,1515.2
3202.32,1540.97
3203.77,1502.83
3205.22,1478.37
3206.67,1459.52
3208.12,1520.39
3209.57,1472.13
3211.02,1439.59
3212.47,1424.47
3213.92,1431.79
3215.37,1419.01
3216.82,1397.23
3218.27,1403.8
3219.72,1377.14
3221.17,1361.21
3222.63,1347.42
3224.08,1343.83
3225.53,1320.77
3226.98,1284.11
3228.43,1280.43
3229.88,1262.3
3231.33,1242.58
3232.78,1211.45
3234.23,1204.33
3235.68,1180.04
3237.13,1136.05
3238.58,1173.15
3240.03,1173.88
3241.48,1148
3242.93,1127.31
3244.38,1116.55
3245.83,1089.45
3247.28,1079.51
3248.73,1076.92
3250.18,1091.1
3251.63,1073.35
3253.08,1053.39
3254.53,1050.39
3255.98,1025.24
3257.43,1017.3
3258.88,1030.29
3260.33,1011.88
3261.78,1033.91
3263.23,1024.02
3264.68,995.962
3266.13,1018.38
3267.59,1039.67
3269.04,1010.75
3270.49,998.57
3271.94,1017.42
3273.39,990.517
3274.84,978.019
3276.29,1017.17
3277.74,974.658
3279.19,980.36
3280.64,1001.46
3282.09,999.004
3283.54,992.117
3284.99,972.685
3286.44,980.086
3287.89,986.554
3289.34,961.011
3290.79,977.968
3292.24,983.267
3293.69,981.063
3295.14,979.267
3296.59,977.326
3298.04,966.108
3299.49,979.609
3300.94,976.57
3302.39,998.741
3303.84,972.157
3305.29,968.579
3306.74,980.47
3308.19,973.731
3309.64,975.747
3311.09,985.99
3312.55,981.113
3314,999.995
3315.45,984.777
3316.9,976.672
3318.35,969.991
3319.8,963.664
3321.25,979.868
3322.7,966.658
3324.15,966.816
3325.6,988.922
3327.05,989.022
3328.5,964.818
3329.95,973.727
3331.4,995.366
3332.85,973.091
3334.3,972.233
3335.75,964.832
3337.2,970.51
3338.65,958.574
3340.1,979.848
3341.55,963.565
3343,965.014
3344.45,961.959
3345.9,967.89
3347.35,922.242
3348.8,970.458
3350.25,976.09
3351.7,986.102
3353.15,985.709
3354.6,975.203
3356.06,968.71
3357.51,986.596
3358.96,945.335
3360.41,954.652
3361.86,960.361
3363.31,974.318
3364.76,948.184
3366.21,964.076
3367.66,988.564
3369.11,984.242
3370.56,978.529
3372.01,981.192
3373.46,954.196
3374.91,988.437
3376.36,991.861
3377.81,978.845
3379.26,960.63
3380.71,992.51
3382.16,1000.54
3383.61,985.517
3385.06,977.693
3386.51,967.413
3387.96,980.415
3389.41,1003.62
3390.86,1001.25
3392.31,968.268
3393.76,978.473
3395.21,987.709
3396.66,956.103
3398.11,987.298
3399.56,983.364
3401.02,984.404
3402.47,983.407
3403.92,971.537
3405.37,987.096
3406.82,963.581
3408.27,998.412
3409.72,980.568
3411.17,984.585
3412.62,966.269
3414.07,994.451
3415.52,965.362
3416.97,990.739
3418.42,989.339
3419.87,980.9
3421.32,976.013
3422.77,975.165
3424.22,986.735
3425.67,1006.57
3427.12,1017.5
3428.57,987.749
3430.02,992.506
3431.47,986.235
3432.92,968.018
3434.37,982.757
3435.82,996.392
3437.27,998.109
3438.72,1003.52
3440.17,981.727
3441.62,987.259
3443.07,991.742
3444.52,1002.52
3445.98,989.981
3447.43,961.753
3448.88,971.987
3450.33,978.711
3451.78,987.112
3453.23,1005.27
3454.68,984.592
3456.13,990.311
3457.58,1015.25
3459.03,990.12
3460.48,984.351
3461.93,986.59
3463.38,978.1
3464.83,997.987
3466.28,997.387
3467.73,973.951
3469.18,1005.6
3470.63,996.069
3472.08,991.733
3473.53,986.163
3474.98,994.765
3476.43,965.826
3477.88,1012.07
3479.33,999.939
3480.78,996.888
3482.23,1007.65
3483.68,1001.92
3485.13,992.092
3486.58,999.244
3488.03,985.812
3489.49,985.599
3490.94,987.331
3492.39,988.903
3493.84,1003.77
3495.29,986.495
3496.74,999.328
3498.19,985.368
3499.64,1020.46
3501.09,986.02
3502.54,1019
3503.99,1006.48
3505.44,989.385
3506.89,1013.13
3508.34,1010.1
3509.79,1026.4
3511.24,1020.91
3512.69,1019.43
3514.14,1006.47
3515.59,1016.33
3517.04,1048.17
3518.49,1023.2
3519.94,1006.35
3521.39,986.589
3522.84,1031.93
3524.29,1009.73
3525.74,997.941
3527.19,1023.26
3528.64,1012.33
3530.09,1019.01
3531.54,996.134
3532.99,999.005
3534.45,1010.33
3535.9,1034.3
3537.35,1008.21
3538.8,1008.6
3540.25,991.007
3541.7,994.7
3543.15,1000.3
3544.6,1008.05
3546.05,1036.7
3547.5,1025.52
3548.95,1033.9
3550.4,1028.36
3551.85,1028.36
3553.3,995.764
3554.75,1003.44
3556.2,1004.75
3557.65,1023.76
3559.1,1014.1
3560.55,1008.77
3562,996.163
3563.45,1031.16
3564.9,1028.39
3566.35,1009.31
3567.8,1033.18
3569.25,1015.06
3570.7,1026.66
3572.15,1029.19
3573.6,1033.38
3575.05,1027.37
3576.5,998.342
3577.96,995.29
3579.41,1020.56
3580.86,1012.41
3582.31,1026.23
3583.76,1034.44
3585.21,1032.03
3586.66,1023.53
3588.11,1039.33
3589.56,1018.34
3591.01,1035.67
3592.46,1047.56
3593.91,1019.83
3595.36,1023.37
3596.81,1038.7
3598.26,1033.19
3599.71,1014.64
3601.16,1028.91
3602.61,1040.68
3604.06,1027.77
3605.51,1025.56
3606.96,1023.78
3608.41,1039.57
3609.86,1030.6
3611.31,1042.95
3612.76,1019.72
3614.21,1018.46
3615.66,1059.7
3617.11,1027.7
3618.56,1039.5
3620.01,1030.96
3621.46,1043.05
3622.92,1041.6
3624.37,1042.31
3625.82,1042.58
3627.27,1046.32
3628.72,1015.39
3630.17,1030.92
3631.62,1045.33
3633.07,1022.95
3634.52,1043.05
3635.97,1045.29
3637.42,1042.84
3638.87,1051.42
3640.32,1022.86
3641.77,1064.47
3643.22,1066.53
3644.67,1050.1
3646.12,1050.75
3647.57,1053.95
3649.02,1048.81
3650.47,1061.08
3651.92,1052.44
3653.37,1062.59
3654.82,1056.96
3656.27,1051.6
3657.72,1047.17
3659.17,1062.71
3660.62,1071.07
3662.07,1061.06
3663.52,1058.23
3664.97,1063.14
3666.43,1056.63
3667.88,1076.04
3669.33,1044.21
3670.78,1049.22
3672.23,1061.26
3673.68,1071.63
3675.13,1071.77
3676.58,1075.94
3678.03,1059.59
3679.48,1076.12
3680.93,1083.74
3682.38,1060.3
3683.83,1059.04
3685.28,1057.17
3686.73,1081.95
3688.18,1073.18
3689.63,1075.65
3691.08,1065.69
3692.53,1082.39
3693.98,1070.55
3695.43,1081.19
3696.88,1070.1
3698.33,1057.93
3699.78,1058.03
3701.23,1071.17
3702.68,1075.61
3704.13,1095.01
3705.58,1075.4
3707.03,1094.81
3708.48,1074.13
3709.93,1069.21
3711.39,1081.44
3712.84,1054.03
3714.29,1088.88
3715.74,1078.49
3717.19,1081.01
3718.64,1088.07
3720.09,1080.21
3721.54,1079.72
3722.99,1079.69
3724.44,1085.37
3725.89,1073.24
3727.34,1060.33
3728.79,1064.08
3730.24,1059.64
3731.69,1091.91
3733.14,1087.94
3734.59,1091.18
3736.04,1077.38
3737.49,1081.12
3738.94,1094.34
3740.39,1113.36
3741.84,1076.4
3743.29,1108.44
3744.74,1118.22
3746.19,1087.48
3747.64,1100.53
3749.09,1110.85
3750.54,1082.74
3751.99,1087.85
3753.44,1094.74
3754.89,1097.3
3756.35,1108.23
3757.8,1102.85
3759.25,1102.17
3760.7,1103.07
3762.15,1099.24
3763.6,1086.54
3765.05,1106.49
3766.5,1105.82
3767.95,1112.22
3769.4,1108.37
3770.85,1104.64
3772.3,1094.66
3773.75,1096.55
3775.2,1104.75
3776.65,1101.16
3778.1,1118
3779.55,1102.19
3781,1119.71
3782.45,1133.13
3783.9,1113.03
3785.35,1096.25
3786.8,1138.18
3788.25,1095.86
3789.7,1117.4
3791.15,1099.64
3792.6,1133.54
3794.05,1110.97
3795.5,1096.51
3796.95,1105.43
3798.4,1093.56
3799.85,1118.79
3801.31,1119.4
3802.76,1096.86
3804.21,1146.12
3805.66,1141.73
3807.11,1142.61
3808.56,1131.7
3810.01,1141.45
3811.46,1149.38
3812.91,1146.91
3814.36,1129.91
3815.81,1130.79
3817.26,1136
3818.71,1135.17
3820.16,1146.73
3821.61,1149.53
3823.06,1128.26
3824.51,1121.29
3825.96,1143.46
3827.41,1144.46
3828.86,1142.52
3830.31,1153.78
3831.76,1142.84
3833.21,1149.88
3834.66,1167.06
3836.11,1164.41
3837.56,1157.25
3839.01,1149.41
3840.46,1149.88
3841.91,1139.79
3843.36,1137.84
3844.82,1105.7
3846.27,1145.64
3847.72,1160.44
3849.17,1157.82
3850.62,1177.62
3852.07,1163.56
3853.52,1157.25
3854.97,1158.96
3856.42,1157.48
3857.87,1157.27
3859.32,1169
3860.77,1163.7
3862.22,1161.67
3863.67,1175.35
3865.12,1172.96
3866.57,1161.81
3868.02,1162.16
3869.47,1187.69
3870.92,1161.35
3872.37,1155.4
3873.82,1173.79
3875.27,1197.46
3876.72,1210.13
3878.17,1204.66
3879.62,1173.51
3881.07,1180.68
3882.52,1179.8
3883.97,1183.02
3885.42,1196.26
3886.87,1195.27
3888.32,1205.34
3889.78,1187.76
3891.23,1198.2
3892.68,1192.53
3894.13,1189.88
3895.58,1199.56
3897.03,1214.53
3898.48,1217.05
3899.93,1226.18
3901.38,1219.9
3902.83,1195.42
3904.28,1222.41
3905.73,1225.33
3907.18,1226.64
3908.63,1204.9
3910.08,1219.89
3911.53,1215.34
3912.98,1235.19
3914.43,1224.89
3915.88,1226.86
3917.33,1213.57
3918.78,1204.41
3920.23,1228.63
3921.68,1236.37
3923.13,1252.95
3924.58,1231.44
3926.03,1241.96
3927.48,1236.93
3928.93,1280.15
3930.38,1235.8
3931.83,1241.83
3933.28,1247.23
3934.74,1253.38
3936.19,1275.24
3937.64,1261.13
3939.09,1241.69
3940.54,1276.05
3941.99,1262.13
3943.44,1253.05
3944.89,1258.87
3946.34,1271.77
3947.79,1285.4
3949.24,1276.02
3950.69,1280.24
3952.14,1287.81
3953.59,1294.7
3955.04,1298.91
3956.49,1261.18
3957.94,1304.26
3959.39,1274.88
3960.84,1271.64
3962.29,1281.89
3963.74,1275.43
3965.19,1265.04
3966.64,1313.47
3968.09,1283.39
3969.54,1307.66
3970.99,1277.32
3972.44,1302.52
3973.89,1298.11
3975.34,1326.92
3976.79,1320.14
3978.25,1328.72
3979.7,1325.47
3981.15,1311.82
3982.6,1319.56
3984.05,1331.79
3985.5,1337.7
3986.95,1355.3
3988.4,1332.74
3989.85,1338.62
3991.3,1333.29
3992.75,1341.91
3994.2,1358.1
3995.65,1329.57
3997.1,1396.27
3998.55,1338.9
4000,1341.78
