-0.2,4.26421
1.45033,4.26421
2.90065,4.26421
4.35098,4.26421
5.80131,4.26421
7.25163,4.26421
8.70196,17.8396
10.1523,7.82559
11.6026,6.16632
13.0529,6.84612
14.5033,7.65507
15.9536,6.93775
17.4039,2.78228
18.8542,0.237954
20.3046,0.187573
21.7549,1.65612
23.2052,3.42457
24.6555,3.21663
26.1059,2.29519
27.5562,0.65125
29.0065,0.151713
30.4569,3.14137
31.9072,1.47656
33.3575,1.37469
34.8078,1.19901
36.2582,0.654862
37.7085,1.27954
39.1588,0.175134
40.6091,1.35248
42.0595,3.77477
43.5098,5.92424
44.9601,6.7578
46.4104,6.39052
47.8608,9.88483
49.3111,17.2807
50.7614,26.0755
52.2117,64.8665
53.6621,126.072
55.1124,218.108
56.5627,342.43
58.0131,490.381
59.4634,635.329
60.9137,765.276
62.364,856.336
63.8144,897.333
65.2647,972.514
66.715,1004.77
68.1653,1032.69
69.6157,1064.29
71.066,1094.29
72.5163,1107.45
73.9666,1103.57
75.417,1093.73
76.8673,1094.9
78.3176,1140.91
79.7679,1149.62
81.2183,1168.42
82.6686,1201.24
84.1189,1243.5
85.5693,1271.34
87.0196,1279.16
88.4699,1278.14
89.9202,1250.97
91.3706,1174.92
92.8209,1112.08
94.2712,1054.59
95.7215,990.889
97.1719,932.701
98.6222,915.935
100.073,883.265
101.523,845.259
102.973,810.638
104.423,784.04
105.874,762.646
107.324,745.05
108.774,736.573
110.225,723.538
111.675,698.561
113.125,704.018
114.576,714.978
116.026,708.793
117.476,686.625
118.927,660.089
120.377,667.45
121.827,653.608
123.278,645.853
124.728,645.456
126.178,635.576
127.629,621.712
129.079,607.372
130.529,597.808
131.98,592.09
133.43,579.889
134.88,565.096
136.331,545.976
137.781,537.301
139.231,540.287
140.682,516.286
142.132,522.634
143.582,512.653
145.033,495.974
146.483,485.705
147.933,469.691
149.384,483.538
150.834,479.209
152.284,462.316
153.735,453.548
155.185,472.525
156.635,456.545
158.086,450.451
159.536,458.885
160.986,468.692
162.437,467.215
163.887,450.946
165.337,432.124
166.788,417.353
168.238,410.091
169.688,411.993
171.139,402.852
172.589,397.576
174.039,396.088
175.489,383.394
176.94,408.295
178.39,414.492
179.84,412.942
181.291,409.263
182.741,400.804
184.191,390.904
185.642,381.558
187.092,371.112
188.542,364.935
189.993,382.31
191.443,368.012
192.893,367.895
194.344,376.096
195.794,380.043
197.244,358.438
198.695,363.266
200.145,364.583
201.595,359.52
203.046,350.81
204.496,349.113
205.946,357.774
207.397,362.777
208.847,368.193
210.297,374.427
211.748,366.152
213.198,367.194
214.648,370.374
216.099,369.545
217.549,363.736
218.999,366.284
220.45,374.072
221.9,369.403
223.35,358.842
224.801,352.822
226.251,364.932
227.701,361.311
229.152,368.808
230.602,363.553
232.052,340.18
233.503,358.913
234.953,360.007
236.403,360.87
237.854,361.727
239.304,361.652
240.754,361.226
242.204,357.828
243.655,354.789
245.105,347.092
246.555,336.349
248.006,339.756
249.456,341.156
250.906,346.903
252.357,353.034
253.807,351.877
255.257,329.899
256.708,335.424
258.158,340.506
259.608,343.273
261.059,345.588
262.509,352.849
263.959,322.934
265.41,318.933
266.86,319.185
268.31,321.085
269.761,342.773
271.211,332.085
272.661,327.789
274.112,320.949
275.562,316.566
277.012,328.23
278.463,327.374
279.913,329.933
281.363,326.924
282.814,323.18
284.264,327.696
285.714,316.349
287.165,319.269
288.615,323.147
290.065,317.568
291.516,300.508
292.966,311.221
294.416,322.496
295.867,315.418
297.317,305.301
298.767,306.056
300.218,301.558
301.668,304.509
303.118,305.834
304.569,293.923
306.019,275.396
307.469,292.564
308.919,284.942
310.37,286.781
311.82,285.888
313.27,279.82
314.721,279.387
316.171,278.744
317.621,281.436
319.072,274.638
320.522,268.111
321.972,281.446
323.423,280.372
324.873,271.055
326.323,270.506
327.774,276.487
329.224,279.735
330.674,269.838
332.125,278.949
333.575,279.45
335.025,272.002
336.476,263.337
337.926,262.692
339.376,261.634
340.827,265.231
342.277,267.553
343.727,268.245
345.178,272.929
346.628,258.49
348.078,265.059
349.529,278.822
350.979,285.7
352.429,275.195
353.88,259.236
355.33,267.914
356.78,273.312
358.231,273.91
359.681,272.473
361.131,266.213
362.582,256.292
364.032,251.831
365.482,254.668
366.933,259.335
368.383,253.585
369.833,251.422
371.284,247.887
372.734,247.787
374.184,248.339
375.635,246.511
377.085,261.646
378.535,268.791
379.986,257.075
381.436,247.623
382.886,253.943
384.336,259.569
385.787,253.233
387.237,248.451
388.687,250.825
390.138,257.637
391.588,260.026
393.038,256.127
394.489,246.241
395.939,251.233
397.389,258.275
398.84,251.687
400.29,241.281
401.74,256.66
403.191,248.488
404.641,247.376
406.091,256.291
407.542,243.01
408.992,249.735
410.442,257.524
411.893,259.134
413.343,258.555
414.793,259.594
416.244,247.651
417.694,256.95
419.144,257.686
420.595,249.519
422.045,242.441
423.495,252.224
424.946,249.834
426.396,246.557
427.846,240.76
429.297,244.485
430.747,261.028
432.197,242.953
433.648,252.2
435.098,249.014
436.548,242.317
437.999,240.232
439.449,243.089
440.899,233.945
442.35,246.316
443.8,245.778
445.25,239.786
446.701,244.062
448.151,256.279
449.601,254.531
451.051,252.131
452.502,250.411
453.952,245.043
455.402,232.324
456.853,247.39
458.303,243.139
459.753,243.461
461.204,244.131
462.654,241.219
464.104,242.739
465.555,239.464
467.005,244.085
468.455,248.863
469.906,245.093
471.356,233.524
472.806,253.21
474.257,255.707
475.707,250.439
477.157,249.388
478.608,254.985
480.058,257.932
481.508,234.969
482.959,245.971
484.409,247.7
485.859,247.168
487.31,251.073
488.76,240.377
490.21,253.731
491.661,260.531
493.111,252.053
494.561,237.96
496.012,234.263
497.462,246.53
498.912,238.388
500.363,242.886
501.813,244.566
503.263,240.553
504.714,241.191
506.164,249.743
507.614,247.014
509.065,244.477
510.515,244.568
511.965,244.162
513.416,236.882
514.866,241.936
516.316,247.539
517.766,248.265
519.217,245.511
520.667,242.418
522.117,240.912
523.568,245.97
525.018,241.204
526.468,237.452
527.919,236.805
529.369,240.33
530.819,258.381
532.27,240.838
533.72,245.588
535.17,245.111
536.621,241.23
538.071,248.904
539.521,251.105
540.972,244.637
542.422,248.228
543.872,245.156
545.323,240.751
546.773,251.425
548.223,246.132
549.674,245.264
551.124,249.353
552.574,251.75
554.025,249.917
555.475,246.58
556.925,245.036
558.376,243.686
559.826,240.685
561.276,240.161
562.727,239.822
564.177,232.844
565.627,241.683
567.078,237.495
568.528,230.928
569.978,230.292
571.429,234.412
572.879,233.744
574.329,241.264
575.78,233.902
577.23,238.531
578.68,243.561
580.131,243.991
581.581,250.027
583.031,236.744
584.482,243.346
585.932,242.143
587.382,240.544
588.832,240.904
590.283,232.918
591.733,232.918
593.183,237.974
594.634,246.448
596.084,241.269
597.534,225.196
598.985,222.751
600.435,224.969
601.885,237.832
603.336,241.14
604.786,243.208
606.236,246.07
607.687,242.277
609.137,240.278
610.587,243.105
612.038,247.854
613.488,248.052
614.938,246
616.389,248.464
617.839,243.131
619.289,249.55
620.74,240.103
622.19,238.186
623.64,241.467
625.091,233.514
626.541,232.179
627.991,240.855
629.442,250.829
630.892,252.308
632.342,245.678
633.793,238.025
635.243,236.912
636.693,250.809
638.144,249.72
639.594,243.869
641.044,242.127
642.495,247.479
643.945,253.569
645.395,235.068
646.846,249.181
648.296,255.71
649.746,255.023
651.197,253.855
652.647,251.048
654.097,251.941
655.547,256.404
656.998,256.634
658.448,252.456
659.898,248.701
661.349,250.067
662.799,247.163
664.249,254.157
665.7,256.193
667.15,251.865
668.6,252.897
670.051,264.358
671.501,257.878
672.951,255.866
674.402,258.408
675.852,260.866
677.302,255.947
678.753,248.148
680.203,256.5
681.653,259.637
683.104,262.575
684.554,256.298
686.004,256.038
687.455,259.781
688.905,253.491
690.355,258.195
691.806,266.327
693.256,258.586
694.706,261.235
696.157,265.799
697.607,261.078
699.057,270.318
700.508,260.438
701.958,256.471
703.408,256.688
704.859,257.726
706.309,254.724
707.759,247.611
709.21,266.468
710.66,265.403
712.11,262.255
713.561,259.013
715.011,259.005
716.461,262.93
717.912,262.772
719.362,256.473
720.812,270.112
722.263,272.361
723.713,272.612
725.163,271.903
726.613,257.473
728.064,260.622
729.514,255.5
730.964,258.458
732.415,268.949
733.865,269.616
735.315,257.608
736.766,268.689
738.216,266.885
739.666,262.343
741.117,264.849
742.567,270.249
744.017,272.575
745.468,268.228
746.918,256.266
748.368,257.35
749.819,263.23
751.269,280.542
752.719,283.028
754.17,268.454
755.62,277.191
757.07,287.358
758.521,281.923
759.971,271.947
761.421,262.544
762.872,265.553
764.322,278.385
765.772,265.64
767.223,260.89
768.673,275.615
770.123,274.225
771.574,263.786
773.024,262.772
774.474,276.319
775.925,269.309
777.375,281.311
778.825,272.132
780.276,272.633
781.726,274.231
783.176,273.575
784.627,280.759
786.077,273.278
787.527,284.626
788.978,280.801
790.428,277.097
791.878,275.964
793.328,276.162
794.779,279.545
796.229,280.907
797.68,271.41
799.13,271.826
800.58,278.036
802.03,284.624
803.481,283.465
804.931,267.38
806.381,272.604
807.832,281.594
809.282,285.448
810.732,284.052
812.183,281.129
813.633,277.366
815.083,268.358
816.534,276.773
817.984,269.677
819.434,282.127
820.885,286.628
822.335,284.067
823.785,290.065
825.236,301.726
826.686,291.252
828.136,296.693
829.587,308.821
831.037,303.311
832.487,293.014
833.938,292.312
835.388,281.818
836.838,305.754
838.289,296.769
839.739,289.467
841.189,286.565
842.64,289.389
844.09,293.462
845.54,287.965
846.991,300.288
848.441,291.852
849.891,305.198
851.342,301.858
852.792,286.479
854.242,283.518
855.693,296.717
857.143,280.724
858.593,300.578
860.044,309.488
861.494,313.97
862.944,308.171
864.394,298.131
865.845,301.728
867.295,292.58
868.745,301.615
870.196,297.29
871.646,297.068
873.096,295.002
874.547,288.695
875.997,288.726
877.447,306.282
878.898,309.258
880.348,291.902
881.798,290.118
883.249,288.206
884.699,289.374
886.149,301.673
887.6,298.051
889.05,295.067
890.5,297.933
891.951,303.444
893.401,304.181
894.851,311.536
896.302,322.021
897.752,307.465
899.202,300.348
900.653,293.001
902.103,311.917
903.553,310.638
905.004,302.46
906.454,303.204
907.904,306.795
909.355,306.812
910.805,300.369
912.255,317.336
913.706,326.108
915.156,319.768
916.606,318.12
918.057,328.36
919.507,320.029
920.957,307.359
922.408,326.033
923.858,321.662
925.308,310.176
926.759,311.461
928.209,321.906
929.659,321.322
931.109,311.775
932.56,318.927
934.01,309.593
935.46,316.935
936.911,320.548
938.361,324.97
939.811,332.871
941.262,321.503
942.712,322.657
944.162,307.615
945.613,325.999
947.063,318.041
948.513,305.156
949.964,306.497
951.414,318.917
952.864,344.351
954.315,335.805
955.765,319.328
957.215,327.548
958.666,327.354
960.116,321.644
961.566,316.962
963.017,309.902
964.467,319.54
965.917,320.698
967.368,328.845
968.818,323.471
970.268,319.509
971.719,323.697
973.169,327.702
974.619,320.276
976.07,311.667
977.52,330.192
978.97,330.784
980.421,330.288
981.871,332.501
983.321,324.61
984.772,310.462
986.222,320.53
987.672,328.189
989.123,335.611
990.573,331.859
992.023,328.332
993.474,328.236
994.924,328.847
996.374,325.118
997.825,317.751
999.275,333.321
1000.73,342.026
1002.18,346.135
1003.63,347.283
1005.08,338.087
1006.53,334.892
1007.98,347.659
1009.43,351.944
1010.88,358.46
1012.33,358.311
1013.78,352.363
1015.23,347.021
1016.68,353.275
1018.13,360.347
1019.58,360.119
1021.03,365.675
1022.48,359.879
1023.93,363.375
1025.38,372.106
1026.83,372.715
1028.28,370.6
1029.73,365.65
1031.18,366.262
1032.63,385.02
1034.08,384.179
1035.53,370.879
1036.98,394.386
1038.43,393.387
1039.88,398.689
1041.33,406.165
1042.78,411.28
1044.23,418.818
1045.69,393.363
1047.14,413.693
1048.59,405.979
1050.04,405.069
1051.49,411.084
1052.94,415.72
1054.39,425.461
1055.84,437.142
1057.29,416.949
1058.74,421.394
1060.19,426.758
1061.64,429.174
1063.09,437.032
1064.54,449.085
1065.99,455.199
1067.44,457.262
1068.89,469.386
1070.34,474.02
1071.79,466.054
1073.24,465.943
1074.69,472.813
1076.14,464.356
1077.59,465.968
1079.04,487.485
1080.49,501.168
1081.94,487.041
1083.39,481.88
1084.84,494.637
1086.29,477.135
1087.74,469.944
1089.2,465.43
1090.65,467.351
1092.1,476.461
1093.55,477.698
1095,477.317
1096.45,478.257
1097.9,472.398
1099.35,470.205
1100.8,466.656
1102.25,473.849
1103.7,480.087
1105.15,473.606
1106.6,472.771
1108.05,466.329
1109.5,464.915
1110.95,477.071
1112.4,472.361
1113.85,459.497
1115.3,457.431
1116.75,464.282
1118.2,461.611
1119.65,445.406
1121.1,441.726
1122.55,448.324
1124,444.111
1125.45,447.367
1126.9,443.845
1128.35,444.626
1129.8,448.819
1131.25,442.57
1132.7,437.898
1134.16,441.642
1135.61,431.493
1137.06,431.7
1138.51,432.819
1139.96,429.009
1141.41,439.098
1142.86,444.058
1144.31,426.238
1145.76,441.498
1147.21,442.225
1148.66,444.828
1150.11,430.436
1151.56,427.615
1153.01,419.013
1154.46,422.39
1155.91,435.36
1157.36,436.899
1158.81,433.656
1160.26,423.306
1161.71,422.12
1163.16,424.603
1164.61,422.209
1166.06,424.918
1167.51,427.722
1168.96,425.119
1170.41,426.16
1171.86,437.675
1173.31,424.462
1174.76,444.849
1176.21,427.474
1177.66,433.584
1179.12,431.162
1180.57,424.213
1182.02,417.252
1183.47,419.585
1184.92,433.885
1186.37,428.402
1187.82,435.295
1189.27,425.084
1190.72,440.642
1192.17,449.485
1193.62,453.496
1195.07,451.796
1196.52,449.49
1197.97,448.102
1199.42,440.977
1200.87,452.512
1202.32,451.797
1203.77,455.602
1205.22,445.767
1206.67,446.469
1208.12,440.949
1209.57,433.884
1211.02,438.673
1212.47,450.883
1213.92,456.534
1215.37,454.682
1216.82,454.682
1218.27,452.936
1219.72,450.071
1221.17,449.598
1222.63,453.054
1224.08,450.394
1225.53,454.539
1226.98,478.774
1228.43,468.01
1229.88,447.457
1231.33,465.135
1232.78,457.018
1234.23,478.194
1235.68,475.606
1237.13,474.308
1238.58,468.785
1240.03,454.281
1241.48,463.409
1242.93,474.771
1244.38,478.187
1245.83,466.464
1247.28,471.129
1248.73,479.107
1250.18,472.469
1251.63,488.286
1253.08,510.482
1254.53,502.253
1255.98,481.232
1257.43,491.691
1258.88,512.819
1260.33,502.514
1261.78,501.47
1263.23,507.267
1264.68,510.237
1266.13,512.008
1267.59,509.12
1269.04,510.041
1270.49,523.986
1271.94,535.889
1273.39,556.808
1274.84,541.907
1276.29,551.601
1277.74,574.254
1279.19,568.587
1280.64,563.85
1282.09,568.991
1283.54,570.682
1284.99,577.678
1286.44,607.849
1287.89,615.811
1289.34,622.086
1290.79,630.744
1292.24,643.323
1293.69,650.916
1295.14,671.122
1296.59,700.228
1298.04,713.061
1299.49,717.414
1300.94,735.997
1302.39,754.816
1303.84,794.16
1305.29,785.007
1306.74,787.868
1308.19,841.496
1309.64,882.636
1311.09,898.281
1312.55,923.752
1314,950.518
1315.45,972.853
1316.9,1009.96
1318.35,1044.79
1319.8,1108.6
1321.25,1136.59
1322.7,1169.53
1324.15,1223.79
1325.6,1250.82
1327.05,1280.34
1328.5,1310.26
1329.95,1325.76
1331.4,1326.66
1332.85,1336.96
1334.3,1375.41
1335.75,1365.36
1337.2,1347.95
1338.65,1327.92
1340.1,1326.6
1341.55,1330.08
1343,1280.91
1344.45,1250.07
1345.9,1238.15
1347.35,1199.86
1348.8,1157.04
1350.25,1152.91
1351.7,1127.16
1353.15,1072.25
1354.6,1030.83
1356.06,995.784
1357.51,978.249
1358.96,938.607
1360.41,901.163
1361.86,878.104
1363.31,839.799
1364.76,797.26
1366.21,797.923
1367.66,790.874
1369.11,757.954
1370.56,765.973
1372.01,736.277
1373.46,733.123
1374.91,720.525
1376.36,707.93
1377.81,699.61
1379.26,693.539
1380.71,679.901
1382.16,661.807
1383.61,659.128
1385.06,660.459
1386.51,670.16
1387.96,649.247
1389.41,670.375
1390.86,661.533
1392.31,645.028
1393.76,634.048
1395.21,634.804
1396.66,631.107
1398.11,629.12
1399.56,638.511
1401.02,639.021
1402.47,651.074
1403.92,657.305
1405.37,627.543
1406.82,637.81
1408.27,628.792
1409.72,632.402
1411.17,627.238
1412.62,627.841
1414.07,637.695
1415.52,638.998
1416.97,643.18
1418.42,663.088
1419.87,647.324
1421.32,663.634
1422.77,669.003
1424.22,652.865
1425.67,666.458
1427.12,662.997
1428.57,663.944
1430.02,658.078
1431.47,658.915
1432.92,666.69
1434.37,681.602
1435.82,688.717
1437.27,662.422
1438.72,681.708
1440.17,689.145
1441.62,675.182
1443.07,727.247
1444.53,716.832
1445.98,716.534
1447.43,721.168
1448.88,719.462
1450.33,718.998
1451.78,735.967
1453.23,751.47
1454.68,752.62
1456.13,769.75
1457.58,763.329
1459.03,783.737
1460.48,779.563
1461.93,790.357
1463.38,787.902
1464.83,793.239
1466.28,825.663
1467.73,848.027
1469.18,847.794
1470.63,843.335
1472.08,855.338
1473.53,875.186
1474.98,879.113
1476.43,883.574
1477.88,896.93
1479.33,937.306
1480.78,925.727
1482.23,928.736
1483.68,982.489
1485.13,988.049
1486.58,1006.54
1488.03,1029.86
1489.49,1026.83
1490.94,1051.49
1492.39,1093.77
1493.84,1107.82
1495.29,1154.88
1496.74,1139.48
1498.19,1146.44
1499.64,1221.07
1501.09,1241.78
1502.54,1272.85
1503.99,1307.24
1505.44,1339.54
1506.89,1378.95
1508.34,1421.53
1509.79,1484.37
1511.24,1536.52
1512.69,1588.45
1514.14,1683.79
1515.59,1767.43
1517.04,1822.85
1518.49,1896.76
1519.94,1967.03
1521.39,2117.53
1522.84,2223.6
1524.29,2346.43
1525.74,2484.46
1527.19,2638.94
1528.64,2813.42
1530.09,3004.65
1531.54,3225.48
1532.99,3480.63
1534.45,3732.38
1535.9,4010.5
1537.35,4417.76
1538.8,4820.28
1540.25,5269.67
1541.7,5686.37
1543.15,6148.18
1544.6,6700.49
1546.05,7284.54
1547.5,7950.13
1548.95,8572.91
1550.4,9164.45
1551.85,9812.94
1553.3,10470.6
1554.75,11126
1556.2,11806.7
1557.65,12431.6
1559.1,12451.7
1560.55,12466.6
1562,12495.3
1563.45,12503.8
1564.9,12510.1
1566.35,12502.7
1567.8,12499.5
1569.25,12509.1
1570.7,12506.9
1572.15,12104.4
1573.6,11478.1
1575.05,10830.7
1576.5,10178
1577.96,9465.15
1579.41,8735.25
1580.86,8070.16
1582.31,7454.48
1583.76,6812.77
1585.21,6258
1586.66,5722.02
1588.11,5263.87
1589.56,4864.86
1591.01,4473.56
1592.46,4148.07
1593.91,3881.79
1595.36,3601.06
1596.81,3365.66
1598.26,3125.04
1599.71,2944.99
1601.16,2823.46
1602.61,2681.75
1604.06,2552.13
1605.51,2442.25
1606.96,2326.21
1608.41,2207.24
1609.86,2114.33
1611.31,2003.33
1612.76,1962.49
1614.21,1832.75
1615.66,1784.08
1617.11,1708.68
1618.56,1663.32
1620.01,1591.14
1621.46,1532.57
1622.92,1473.72
1624.37,1427.33
1625.82,1393.99
1627.27,1353.51
1628.72,1322.3
1630.17,1280.83
1631.62,1256.48
1633.07,1225.68
1634.52,1202.99
1635.97,1163.83
1637.42,1161.63
1638.87,1128.12
1640.32,1098.66
1641.77,1093.54
1643.22,1079.54
1644.67,1063.02
1646.12,1045.79
1647.57,1041.81
1649.02,1026.36
1650.47,1003.48
1651.92,998.884
1653.37,996.677
1654.82,973.598
1656.27,959.601
1657.72,955.708
1659.17,936.241
1660.62,919.03
1662.07,922.925
1663.52,942.432
1664.97,932.901
1666.42,920.392
1667.88,912.255
1669.33,904.729
1670.78,892.479
1672.23,873.498
1673.68,878.296
1675.13,875.922
1676.58,874.157
1678.03,861.98
1679.48,851.256
1680.93,858.408
1682.38,856.663
1683.83,849.737
1685.28,840.78
1686.73,846.757
1688.18,844.867
1689.63,842.107
1691.08,834.489
1692.53,820.172
1693.98,818.871
1695.43,833.779
1696.88,842.977
1698.33,836.503
1699.78,838.637
1701.23,826.09
1702.68,829.02
1704.13,818.703
1705.58,827.299
1707.03,827.07
1708.48,808.083
1709.93,826.873
1711.39,826.538
1712.84,825.773
1714.29,822.185
1715.74,834.364
1717.19,843.893
1718.64,826.615
1720.09,828.027
1721.54,831.073
1722.99,810.251
1724.44,814.138
1725.89,837.047
1727.34,844.697
1728.79,844.801
1730.24,824.29
1731.69,810.399
1733.14,844.876
1734.59,817.721
1736.04,811.118
1737.49,831.6
1738.94,814.508
1740.39,811.982
1741.84,827.685
1743.29,813.472
1744.74,808.061
1746.19,794.224
1747.64,786.732
1749.09,798.456
1750.54,786.815
1751.99,785.071
1753.44,797.236
1754.89,787.136
1756.35,785.436
1757.8,803.998
1759.25,799.392
1760.7,789.551
1762.15,793.057
1763.6,774.426
1765.05,775.718
1766.5,788.103
1767.95,782.933
1769.4,760.225
1770.85,757.621
1772.3,751.773
1773.75,764.507
1775.2,759.296
1776.65,758.083
1778.1,759.494
1779.55,763.898
1781,759.073
1782.45,761.871
1783.9,758.831
1785.35,768.782
1786.8,771.512
1788.25,768.252
1789.7,760.838
1791.15,758.35
1792.6,769.077
1794.05,766.731
1795.5,762.752
1796.95,759.733
1798.4,763.788
1799.85,771.981
1801.31,749.795
1802.76,749.764
1804.21,734.189
1805.66,756.209
1807.11,718.977
1808.56,734.628
1810.01,742.145
1811.46,743.091
1812.91,724.553
1814.36,748.032
1815.81,763.525
1817.26,769.991
1818.71,769.235
1820.16,759.716
1821.61,752.453
1823.06,743.454
1824.51,750.211
1825.96,752.286
1827.41,744.624
1828.86,757.236
1830.31,763.413
1831.76,757.195
1833.21,764.247
1834.66,754.535
1836.11,754.28
1837.56,744.964
1839.01,768.309
1840.46,785.671
1841.91,752.688
1843.36,762.348
1844.82,775.133
1846.27,763.604
1847.72,774.065
1849.17,780.993
1850.62,773.988
1852.07,776.213
1853.52,793.508
1854.97,794.095
1856.42,779.562
1857.87,773.238
1859.32,796.089
1860.77,806.143
1862.22,796.456
1863.67,785.82
1865.12,790.312
1866.57,793.683
1868.02,784.859
1869.47,771.369
1870.92,764.652
1872.37,775.605
1873.82,785.858
1875.27,777.782
1876.72,767.633
1878.17,775.779
1879.62,768.248
1881.07,761.883
1882.52,752.806
1883.97,754.814
1885.42,755.58
1886.87,762.351
1888.32,759.717
1889.78,749.831
1891.23,756.535
1892.68,753.137
1894.13,758.828
1895.58,753.164
1897.03,760.907
1898.48,759.811
1899.93,741.541
1901.38,743.898
1902.83,738.213
1904.28,733.197
1905.73,737.772
1907.18,749.239
1908.63,749.164
1910.08,741.054
1911.53,729.005
1912.98,718.346
1914.43,726.141
1915.88,732.068
1917.33,719.219
1918.78,719.523
1920.23,733.255
1921.68,734.522
1923.13,733.268
1924.58,730.941
1926.03,724.035
1927.48,726.322
1928.93,734.79
1930.38,730.973
1931.83,727.822
1933.29,707.475
1934.74,729.742
1936.19,735.035
1937.64,706.554
1939.09,718.732
1940.54,711.352
1941.99,727.83
1943.44,729.61
1944.89,730.397
1946.34,731.955
1947.79,715.306
1949.24,730.743
1950.69,718.743
1952.14,737.663
1953.59,741.802
1955.04,728
1956.49,737.542
1957.94,733.261
1959.39,723.524
1960.84,732.177
1962.29,729.463
1963.74,736.155
1965.19,741.1
1966.64,740.341
1968.09,753.663
1969.54,761
1970.99,762.686
1972.44,766.481
1973.89,751.659
1975.34,751.865
1976.79,759.755
1978.25,758.375
1979.7,748.902
1981.15,750.152
1982.6,755.982
1984.05,748.068
1985.5,754.688
1986.95,749.32
1988.4,739.648
1989.85,759.535
1991.3,753.388
1992.75,753.87
1994.2,756.845
1995.65,761.732
1997.1,764.164
1998.55,758.081
2000,751.19
2001.45,764.502
2002.9,755.618
2004.35,749.576
2005.8,754.036
2007.25,760.324
2008.7,764.549
2010.15,765.616
2011.6,769.771
2013.05,745.332
2014.5,740.055
2015.95,750.516
2017.4,741.054
2018.85,723.61
2020.3,750.009
2021.75,752.846
2023.21,728.064
2024.66,747.226
2026.11,738.383
2027.56,748.617
2029.01,752.343
2030.46,733.192
2031.91,735.035
2033.36,723.41
2034.81,731.808
2036.26,745.167
2037.71,736.932
2039.16,738.095
2040.61,746.785
2042.06,725.908
2043.51,711.933
2044.96,722.156
2046.41,701.302
2047.86,712.77
2049.31,722.341
2050.76,712.999
2052.21,711.521
2053.66,728.774
2055.11,732.887
2056.56,717.023
2058.01,710.703
2059.46,725.579
2060.91,727.288
2062.36,717.736
2063.81,710.077
2065.26,701.849
2066.72,704.592
2068.17,715.327
2069.62,695.327
2071.07,698.477
2072.52,719.074
2073.97,717.464
2075.42,711.259
2076.87,712.822
2078.32,709.672
2079.77,696.635
2081.22,706.616
2082.67,719.042
2084.12,715.748
2085.57,699.534
2087.02,700.611
2088.47,687.041
2089.92,686.144
2091.37,692.665
2092.82,704.649
2094.27,722.389
2095.72,712.396
2097.17,706.321
2098.62,708.812
2100.07,698.947
2101.52,690.429
2102.97,697.248
2104.42,690.362
2105.87,702.096
2107.32,706.909
2108.77,710.035
2110.22,711.469
2111.68,716.933
2113.13,708.098
2114.58,703.721
2116.03,715.719
2117.48,716.167
2118.93,704.781
2120.38,717.905
2121.83,717.048
2123.28,696.204
2124.73,708.963
2126.18,717.794
2127.63,712.69
2129.08,715.309
2130.53,720.603
2131.98,725.508
2133.43,725.018
2134.88,724.958
2136.33,720.505
2137.78,726.56
2139.23,726.31
2140.68,725.249
2142.13,718.16
2143.58,716.997
2145.03,740.802
2146.48,742.149
2147.93,733.354
2149.38,723.569
2150.83,725.111
2152.28,736.145
2153.73,736.678
2155.18,727.677
2156.64,731.969
2158.09,732.859
2159.54,730.315
2160.99,738.993
2162.44,740.215
2163.89,740.972
2165.34,734.314
2166.79,739.032
2168.24,762.16
2169.69,755.94
2171.14,745.958
2172.59,746.907
2174.04,748.429
2175.49,754.225
2176.94,756.197
2178.39,750.36
2179.84,751.482
2181.29,752.37
2182.74,757.033
2184.19,755.456
2185.64,749.838
2187.09,755.009
2188.54,761.538
2189.99,761.76
2191.44,757.096
2192.89,766.064
2194.34,765.728
2195.79,765.575
2197.24,772.458
2198.69,770.011
2200.15,758.796
2201.6,760.249
2203.05,760.698
2204.5,777.32
2205.95,773.186
2207.4,776.675
2208.85,769.828
2210.3,775.636
2211.75,783.536
2213.2,786.383
2214.65,779.474
2216.1,779.554
2217.55,785.553
2219,790.632
2220.45,769.623
2221.9,788.159
2223.35,798.19
2224.8,796.682
2226.25,783.529
2227.7,770.061
2229.15,793.77
2230.6,806.074
2232.05,805.547
2233.5,786.44
2234.95,792.262
2236.4,792.4
2237.85,795.9
2239.3,777.101
2240.75,782.406
2242.2,800.465
2243.65,811.709
2245.11,791.106
2246.56,809.925
2248.01,802.72
2249.46,800.348
2250.91,816.453
2252.36,808.196
2253.81,802.567
2255.26,811.622
2256.71,799.284
2258.16,807.651
2259.61,818.325
2261.06,812.903
2262.51,793.101
2263.96,815.993
2265.41,823.835
2266.86,812.206
2268.31,796.946
2269.76,809.579
2271.21,826.89
2272.66,817.876
2274.11,816.613
2275.56,804.634
2277.01,806.621
2278.46,830.392
2279.91,830.751
2281.36,846.697
2282.81,851.132
2284.26,823.352
2285.71,822.954
2287.16,835.68
2288.61,848.906
2290.07,836.704
2291.52,822.62
2292.97,841.828
2294.42,846.734
2295.87,850.442
2297.32,852.487
2298.77,831.454
2300.22,852.565
2301.67,882.281
2303.12,881.192
2304.57,868.557
2306.02,853.069
2307.47,858.567
2308.92,855.936
2310.37,867.788
2311.82,864.279
2313.27,876.479
2314.72,858.875
2316.17,885.377
2317.62,867.58
2319.07,877.19
2320.52,892.485
2321.97,880.174
2323.42,883.041
2324.87,909.64
2326.32,890.721
2327.77,894.035
2329.22,887.477
2330.67,912.579
2332.12,916.278
2333.57,919.348
2335.03,921.687
2336.48,898.641
2337.93,897.317
2339.38,915.984
2340.83,934.711
2342.28,927.721
2343.73,936.707
2345.18,927.705
2346.63,940.603
2348.08,954.911
2349.53,956.191
2350.98,953.801
2352.43,968.702
2353.88,963.372
2355.33,967.129
2356.78,969.834
2358.23,988.541
2359.68,978.491
2361.13,991.252
2362.58,1018.78
2364.03,1025.23
2365.48,1005.08
2366.93,1010.37
2368.38,1034.82
2369.83,1036.12
2371.28,1030.48
2372.73,1037.41
2374.18,1069.51
2375.63,1081.17
2377.08,1087.74
2378.54,1093.27
2379.99,1093.53
2381.44,1103.02
2382.89,1135.51
2384.34,1145.81
2385.79,1137.31
2387.24,1148.66
2388.69,1173.65
2390.14,1192.33
2391.59,1214.05
2393.04,1213.09
2394.49,1218.98
2395.94,1240.15
2397.39,1230.46
2398.84,1234.86
2400.29,1291.86
2401.74,1315.66
2403.19,1321.37
2404.64,1327.44
2406.09,1330.87
2407.54,1368.32
2408.99,1354.81
2410.44,1366.07
2411.89,1361.46
2413.34,1396.47
2414.79,1413.02
2416.24,1388.2
2417.69,1421.88
2419.14,1414.43
2420.59,1427.44
2422.04,1436.21
2423.5,1429.23
2424.95,1443.48
2426.4,1454.74
2427.85,1453.02
2429.3,1433.56
2430.75,1430.31
2432.2,1415.94
2433.65,1424.26
2435.1,1429.77
2436.55,1441.82
2438,1405.54
2439.45,1414.43
2440.9,1418.72
2442.35,1413.88
2443.8,1389.13
2445.25,1382.37
2446.7,1403.65
2448.15,1385.58
2449.6,1377.91
2451.05,1385.91
2452.5,1365.54
2453.95,1374.82
2455.4,1364.47
2456.85,1352.92
2458.3,1331.02
2459.75,1299.33
2461.2,1309.36
2462.65,1310.01
2464.1,1316.54
2465.55,1327
2467.01,1338.33
2468.46,1304.19
2469.91,1335.98
2471.36,1332.24
2472.81,1312.27
2474.26,1301.9
2475.71,1295.08
2477.16,1326.65
2478.61,1316.31
2480.06,1307.59
2481.51,1314.33
2482.96,1291.6
2484.41,1308.87
2485.86,1301.49
2487.31,1307.59
2488.76,1306.73
2490.21,1310.8
2491.66,1300.49
2493.11,1309.7
2494.56,1338.09
2496.01,1322.06
2497.46,1327.19
2498.91,1324.81
2500.36,1349.79
2501.81,1341.52
2503.26,1336.48
2504.71,1359.69
2506.16,1370.74
2507.61,1354.91
2509.06,1368.45
2510.51,1369.11
2511.97,1361.5
2513.42,1344.22
2514.87,1386.53
2516.32,1385.52
2517.77,1376.65
2519.22,1395.97
2520.67,1400.26
2522.12,1397.9
2523.57,1422.03
2525.02,1462.37
2526.47,1473.77
2527.92,1476.89
2529.37,1479.47
2530.82,1510.94
2532.27,1522.75
2533.72,1520.23
2535.17,1533.34
2536.62,1538.07
2538.07,1571.25
2539.52,1557.33
2540.97,1590.02
2542.42,1608.29
2543.87,1610.96
2545.32,1646.5
2546.77,1639.66
2548.22,1686.7
2549.67,1727.47
2551.12,1744.76
2552.57,1756.59
2554.02,1758.53
2555.48,1767.64
2556.93,1803.01
2558.38,1845.55
2559.83,1867.79
2561.28,1890.24
2562.73,1917.76
2564.18,1986.75
2565.63,1994.95
2567.08,2047.08
2568.53,2066.58
2569.98,2160.18
2571.43,2197.78
2572.88,2228.21
2574.33,2265.11
2575.78,2318.79
2577.23,2361.41
2578.68,2410.41
2580.13,2470.59
2581.58,2501.7
2583.03,2534.38
2584.48,2621.32
2585.93,2688.09
2587.38,2745.39
2588.83,2862.06
2590.28,2901.25
2591.73,2958.44
2593.18,3073.61
2594.63,3184.14
2596.08,3257.58
2597.53,3360.94
2598.98,3499.04
2600.44,3596.92
2601.89,3696.26
2603.34,3825.66
2604.79,3960.19
2606.24,4053.05
2607.69,4208.89
2609.14,4345.63
2610.59,4511.7
2612.04,4635.05
2613.49,4845.05
2614.94,4950.8
2616.39,5090.11
2617.84,5339.33
2619.29,5487.02
2620.74,5678.82
2622.19,5916.17
2623.64,6111.43
2625.09,6267.42
2626.54,6458.38
2627.99,6652.4
2629.44,6881.1
2630.89,7030.45
2632.34,7234.32
2633.79,7464.73
2635.24,7672.37
2636.69,7894.18
2638.14,8049.11
2639.59,8199.83
2641.04,8407.77
2642.49,8598.6
2643.94,8727.12
2645.4,8859.85
2646.85,8954.92
2648.3,9073.79
2649.75,9144.75
2651.2,9200.98
2652.65,9234.5
2654.1,9173.31
2655.55,9192.76
2657,9236.11
2658.45,9162.15
2659.9,9140.85
2661.35,9104.94
2662.8,9018.01
2664.25,8856.7
2665.7,8719.7
2667.15,8615.04
2668.6,8464.37
2670.05,8218.42
2671.5,7995.64
2672.95,7909.58
2674.4,7627.48
2675.85,7500.77
2677.3,7257.56
2678.75,7037.44
2680.2,6834.48
2681.65,6572.57
2683.1,6395.75
2684.55,6208.9
2686,6034.44
2687.45,5815.21
2688.91,5559.36
2690.36,5369.03
2691.81,5138.75
2693.26,4945.14
2694.71,4781.4
2696.16,4616.29
2697.61,4373.75
2699.06,4290.3
2700.51,4171.95
2701.96,4021.17
2703.41,3862.91
2704.86,3710.37
2706.31,3572.64
2707.76,3452.38
2709.21,3320.76
2710.66,3181
2712.11,3076.3
2713.56,2990.11
2715.01,2897.33
2716.46,2884.19
2717.91,2744.73
2719.36,2680.9
2720.81,2589.16
2722.26,2479.91
2723.71,2449.93
2725.16,2402.44
2726.61,2317.44
2728.06,2267.36
2729.51,2247.81
2730.96,2157.57
2732.41,2138.45
2733.87,2084.91
2735.32,2008.04
2736.77,1985.29
2738.22,1940.59
2739.67,1923.64
2741.12,1879.63
2742.57,1851.01
2744.02,1840.16
2745.47,1754.02
2746.92,1759.41
2748.37,1722.46
2749.82,1714.18
2751.27,1676.41
2752.72,1641.33
2754.17,1651.45
2755.62,1599.35
2757.07,1564.21
2758.52,1566.69
2759.97,1546.11
2761.42,1530.07
2762.87,1532.45
2764.32,1486.63
2765.77,1484.57
2767.22,1485.44
2768.67,1454.88
2770.12,1437.43
2771.57,1439.87
2773.02,1414.83
2774.47,1413.33
2775.92,1397.03
2777.38,1390.52
2778.83,1376.95
2780.28,1362.77
2781.73,1345.08
2783.18,1314.95
2784.63,1349.93
2786.08,1305.85
2787.53,1312.49
2788.98,1305.44
2790.43,1287.69
2791.88,1289.15
2793.33,1281.1
2794.78,1253.55
2796.23,1270.53
2797.68,1246.87
2799.13,1269.01
2800.58,1242.63
2802.03,1232.74
2803.48,1216.06
2804.93,1247
2806.38,1235.39
2807.83,1211.37
2809.28,1204.97
2810.73,1206.48
2812.18,1189.14
2813.63,1206.06
2815.08,1187.14
2816.53,1188.17
2817.98,1184.69
2819.43,1190.32
2820.88,1185.36
2822.33,1168.23
2823.79,1153.7
2825.24,1164.36
2826.69,1169.45
2828.14,1165.08
2829.59,1150.43
2831.04,1156.31
2832.49,1131.73
2833.94,1134.94
2835.39,1150.75
2836.84,1138.53
2838.29,1111.21
2839.74,1104.27
2841.19,1111.65
2842.64,1130.86
2844.09,1126.11
2845.54,1116.22
2846.99,1089.02
2848.44,1132.72
2849.89,1118.42
2851.34,1115.67
2852.79,1120.2
2854.24,1117.05
2855.69,1110.98
2857.14,1109.07
2858.59,1111.07
2860.04,1086.92
2861.49,1132.01
2862.94,1086.32
2864.39,1096.84
2865.84,1115.32
2867.3,1119.25
2868.75,1100.17
2870.2,1098.12
2871.65,1094.4
2873.1,1088.08
2874.55,1078.85
2876,1075.34
2877.45,1099.87
2878.9,1105.41
2880.35,1070.38
2881.8,1074.35
2883.25,1093
2884.7,1097.01
2886.15,1093.47
2887.6,1088.02
2889.05,1094.29
2890.5,1101.97
2891.95,1086.86
2893.4,1089.41
2894.85,1081.6
2896.3,1086.06
2897.75,1085.46
2899.2,1087.32
2900.65,1089.41
2902.1,1087.42
2903.55,1070.36
2905,1077.21
2906.45,1084.95
2907.9,1076.33
2909.35,1070.93
2910.8,1065.38
2912.26,1052.6
2913.71,1063.63
2915.16,1052.02
2916.61,1058.39
2918.06,1036.29
2919.51,1063.02
2920.96,1050.34
2922.41,1064.74
2923.86,1050.57
2925.31,1042.3
2926.76,1052.69
2928.21,1046.7
2929.66,1039.2
2931.11,1030.04
2932.56,1030.11
2934.01,1028.27
2935.46,1007.92
2936.91,1006.25
2938.36,1006.81
2939.81,1005.23
2941.26,999.22
2942.71,994.424
2944.16,1008.66
2945.61,1005.49
2947.06,987.247
2948.51,986.957
2949.96,976.86
2951.41,985.68
2952.86,991.42
2954.31,986.534
2955.77,965.345
2957.22,964.046
2958.67,952.509
2960.12,971.594
2961.57,945.512
2963.02,961.56
2964.47,956.585
2965.92,960.327
2967.37,953.401
2968.82,953.188
2970.27,949.229
2971.72,949.101
2973.17,937.906
2974.62,936.222
2976.07,928.454
2977.52,924.154
2978.97,926.246
2980.42,933.269
2981.87,924.864
2983.32,925.996
2984.77,921.237
2986.22,925.328
2987.67,923.586
2989.12,937.485
2990.57,925.254
2992.02,928.206
2993.47,928.751
2994.92,929.823
2996.37,918.752
2997.82,929.954
2999.27,937.657
3000.73,915.249
3002.18,923.885
3003.63,900.715
3005.08,924.985
3006.53,927.491
3007.98,923.588
3009.43,925.026
3010.88,916.127
3012.33,906.599
3013.78,895.092
3015.23,905.624
3016.68,914.565
3018.13,924.11
3019.58,894.118
3021.03,893.57
3022.48,899.12
3023.93,909.254
3025.38,915.43
3026.83,920.75
3028.28,918.883
3029.73,925.114
3031.18,914.568
3032.63,903.531
3034.08,925.863
3035.53,903.536
3036.98,911.319
3038.43,888.933
3039.88,903.139
3041.33,940.946
3042.78,936.745
3044.23,916.259
3045.69,916.182
3047.14,909.685
3048.59,905.097
3050.04,913.405
3051.49,890.32
3052.94,912.289
3054.39,915.869
3055.84,899.37
3057.29,918.368
3058.74,923.375
3060.19,948.197
3061.64,929.148
3063.09,942.61
3064.54,933.991
3065.99,927.485
3067.44,934.92
3068.89,945.271
3070.34,944.025
3071.79,928.606
3073.24,947.406
3074.69,956.237
3076.14,963.845
3077.59,963.37
3079.04,976.132
3080.49,986.229
3081.94,985.149
3083.39,951.803
3084.84,979.329
3086.29,1003.38
3087.74,979.782
3089.2,997.754
3090.65,1010.76
3092.1,1033.37
3093.55,1020.9
3095,1025.02
3096.45,1025.31
3097.9,1033.17
3099.35,1028.34
3100.8,1034.26
3102.25,1060.21
3103.7,1047.19
3105.15,1086.33
3106.6,1093.9
3108.05,1093.34
3109.5,1089.74
3110.95,1106.77
3112.4,1119.01
3113.85,1129.66
3115.3,1094.3
3116.75,1126.14
3118.2,1166.63
3119.65,1157.87
3121.1,1176.44
3122.55,1195.72
3124,1189.22
3125.45,1188.95
3126.9,1210.46
3128.35,1212.84
3129.8,1198.53
3131.25,1222.62
3132.7,1224.43
3134.16,1216.07
3135.61,1225.64
3137.06,1211.03
3138.51,1219.49
3139.96,1257.03
3141.41,1261.48
3142.86,1262.7
3144.31,1265.15
3145.76,1250.26
3147.21,1262.49
3148.66,1299.9
3150.11,1288.58
3151.56,1274.14
3153.01,1276.12
3154.46,1285.66
3155.91,1268.57
3157.36,1299.16
3158.81,1291.33
3160.26,1306.48
3161.71,1300.59
3163.16,1292.15
3164.61,1306.74
3166.06,1296.41
3167.51,1308.58
3168.96,1314.11
3170.41,1344.99
3171.86,1365.18
3173.31,1346.82
3174.76,1352.71
3176.21,1358.07
3177.67,1357.93
3179.12,1386.27
3180.57,1375.55
3182.02,1378.37
3183.47,1400.09
3184.92,1405.1
3186.37,1416.1
3187.82,1413.79
3189.27,1398.98
3190.72,1408.55
3192.17,1408.75
3193.62,1407.33
3195.07,1399.82
3196.52,1394.33
3197.97,1396.72
3199.42,1392.93
3200.87,1366.43
3202.32,1389.66
3203.77,1355.27
3205.22,1333.21
3206.67,1316.21
3208.12,1371.1
3209.57,1327.59
3211.02,1298.24
3212.47,1284.61
3213.92,1291.2
3215.37,1279.68
3216.82,1260.03
3218.27,1265.96
3219.72,1241.92
3221.17,1227.56
3222.63,1215.12
3224.08,1211.88
3225.53,1191.09
3226.98,1158.03
3228.43,1154.7
3229.88,1138.35
3231.33,1120.57
3232.78,1092.5
3234.23,1086.07
3235.68,1064.17
3237.13,1024.51
3238.58,1057.96
3240.03,1058.62
3241.48,1035.28
3242.93,1016.62
3244.38,1006.92
3245.83,982.481
3247.28,973.514
3248.73,971.177
3250.18,983.963
3251.63,967.963
3253.08,949.956
3254.53,947.25
3255.98,924.571
3257.43,917.411
3258.88,929.13
3260.33,912.524
3261.78,932.396
3263.23,923.468
3264.68,898.17
3266.13,918.388
3267.59,937.586
3269.04,911.505
3270.49,900.522
3271.94,917.517
3273.39,893.26
3274.84,881.988
3276.29,917.292
3277.74,878.957
3279.19,884.1
3280.64,903.124
3282.09,900.913
3283.54,894.702
3284.99,877.178
3286.44,883.853
3287.89,889.685
3289.34,866.65
3290.79,881.942
3292.24,886.721
3293.69,884.733
3295.14,883.114
3296.59,881.364
3298.04,871.247
3299.49,883.422
3300.94,880.681
3302.39,900.676
3303.84,876.702
3305.29,873.476
3306.74,884.199
3308.19,878.121
3309.64,879.94
3311.09,889.177
3312.55,884.779
3314,901.806
3315.45,888.083
3316.9,880.774
3318.35,874.749
3319.8,869.043
3321.25,883.656
3322.7,871.743
3324.15,871.885
3325.6,891.821
3327.05,891.911
3328.5,870.084
3329.95,878.118
3331.4,897.632
3332.85,877.544
3334.3,876.771
3335.75,870.096
3337.2,875.217
3338.65,864.453
3340.1,883.638
3341.55,868.953
3343,870.26
3344.45,867.505
3345.9,872.854
3347.35,831.688
3348.8,875.17
3350.25,880.249
3351.7,889.278
3353.15,888.923
3354.6,879.449
3356.06,873.594
3357.51,889.723
3358.96,852.513
3360.41,860.916
3361.86,866.065
3363.31,878.651
3364.76,855.083
3366.21,869.414
3367.66,891.498
3369.11,887.601
3370.56,882.448
3372.01,884.85
3373.46,860.504
3374.91,891.384
3376.36,894.472
3377.81,882.734
3379.26,866.307
3380.71,895.057
3382.16,902.301
3383.61,888.75
3385.06,881.695
3386.51,872.424
3387.96,884.149
3389.41,905.075
3390.86,902.935
3392.31,873.195
3393.76,882.398
3395.21,890.727
3396.66,862.224
3398.11,890.356
3399.56,886.809
3401.02,887.747
3402.47,886.847
3403.92,876.143
3405.37,890.174
3406.82,868.968
3408.27,900.379
3409.72,884.287
3411.17,887.91
3412.62,871.392
3414.07,896.807
3415.52,870.574
3416.97,893.459
3418.42,892.197
3419.87,884.587
3421.32,880.179
3422.77,879.415
3424.22,889.848
3425.67,907.732
3427.12,917.589
3428.57,890.763
3430.02,895.053
3431.47,889.398
3432.92,872.97
3434.37,886.261
3435.82,898.558
3437.27,900.106
3438.72,904.984
3440.17,885.333
3441.62,890.321
3443.07,894.364
3444.52,904.084
3445.98,892.776
3447.43,867.319
3448.88,876.549
3450.33,882.613
3451.78,890.188
3453.23,906.56
3454.68,887.916
3456.13,893.074
3457.58,915.562
3459.03,892.901
3460.48,887.698
3461.93,889.718
3463.38,882.061
3464.83,899.996
3466.28,899.455
3467.73,878.32
3469.18,906.861
3470.63,898.266
3472.08,894.356
3473.53,889.333
3474.98,897.091
3476.43,870.993
3477.88,912.697
3479.33,901.756
3480.78,899.005
3482.23,908.713
3483.68,903.545
3485.13,894.68
3486.58,901.129
3488.03,889.016
3489.49,888.824
3490.94,890.386
3492.39,891.804
3493.84,905.212
3495.29,889.633
3496.74,901.205
3498.19,888.616
3499.64,920.261
3501.09,889.203
3502.54,918.949
3503.99,907.655
3505.44,892.239
3506.89,913.65
3508.34,910.922
3509.79,925.621
3511.24,920.67
3512.69,919.335
3514.14,907.643
3515.59,916.534
3517.04,945.253
3518.49,922.733
3519.94,907.535
3521.39,889.717
3522.84,930.605
3524.29,910.584
3525.74,899.955
3527.19,922.785
3528.64,912.928
3530.09,918.954
3531.54,898.325
3532.99,900.914
3534.45,911.129
3535.9,932.742
3537.35,909.217
3538.8,909.566
3540.25,893.701
3541.7,897.032
3543.15,902.078
3544.6,909.069
3546.05,934.903
3547.5,924.825
3548.95,932.385
3550.4,927.382
3551.85,927.386
3553.3,897.991
3554.75,904.91
3556.2,906.093
3557.65,923.236
3559.1,914.525
3560.55,909.716
3562,898.351
3563.45,929.909
3564.9,927.413
3566.35,910.21
3567.8,931.734
3569.25,915.389
3570.7,925.851
3572.15,928.139
3573.6,931.915
3575.05,926.494
3576.5,900.316
3577.96,897.564
3579.41,920.352
3580.86,913.005
3582.31,925.462
3583.76,932.87
3585.21,930.694
3586.66,923.034
3588.11,937.281
3589.56,918.352
3591.01,933.975
3592.46,944.703
3593.91,919.695
3595.36,922.888
3596.81,936.713
3598.26,931.745
3599.71,915.012
3601.16,927.887
3602.61,938.494
3604.06,926.857
3605.51,924.862
3606.96,923.256
3608.41,937.498
3609.86,929.41
3611.31,940.541
3612.76,919.599
3614.21,918.463
3615.66,955.649
3617.11,926.794
3618.56,937.431
3620.01,929.732
3621.46,940.635
3622.92,939.33
3624.37,939.964
3625.82,940.212
3627.27,943.58
3628.72,915.692
3630.17,929.692
3631.62,942.687
3633.07,922.506
3634.52,940.631
3635.97,942.655
3637.42,940.442
3638.87,948.184
3640.32,922.427
3641.77,959.951
3643.22,961.81
3644.67,946.992
3646.12,947.575
3647.57,950.468
3649.02,945.828
3650.47,956.898
3651.92,949.106
3653.37,958.26
3654.82,953.175
3656.27,948.347
3657.72,944.346
3659.17,958.364
3660.62,965.905
3662.07,956.877
3663.52,954.327
3664.97,958.755
3666.43,952.883
3667.88,970.381
3669.33,941.684
3670.78,946.201
3672.23,957.059
3673.68,966.405
3675.13,966.537
3676.58,970.297
3678.03,955.551
3679.48,970.457
3680.93,977.325
3682.38,956.189
3683.83,955.053
3685.28,953.366
3686.73,975.715
3688.18,967.808
3689.63,970.036
3691.08,961.051
3692.53,976.115
3693.98,965.431
3695.43,975.03
3696.88,965.03
3698.33,954.054
3699.78,954.147
3701.23,965.992
3702.68,969.997
3704.13,987.491
3705.58,969.808
3707.03,987.31
3708.48,968.666
3709.93,964.223
3711.39,975.251
3712.84,950.539
3714.29,981.968
3715.74,972.595
3717.19,974.867
3718.64,981.235
3720.09,974.144
3721.54,973.7
3722.99,973.678
3724.44,978.801
3725.89,967.86
3727.34,956.218
3728.79,959.595
3730.24,955.595
3731.69,984.7
3733.14,981.112
3734.59,984.037
3736.04,971.596
3737.49,974.966
3738.94,986.886
3740.39,1004.04
3741.84,970.708
3743.29,999.6
3744.74,1008.43
3746.19,980.705
3747.64,992.467
3749.09,1001.78
3750.54,976.425
3751.99,981.031
3753.44,987.249
3754.89,989.555
3756.35,999.418
3757.8,994.567
3759.25,993.948
3760.7,994.762
3762.15,991.303
3763.6,979.851
3765.05,997.848
3766.5,997.243
3767.95,1003.01
3769.4,999.541
3770.85,996.176
3772.3,987.177
3773.75,988.885
3775.2,996.272
3776.65,993.042
3778.1,1008.22
3779.55,993.963
3781,1009.77
3782.45,1021.87
3783.9,1003.74
3785.35,988.607
3786.8,1026.43
3788.25,988.257
3789.7,1007.68
3791.15,991.665
3792.6,1022.24
3794.05,1001.88
3795.5,988.847
3796.95,996.893
3798.4,986.18
3799.85,1008.94
3801.31,1009.49
3802.76,989.158
3804.21,1033.58
3805.66,1029.63
3807.11,1030.42
3808.56,1020.58
3810.01,1029.37
3811.46,1036.53
3812.91,1034.29
3814.36,1018.97
3815.81,1019.76
3817.26,1024.46
3818.71,1023.71
3820.16,1034.13
3821.61,1036.66
3823.06,1017.48
3824.51,1011.19
3825.96,1031.19
3827.41,1032.09
3828.86,1030.34
3830.31,1040.49
3831.76,1030.63
3833.21,1036.97
3834.66,1052.47
3836.11,1050.08
3837.56,1043.62
3839.01,1036.55
3840.46,1036.97
3841.91,1027.88
3843.36,1026.12
3844.82,997.134
3846.27,1033.15
3847.72,1046.5
3849.17,1044.13
3850.62,1061.99
3852.07,1049.31
3853.52,1043.62
3854.97,1045.16
3856.42,1043.83
3857.87,1043.64
3859.32,1054.22
3860.77,1049.43
3862.22,1047.61
3863.67,1059.95
3865.12,1057.79
3866.57,1047.73
3868.02,1048.05
3869.47,1071.07
3870.92,1047.31
3872.37,1041.95
3873.82,1058.54
3875.27,1079.88
3876.72,1091.31
3878.17,1086.37
3879.62,1058.29
3881.07,1064.75
3882.52,1063.96
3883.97,1066.86
3885.42,1078.8
3886.87,1077.91
3888.32,1086.99
3889.78,1071.14
3891.23,1080.55
3892.68,1075.44
3894.13,1073.05
3895.58,1081.77
3897.03,1095.27
3898.48,1097.55
3899.93,1105.78
3901.38,1100.12
3902.83,1078.04
3904.28,1102.38
3905.73,1105.02
3907.18,1106.2
3908.63,1086.6
3910.08,1100.11
3911.53,1096.01
3912.98,1113.91
3914.43,1104.62
3915.88,1106.4
3917.33,1094.41
3918.78,1086.15
3920.23,1107.99
3921.68,1114.97
3923.13,1129.93
3924.58,1110.53
3926.03,1120.02
3927.48,1115.48
3928.93,1154.46
3930.38,1114.46
3931.83,1119.9
3933.28,1124.76
3934.74,1130.31
3936.19,1150.03
3937.64,1137.3
3939.09,1119.77
3940.54,1150.76
3941.99,1138.2
3943.44,1130.01
3944.89,1135.26
3946.34,1146.89
3947.79,1159.18
3949.24,1150.73
3950.69,1154.53
3952.14,1161.36
3953.59,1167.58
3955.04,1171.37
3956.49,1137.34
3957.94,1176.19
3959.39,1149.7
3960.84,1146.78
3962.29,1156.02
3963.74,1150.2
3965.19,1140.83
3966.64,1184.5
3968.09,1157.38
3969.54,1179.26
3970.99,1151.9
3972.44,1174.63
3973.89,1170.65
3975.34,1196.63
3976.79,1190.51
3978.25,1198.26
3979.7,1195.33
3981.15,1183.01
3982.6,1189.99
3984.05,1201.02
3985.5,1206.35
3986.95,1222.22
3988.4,1201.88
3989.85,1207.18
3991.3,1202.38
3992.75,1210.15
3994.2,1224.75
3995.65,1199.02
3997.1,1259.17
3998.55,1207.44
4000,1210.03
