-0.2,3.92736
1.45033,3.92736
2.90065,3.92736
4.35098,3.92736
5.80131,3.92736
7.25163,3.92736
8.70196,16.4304
10.1523,7.20743
11.6026,5.67922
13.0529,6.30533
14.5033,7.05037
15.9536,6.38972
17.4039,2.5625
18.8542,0.219157
20.3046,0.172756
21.7549,1.5253
23.2052,3.15405
24.6555,2.96254
26.1059,2.11389
27.5562,0.599805
29.0065,0.139729
30.4569,2.89322
31.9072,1.35992
33.3575,1.2661
34.8078,1.1043
36.2582,0.603132
37.7085,1.17846
39.1588,0.1613
40.6091,1.24564
42.0595,3.47659
43.5098,5.45627
44.9601,6.22398
46.4104,5.88571
47.8608,9.104
49.3111,15.9156
50.7614,24.0157
52.2117,59.7425
53.6621,116.114
55.1124,200.879
56.5627,315.38
58.0131,451.645
59.4634,585.143
60.9137,704.824
62.364,788.691
63.8144,826.45
65.2647,895.692
66.715,925.398
68.1653,951.11
69.6157,980.214
71.066,1007.85
72.5163,1019.97
73.9666,1016.4
75.417,1007.34
76.8673,1008.41
78.3176,1050.79
79.7679,1058.81
81.2183,1076.12
82.6686,1106.35
84.1189,1145.27
85.5693,1170.91
87.0196,1178.11
88.4699,1177.17
89.9202,1152.15
91.3706,1082.11
92.8209,1024.23
94.2712,971.283
95.7215,912.615
97.1719,859.024
98.6222,843.583
100.073,813.493
101.523,778.489
102.973,746.603
104.423,722.106
105.874,702.402
107.324,686.196
108.774,678.388
110.225,666.383
111.675,643.379
113.125,648.406
114.576,658.5
116.026,652.803
117.476,632.386
118.927,607.947
120.377,614.726
121.827,601.977
123.278,594.835
124.728,594.469
126.178,585.37
127.629,572.601
129.079,559.393
130.529,550.586
131.98,545.319
133.43,534.082
134.88,520.457
136.331,502.847
137.781,494.857
139.231,497.608
140.682,475.503
142.132,481.349
143.582,472.157
145.033,456.795
146.483,447.337
147.933,432.589
149.384,445.341
150.834,441.354
152.284,425.797
153.735,417.721
155.185,435.199
156.635,420.481
158.086,414.868
159.536,422.636
160.986,431.668
162.437,430.308
163.887,415.324
165.337,397.989
166.788,384.385
168.238,377.696
169.688,379.449
171.139,371.029
172.589,366.17
174.039,364.799
175.489,353.108
176.94,376.043
178.39,381.75
179.84,380.322
181.291,376.934
182.741,369.143
184.191,360.025
185.642,351.418
187.092,341.797
188.542,336.107
189.993,352.11
191.443,338.942
192.893,338.834
194.344,346.387
195.794,350.022
197.244,330.124
198.695,334.57
200.145,335.783
201.595,331.12
203.046,323.098
204.496,321.536
205.946,329.513
207.397,334.12
208.847,339.108
210.297,344.85
211.748,337.229
213.198,338.188
214.648,341.117
216.099,340.354
217.549,335.004
218.999,337.35
220.45,344.523
221.9,340.222
223.35,330.496
224.801,324.951
226.251,336.105
227.701,332.77
229.152,339.675
230.602,334.834
232.052,313.308
233.503,330.562
234.953,331.569
236.403,332.364
237.854,333.153
239.304,333.084
240.754,332.692
242.204,329.562
243.655,326.763
245.105,319.674
246.555,309.78
248.006,312.918
249.456,314.207
250.906,319.5
252.357,325.147
253.807,324.081
255.257,303.839
256.708,308.928
258.158,313.608
259.608,316.157
261.059,318.289
262.509,324.977
263.959,297.424
265.41,293.74
266.86,293.971
268.31,295.722
269.761,315.696
271.211,305.852
272.661,301.896
274.112,295.597
275.562,291.56
277.012,302.302
278.463,301.514
279.913,303.87
281.363,301.099
282.814,297.651
284.264,301.811
285.714,291.36
287.165,294.049
288.615,297.621
290.065,292.482
291.516,276.77
292.966,286.636
294.416,297.021
295.867,290.502
297.317,281.184
298.767,281.88
300.218,277.737
301.668,280.454
303.118,281.676
304.569,270.705
306.019,253.642
307.469,269.453
308.919,262.434
310.37,264.128
311.82,263.305
313.27,257.716
314.721,257.318
316.171,256.725
317.621,259.204
319.072,252.943
320.522,246.932
321.972,259.214
323.423,258.225
324.873,249.644
326.323,249.138
327.774,254.647
329.224,257.638
330.674,248.523
332.125,256.914
333.575,257.375
335.025,250.516
336.476,242.536
337.926,241.941
339.376,240.966
340.827,244.279
342.277,246.418
343.727,247.055
345.178,251.37
346.628,238.071
348.078,244.121
349.529,256.797
350.979,263.132
352.429,253.457
353.88,238.758
355.33,246.751
356.78,251.722
358.231,252.273
359.681,250.949
361.131,245.184
362.582,236.047
364.032,231.938
365.482,234.551
366.933,238.849
368.383,233.554
369.833,231.562
371.284,228.305
372.734,228.214
374.184,228.722
375.635,227.038
377.085,240.978
378.535,247.558
379.986,236.768
381.436,228.063
382.886,233.883
384.336,239.065
385.787,233.229
387.237,228.825
388.687,231.012
390.138,237.285
391.588,239.486
393.038,235.895
394.489,226.79
395.939,231.388
397.389,237.873
398.84,231.805
400.29,222.222
401.74,236.385
403.191,228.859
404.641,227.835
406.091,236.046
407.542,223.814
408.992,230.008
410.442,237.182
411.893,238.664
413.343,238.131
414.793,239.088
416.244,228.088
417.694,236.652
419.144,237.33
420.595,229.808
422.045,223.29
423.495,232.3
424.946,230.099
426.396,227.08
427.846,221.741
429.297,225.173
430.747,240.409
432.197,223.762
433.648,232.278
435.098,229.344
436.548,223.176
437.999,221.255
439.449,223.887
440.899,215.465
442.35,226.858
443.8,226.363
445.25,220.845
446.701,224.783
448.151,236.035
449.601,234.425
451.051,232.214
452.502,230.63
453.952,225.686
455.402,213.972
456.853,227.848
458.303,223.933
459.753,224.229
461.204,224.847
462.654,222.164
464.104,223.564
465.555,220.548
467.005,224.804
468.455,229.205
469.906,225.732
471.356,215.077
472.806,233.208
474.257,235.508
475.707,230.656
477.157,229.688
478.608,234.843
480.058,237.557
481.508,216.408
482.959,226.541
484.409,228.133
485.859,227.643
487.31,231.24
488.76,221.389
490.21,233.688
491.661,239.951
493.111,232.143
494.561,219.163
496.012,215.758
497.462,227.056
498.912,219.557
500.363,223.7
501.813,225.247
503.263,221.55
504.714,222.139
506.164,230.015
507.614,227.501
509.065,225.165
510.515,225.249
511.965,224.875
513.416,218.17
514.866,222.824
516.316,227.986
517.766,228.654
519.217,226.118
520.667,223.269
522.117,221.881
523.568,226.54
525.018,222.15
526.468,218.694
527.919,218.099
529.369,221.346
530.819,237.97
532.27,221.814
533.72,226.188
535.17,225.749
536.621,222.175
538.071,229.242
539.521,231.269
540.972,225.313
542.422,228.62
543.872,225.79
545.323,221.733
546.773,231.565
548.223,226.689
549.674,225.89
551.124,229.656
552.574,231.863
554.025,230.175
555.475,227.102
556.925,225.679
558.376,224.437
559.826,221.673
561.276,221.19
562.727,220.877
564.177,214.451
565.627,222.592
567.078,218.735
568.528,212.686
569.978,212.101
571.429,215.895
572.879,215.28
574.329,222.206
575.78,215.425
577.23,219.689
578.68,224.321
580.131,224.718
581.581,230.277
583.031,218.043
584.482,224.124
585.932,223.015
587.382,221.543
588.832,221.874
590.283,214.519
591.733,214.519
593.183,219.176
594.634,226.981
596.084,222.21
597.534,207.407
598.985,205.155
600.435,207.198
601.885,219.045
603.336,222.092
604.786,223.997
606.236,226.632
607.687,223.138
609.137,221.298
610.587,223.902
612.038,228.275
613.488,228.457
614.938,226.568
616.389,228.837
617.839,223.925
619.289,229.838
620.74,221.137
622.19,219.371
623.64,222.393
625.091,215.068
626.541,213.839
627.991,221.829
629.442,231.015
630.892,232.378
632.342,226.271
633.793,219.223
635.243,218.197
636.693,230.997
638.144,229.994
639.594,224.605
641.044,223
642.495,227.93
643.945,233.539
645.395,216.499
646.846,229.497
648.296,235.511
649.746,234.878
651.197,233.802
652.647,231.217
654.097,232.039
655.547,236.149
656.998,236.362
658.448,232.514
659.898,229.055
661.349,230.313
662.799,227.639
664.249,234.08
665.7,235.956
667.15,231.97
668.6,232.92
670.051,243.476
671.501,237.508
672.951,235.654
674.402,237.996
675.852,240.259
677.302,235.729
678.753,228.546
680.203,236.239
681.653,239.128
683.104,241.833
684.554,236.053
686.004,235.813
687.455,239.26
688.905,233.467
690.355,237.799
691.806,245.289
693.256,238.159
694.706,240.599
696.157,244.803
697.607,240.455
699.057,248.965
700.508,239.866
701.958,236.211
703.408,236.412
704.859,237.368
706.309,234.603
707.759,228.051
709.21,245.419
710.66,244.438
712.11,241.539
713.561,238.553
715.011,238.546
716.461,242.16
717.912,242.015
719.362,236.213
720.812,248.775
722.263,250.846
723.713,251.077
725.163,250.425
726.613,237.135
728.064,240.035
729.514,235.317
730.964,238.042
732.415,247.704
733.865,248.318
735.315,237.259
736.766,247.464
738.216,245.803
739.666,241.62
741.117,243.928
742.567,248.901
744.017,251.043
745.468,247.039
746.918,236.022
748.368,237.021
749.819,242.437
751.269,258.381
752.719,260.671
754.17,247.248
755.62,255.294
757.07,264.659
758.521,259.653
759.971,250.465
761.421,241.805
762.872,244.576
764.322,256.394
765.772,244.656
767.223,240.281
768.673,253.843
770.123,252.564
771.574,242.949
773.024,242.015
774.474,254.492
775.925,248.035
777.375,259.09
778.825,250.635
780.276,251.097
781.726,252.568
783.176,251.965
784.627,258.581
786.077,251.691
787.527,262.142
788.978,258.62
790.428,255.208
791.878,254.164
793.328,254.347
794.779,257.462
796.229,258.717
797.68,249.971
799.13,250.353
800.58,256.073
802.03,262.14
803.481,261.073
804.931,246.259
806.381,251.07
807.832,259.35
809.282,262.9
810.732,261.614
812.183,258.921
813.633,255.456
815.083,247.16
816.534,254.91
817.984,248.374
819.434,259.841
820.885,263.987
822.335,261.628
823.785,267.152
825.236,277.892
826.686,268.245
828.136,273.256
829.587,284.426
831.037,279.352
832.487,269.868
833.938,269.221
835.388,259.556
836.838,281.601
838.289,273.327
839.739,266.601
841.189,263.928
842.64,266.53
844.09,270.281
845.54,265.218
846.991,276.567
848.441,268.798
849.891,281.089
851.342,278.013
852.792,263.849
854.242,261.122
855.693,273.279
857.143,258.549
858.593,276.834
860.044,285.04
861.494,289.168
862.944,283.827
864.394,274.581
865.845,277.894
867.295,269.468
868.745,277.789
870.196,273.806
871.646,273.602
873.096,271.699
874.547,265.89
875.997,265.919
877.447,282.088
878.898,284.829
880.348,268.844
881.798,267.201
883.249,265.44
884.699,266.516
886.149,277.843
887.6,274.507
889.05,271.758
890.5,274.398
891.951,279.474
893.401,280.153
894.851,286.927
896.302,296.584
897.752,283.177
899.202,276.623
900.653,269.856
902.103,287.278
903.553,286.1
905.004,278.568
906.454,279.253
907.904,282.56
909.355,282.576
910.805,276.642
912.255,292.269
913.706,300.348
915.156,294.509
916.606,292.991
918.057,302.422
919.507,294.749
920.957,283.08
922.408,300.278
923.858,296.253
925.308,285.674
926.759,286.857
928.209,296.477
929.659,295.94
931.109,287.147
932.56,293.734
934.01,285.137
935.46,291.899
936.911,295.227
938.361,299.3
939.811,306.577
941.262,296.106
942.712,297.169
944.162,283.315
945.613,300.247
947.063,292.918
948.513,281.05
949.964,282.286
951.414,293.725
952.864,317.149
954.315,309.279
955.765,294.104
957.215,301.674
958.666,301.496
960.116,296.237
961.566,291.925
963.017,285.422
964.467,294.298
965.917,295.365
967.368,302.868
968.818,297.919
970.268,294.27
971.719,298.127
973.169,301.815
974.619,294.976
976.07,287.047
977.52,304.109
978.97,304.654
980.421,304.198
981.871,306.236
983.321,298.968
984.772,285.938
986.222,295.21
987.672,302.265
989.123,309.1
990.573,305.644
992.023,302.396
993.474,302.308
994.924,302.87
996.374,299.436
997.825,292.651
999.275,306.991
1000.73,315.009
1002.18,318.793
1003.63,319.85
1005.08,311.381
1006.53,308.437
1007.98,320.196
1009.43,324.143
1010.88,330.144
1012.33,330.007
1013.78,324.529
1015.23,319.609
1016.68,325.369
1018.13,331.882
1019.58,331.672
1021.03,336.789
1022.48,331.451
1023.93,334.671
1025.38,342.712
1026.83,343.273
1028.28,341.325
1029.73,336.766
1031.18,337.329
1032.63,354.606
1034.08,353.831
1035.53,341.582
1036.98,363.232
1038.43,362.312
1039.88,367.196
1041.33,374.081
1042.78,378.792
1044.23,385.734
1045.69,362.29
1047.14,381.014
1048.59,373.91
1050.04,373.071
1051.49,378.611
1052.94,382.881
1054.39,391.853
1055.84,402.611
1057.29,384.013
1058.74,388.107
1060.19,393.047
1061.64,395.273
1063.09,402.509
1064.54,413.61
1065.99,419.241
1067.44,421.141
1068.89,432.308
1070.34,436.576
1071.79,429.239
1073.24,429.137
1074.69,435.464
1076.14,427.675
1077.59,429.159
1079.04,448.977
1080.49,461.579
1081.94,448.568
1083.39,443.815
1084.84,455.564
1086.29,439.445
1087.74,432.822
1089.2,428.664
1090.65,430.433
1092.1,438.824
1093.55,439.963
1095,439.612
1096.45,440.478
1097.9,435.082
1099.35,433.062
1100.8,429.793
1102.25,436.418
1103.7,442.164
1105.15,436.194
1106.6,435.425
1108.05,429.492
1109.5,428.19
1110.95,439.386
1112.4,435.048
1113.85,423.2
1115.3,421.297
1116.75,427.607
1118.2,425.147
1119.65,410.222
1121.1,406.833
1122.55,412.91
1124,409.029
1125.45,412.028
1126.9,408.785
1128.35,409.504
1129.8,413.366
1131.25,407.61
1132.7,403.307
1134.16,406.755
1135.61,397.408
1137.06,397.598
1138.51,398.63
1139.96,395.12
1141.41,404.412
1142.86,408.98
1144.31,392.568
1145.76,406.622
1147.21,407.292
1148.66,409.69
1150.11,396.434
1151.56,393.836
1153.01,385.914
1154.46,389.024
1155.91,400.97
1157.36,402.387
1158.81,399.401
1160.26,389.868
1161.71,388.776
1163.16,391.062
1164.61,388.857
1166.06,391.352
1167.51,393.935
1168.96,391.538
1170.41,392.496
1171.86,403.102
1173.31,390.932
1174.76,409.709
1176.21,393.706
1177.66,399.334
1179.12,397.103
1180.57,390.703
1182.02,384.292
1183.47,386.44
1184.92,399.611
1186.37,394.561
1187.82,400.909
1189.27,391.506
1190.72,405.835
1192.17,413.979
1193.62,417.673
1195.07,416.107
1196.52,413.983
1197.97,412.705
1199.42,406.143
1200.87,416.767
1202.32,416.108
1203.77,419.613
1205.22,410.555
1206.67,411.201
1208.12,406.117
1209.57,399.61
1211.02,404.021
1212.47,415.267
1213.92,420.471
1215.37,418.766
1216.82,418.766
1218.27,417.157
1219.72,414.518
1221.17,414.083
1222.63,417.266
1224.08,414.816
1225.53,418.633
1226.98,440.954
1228.43,431.04
1229.88,412.111
1231.33,428.392
1232.78,420.917
1234.23,440.42
1235.68,438.037
1237.13,436.841
1238.58,431.754
1240.03,418.396
1241.48,426.803
1242.93,437.267
1244.38,440.413
1245.83,429.616
1247.28,433.913
1248.73,441.261
1250.18,435.147
1251.63,449.715
1253.08,470.157
1254.53,462.578
1255.98,443.218
1257.43,452.851
1258.88,472.31
1260.33,462.819
1261.78,461.857
1263.23,467.196
1264.68,469.932
1266.13,471.563
1267.59,468.903
1269.04,469.751
1270.49,482.595
1271.94,493.557
1273.39,512.824
1274.84,499.1
1276.29,508.028
1277.74,528.892
1279.19,523.672
1280.64,519.309
1282.09,524.045
1283.54,525.602
1284.99,532.046
1286.44,559.833
1287.89,567.166
1289.34,572.946
1290.79,580.92
1292.24,592.505
1293.69,599.498
1295.14,618.108
1296.59,644.915
1298.04,656.734
1299.49,660.744
1300.94,677.858
1302.39,695.191
1303.84,731.427
1305.29,722.997
1306.74,725.632
1308.19,775.024
1309.64,812.914
1311.09,827.323
1312.55,850.782
1314,875.433
1315.45,896.005
1316.9,930.182
1318.35,962.259
1319.8,1021.02
1321.25,1046.81
1322.7,1077.15
1324.15,1127.12
1325.6,1152.02
1327.05,1179.21
1328.5,1206.76
1329.95,1221.03
1331.4,1221.87
1332.85,1231.35
1334.3,1266.77
1335.75,1257.51
1337.2,1241.47
1338.65,1223.02
1340.1,1221.81
1341.55,1225.02
1343,1179.72
1344.45,1151.32
1345.9,1140.34
1347.35,1105.08
1348.8,1065.64
1350.25,1061.83
1351.7,1038.12
1353.15,987.553
1354.6,949.399
1356.06,917.124
1357.51,900.974
1358.96,864.463
1360.41,829.977
1361.86,808.74
1363.31,773.461
1364.76,734.282
1366.21,734.892
1367.66,728.4
1369.11,698.081
1370.56,705.466
1372.01,678.116
1373.46,675.211
1374.91,663.608
1376.36,652.008
1377.81,644.346
1379.26,638.754
1380.71,626.193
1382.16,609.529
1383.61,607.061
1385.06,608.287
1386.51,617.222
1387.96,597.961
1389.41,617.42
1390.86,609.276
1392.31,594.075
1393.76,583.963
1395.21,584.658
1396.66,581.254
1398.11,579.424
1399.56,588.073
1401.02,588.543
1402.47,599.644
1403.92,605.382
1405.37,577.972
1406.82,587.427
1408.27,579.121
1409.72,582.446
1411.17,577.69
1412.62,578.246
1414.07,587.322
1415.52,588.521
1416.97,592.373
1418.42,610.709
1419.87,596.19
1421.32,611.212
1422.77,616.156
1424.22,601.293
1425.67,613.812
1427.12,610.625
1428.57,611.497
1430.02,606.094
1431.47,606.865
1432.92,614.026
1434.37,627.76
1435.82,634.313
1437.27,610.096
1438.72,627.858
1440.17,634.708
1441.62,621.847
1443.07,669.8
1444.53,660.207
1445.98,659.932
1447.43,664.2
1448.88,662.629
1450.33,662.202
1451.78,677.831
1453.23,692.109
1454.68,693.168
1456.13,708.945
1457.58,703.031
1459.03,721.827
1460.48,717.983
1461.93,727.924
1463.38,725.663
1464.83,730.579
1466.28,760.441
1467.73,781.039
1469.18,780.824
1470.63,776.717
1472.08,787.772
1473.53,806.052
1474.98,809.669
1476.43,813.778
1477.88,826.079
1479.33,863.266
1480.78,852.601
1482.23,855.372
1483.68,904.879
1485.13,910
1486.58,927.03
1488.03,948.506
1489.49,945.716
1490.94,968.432
1492.39,1007.37
1493.84,1020.31
1495.29,1063.65
1496.74,1049.47
1498.19,1055.88
1499.64,1124.61
1501.09,1143.69
1502.54,1172.3
1503.99,1203.98
1505.44,1233.72
1506.89,1270.02
1508.34,1309.24
1509.79,1367.11
1511.24,1415.14
1512.69,1462.97
1514.14,1550.78
1515.59,1627.81
1517.04,1678.86
1518.49,1746.93
1519.94,1811.65
1521.39,1950.26
1522.84,2047.95
1524.29,2161.07
1525.74,2288.2
1527.19,2430.48
1528.64,2591.18
1530.09,2767.31
1531.54,2970.69
1532.99,3205.68
1534.45,3437.55
1535.9,3693.7
1537.35,4068.79
1538.8,4439.51
1540.25,4853.41
1541.7,5237.18
1543.15,5662.51
1544.6,6171.19
1546.05,6709.11
1547.5,7322.13
1548.95,7895.71
1550.4,8440.52
1551.85,9037.78
1553.3,9643.5
1554.75,10247.1
1556.2,10874
1557.65,11449.6
1559.1,11468.1
1560.55,11481.8
1562,11508.2
1563.45,11516.1
1564.9,11521.9
1566.35,11515.1
1567.8,11512.1
1569.25,11520.9
1570.7,11519
1572.15,11148.3
1573.6,10571.4
1575.05,9975.13
1576.5,9373.98
1577.96,8717.47
1579.41,8045.22
1580.86,7432.67
1582.31,6865.63
1583.76,6274.6
1585.21,5763.66
1586.66,5270.02
1588.11,4848.06
1589.56,4480.57
1591.01,4120.18
1592.46,3820.4
1593.91,3575.15
1595.36,3316.6
1596.81,3099.79
1598.26,2878.18
1599.71,2712.36
1601.16,2600.43
1602.61,2469.91
1604.06,2350.53
1605.51,2249.33
1606.96,2142.46
1608.41,2032.88
1609.86,1947.31
1611.31,1845.08
1612.76,1807.46
1614.21,1687.98
1615.66,1643.15
1617.11,1573.71
1618.56,1531.93
1620.01,1465.45
1621.46,1411.5
1622.92,1357.31
1624.37,1314.58
1625.82,1283.88
1627.27,1246.59
1628.72,1217.84
1630.17,1179.66
1631.62,1157.23
1633.07,1128.86
1634.52,1107.96
1635.97,1071.89
1637.42,1069.87
1638.87,1039.01
1640.32,1011.88
1641.77,1007.16
1643.22,994.265
1644.67,979.05
1646.12,963.184
1647.57,959.51
1649.02,945.288
1650.47,924.21
1651.92,919.979
1653.37,917.946
1654.82,896.69
1656.27,883.799
1657.72,880.214
1659.17,862.284
1660.62,846.433
1662.07,850.021
1663.52,867.987
1664.97,859.208
1666.42,847.687
1667.88,840.193
1669.33,833.261
1670.78,821.979
1672.23,804.497
1673.68,808.916
1675.13,806.73
1676.58,805.105
1678.03,793.889
1679.48,784.012
1680.93,790.6
1682.38,788.992
1683.83,782.613
1685.28,774.364
1686.73,779.869
1688.18,778.128
1689.63,775.586
1691.08,768.57
1692.53,755.384
1693.98,754.186
1695.43,767.916
1696.88,776.387
1698.33,770.425
1699.78,772.39
1701.23,760.834
1702.68,763.533
1704.13,754.031
1705.58,761.948
1707.03,761.737
1708.48,744.25
1709.93,761.555
1711.39,761.247
1712.84,760.543
1714.29,757.238
1715.74,768.454
1717.19,777.231
1718.64,761.318
1720.09,762.618
1721.54,765.424
1722.99,746.247
1724.44,749.826
1725.89,770.926
1727.34,777.972
1728.79,778.067
1730.24,759.177
1731.69,746.383
1733.14,778.137
1734.59,753.126
1736.04,747.045
1737.49,765.909
1738.94,750.168
1740.39,747.841
1741.84,762.303
1743.29,749.214
1744.74,744.229
1746.19,731.485
1747.64,724.586
1749.09,735.383
1750.54,724.662
1751.99,723.055
1753.44,734.26
1754.89,724.958
1756.35,723.392
1757.8,740.488
1759.25,736.246
1760.7,727.181
1762.15,730.411
1763.6,713.252
1765.05,714.441
1766.5,725.848
1767.95,721.087
1769.4,700.172
1770.85,697.774
1772.3,692.388
1773.75,704.116
1775.2,699.317
1776.65,698.2
1778.1,699.499
1779.55,703.555
1781,699.111
1782.45,701.689
1783.9,698.888
1785.35,708.053
1786.8,710.568
1788.25,707.565
1789.7,700.737
1791.15,698.445
1792.6,708.325
1794.05,706.165
1795.5,702.5
1796.95,699.719
1798.4,703.454
1799.85,710.999
1801.31,690.567
1802.76,690.537
1804.21,676.193
1805.66,696.474
1807.11,662.183
1808.56,676.598
1810.01,683.52
1811.46,684.392
1812.91,667.319
1814.36,688.943
1815.81,703.212
1817.26,709.167
1818.71,708.471
1820.16,699.703
1821.61,693.014
1823.06,684.727
1824.51,690.949
1825.96,692.86
1827.41,685.804
1828.86,697.42
1830.31,703.108
1831.76,697.382
1833.21,703.876
1834.66,694.931
1836.11,694.697
1837.56,686.117
1839.01,707.618
1840.46,723.608
1841.91,693.231
1843.36,702.128
1844.82,713.903
1846.27,703.284
1847.72,712.919
1849.17,719.3
1850.62,712.848
1852.07,714.897
1853.52,730.826
1854.97,731.367
1856.42,717.982
1857.87,712.158
1859.32,733.204
1860.77,742.464
1862.22,733.541
1863.67,723.745
1865.12,727.883
1866.57,730.987
1868.02,722.861
1869.47,710.436
1870.92,704.249
1872.37,714.338
1873.82,723.78
1875.27,716.342
1876.72,706.996
1878.17,714.497
1879.62,707.562
1881.07,701.699
1882.52,693.34
1883.97,695.189
1885.42,695.894
1886.87,702.131
1888.32,699.704
1889.78,690.599
1891.23,696.774
1892.68,693.644
1894.13,698.885
1895.58,693.669
1897.03,700.8
1898.48,699.791
1899.93,682.965
1901.38,685.135
1902.83,679.899
1904.28,675.279
1905.73,679.493
1907.18,690.054
1908.63,689.985
1910.08,682.515
1911.53,671.419
1912.98,661.602
1914.43,668.781
1915.88,674.24
1917.33,662.406
1918.78,662.686
1920.23,675.333
1921.68,676.5
1923.13,675.345
1924.58,673.202
1926.03,666.841
1927.48,668.948
1928.93,676.747
1930.38,673.231
1931.83,670.329
1933.29,651.589
1934.74,672.097
1936.19,676.973
1937.64,650.741
1939.09,661.957
1940.54,655.16
1941.99,670.336
1943.44,671.976
1944.89,672.701
1946.34,674.135
1947.79,658.801
1949.24,673.019
1950.69,661.967
1952.14,679.392
1953.59,683.204
1955.04,670.493
1956.49,679.281
1957.94,675.339
1959.39,666.37
1960.84,674.34
1962.29,671.841
1963.74,678.004
1965.19,682.558
1966.64,681.859
1968.09,694.128
1969.54,700.886
1970.99,702.439
1972.44,705.934
1973.89,692.283
1975.34,692.473
1976.79,699.74
1978.25,698.469
1979.7,689.744
1981.15,690.896
1982.6,696.265
1984.05,688.976
1985.5,695.073
1986.95,690.129
1988.4,681.221
1989.85,699.537
1991.3,693.876
1992.75,694.319
1994.2,697.06
1995.65,701.56
1997.1,703.8
1998.55,698.197
2000,691.851
2001.45,704.111
2002.9,695.93
2004.35,690.364
2005.8,694.472
2007.25,700.264
2008.7,704.154
2010.15,705.138
2011.6,708.964
2013.05,686.456
2014.5,681.596
2015.95,691.23
2017.4,682.515
2018.85,666.45
2020.3,690.764
2021.75,693.376
2023.21,670.552
2024.66,688.2
2026.11,680.056
2027.56,689.481
2029.01,692.913
2030.46,675.275
2031.91,676.973
2033.36,666.266
2034.81,674
2036.26,686.304
2037.71,678.719
2039.16,679.79
2040.61,687.794
2042.06,668.566
2043.51,655.695
2044.96,665.11
2046.41,645.904
2047.86,656.466
2049.31,665.281
2050.76,656.677
2052.21,655.316
2053.66,671.206
2055.11,674.994
2056.56,660.383
2058.01,654.562
2059.46,668.263
2060.91,669.837
2062.36,661.04
2063.81,653.986
2065.26,646.408
2066.72,648.934
2068.17,658.821
2069.62,640.401
2071.07,643.302
2072.52,662.272
2073.97,660.789
2075.42,655.075
2076.87,656.514
2078.32,653.613
2079.77,641.605
2081.22,650.798
2082.67,662.242
2084.12,659.208
2085.57,644.276
2087.02,645.268
2088.47,632.769
2089.92,631.944
2091.37,637.949
2092.82,648.987
2094.27,665.325
2095.72,656.122
2097.17,650.527
2098.62,652.82
2100.07,643.735
2101.52,635.89
2102.97,642.17
2104.42,635.828
2105.87,646.636
2107.32,651.068
2108.77,653.947
2110.22,655.268
2111.68,660.3
2113.13,652.163
2114.58,648.132
2116.03,659.182
2117.48,659.595
2118.93,649.108
2120.38,661.196
2121.83,660.406
2123.28,641.208
2124.73,652.96
2126.18,661.093
2127.63,656.392
2129.08,658.804
2130.53,663.68
2131.98,668.198
2133.43,667.746
2134.88,667.691
2136.33,663.59
2137.78,669.167
2139.23,668.937
2140.68,667.959
2142.13,661.43
2143.58,660.359
2145.03,682.284
2146.48,683.524
2147.93,675.424
2149.38,666.412
2150.83,667.832
2152.28,677.994
2153.73,678.485
2155.18,670.195
2156.64,674.149
2158.09,674.968
2159.54,672.625
2160.99,680.617
2162.44,681.743
2163.89,682.44
2165.34,676.308
2166.79,680.653
2168.24,701.955
2169.69,696.226
2171.14,687.032
2172.59,687.906
2174.04,689.309
2175.49,694.646
2176.94,696.463
2178.39,691.086
2179.84,692.12
2181.29,692.938
2182.74,697.233
2184.19,695.78
2185.64,690.606
2187.09,695.368
2188.54,701.381
2189.99,701.586
2191.44,697.29
2192.89,705.55
2194.34,705.241
2195.79,705.099
2197.24,711.439
2198.69,709.185
2200.15,698.856
2201.6,700.195
2203.05,700.608
2204.5,715.917
2205.95,712.11
2207.4,715.323
2208.85,709.017
2210.3,714.366
2211.75,721.642
2213.2,724.264
2214.65,717.901
2216.1,717.974
2217.55,723.5
2219,728.177
2220.45,708.828
2221.9,725.9
2223.35,735.139
2224.8,733.75
2226.25,721.636
2227.7,709.231
2229.15,731.068
2230.6,742.4
2232.05,741.915
2233.5,724.317
2234.95,729.678
2236.4,729.806
2237.85,733.029
2239.3,715.715
2240.75,720.602
2242.2,737.234
2243.65,747.589
2245.11,728.614
2246.56,745.947
2248.01,739.311
2249.46,737.126
2250.91,751.959
2252.36,744.354
2253.81,739.17
2255.26,747.509
2256.71,736.146
2258.16,743.852
2259.61,753.683
2261.06,748.689
2262.51,730.451
2263.96,751.535
2265.41,758.758
2266.86,748.047
2268.31,733.992
2269.76,745.628
2271.21,761.571
2272.66,753.269
2274.11,752.106
2275.56,741.073
2277.01,742.904
2278.46,764.797
2279.91,765.128
2281.36,779.814
2282.81,783.898
2284.26,758.313
2285.71,757.946
2287.16,769.667
2288.61,781.848
2290.07,770.61
2291.52,757.639
2292.97,775.33
2294.42,779.848
2295.87,783.263
2297.32,785.146
2298.77,765.775
2300.22,785.218
2301.67,812.587
2303.12,811.584
2304.57,799.947
2306.02,785.682
2307.47,790.746
2308.92,788.323
2310.37,799.239
2311.82,796.007
2313.27,807.243
2314.72,791.029
2316.17,815.438
2317.62,799.047
2319.07,807.898
2320.52,821.985
2321.97,810.646
2323.42,813.287
2324.87,837.784
2326.32,820.36
2327.77,823.413
2329.22,817.372
2330.67,840.492
2332.12,843.899
2333.57,846.725
2335.03,848.88
2336.48,827.655
2337.93,826.435
2339.38,843.628
2340.83,860.875
2342.28,854.437
2343.73,862.714
2345.18,854.423
2346.63,866.301
2348.08,879.48
2349.53,880.658
2350.98,878.457
2352.43,892.181
2353.88,887.272
2355.33,890.732
2356.78,893.224
2358.23,910.453
2359.68,901.197
2361.13,912.95
2362.58,938.3
2364.03,944.246
2365.48,925.689
2366.93,930.559
2368.38,953.078
2369.83,954.277
2371.28,949.08
2372.73,955.461
2374.18,985.028
2375.63,995.762
2377.08,1001.82
2378.54,1006.91
2379.99,1007.15
2381.44,1015.89
2382.89,1045.81
2384.34,1055.3
2385.79,1047.47
2387.24,1057.92
2388.69,1080.94
2390.14,1098.14
2391.59,1118.15
2393.04,1117.26
2394.49,1122.69
2395.94,1142.18
2397.39,1133.26
2398.84,1137.31
2400.29,1189.81
2401.74,1211.73
2403.19,1216.99
2404.64,1222.58
2406.09,1225.74
2407.54,1260.23
2408.99,1247.78
2410.44,1258.16
2411.89,1253.91
2413.34,1286.16
2414.79,1301.4
2416.24,1278.55
2417.69,1309.56
2419.14,1302.7
2420.59,1314.68
2422.04,1322.76
2423.5,1316.33
2424.95,1329.45
2426.4,1339.82
2427.85,1338.24
2429.3,1320.31
2430.75,1317.32
2432.2,1304.09
2433.65,1311.75
2435.1,1316.83
2436.55,1327.93
2438,1294.51
2439.45,1302.7
2440.9,1306.65
2442.35,1302.19
2443.8,1279.4
2445.25,1273.17
2446.7,1292.77
2448.15,1276.13
2449.6,1269.06
2451.05,1276.43
2452.5,1257.68
2453.95,1266.22
2455.4,1256.69
2456.85,1246.05
2458.3,1225.88
2459.75,1196.69
2461.2,1205.93
2462.65,1206.52
2464.1,1212.54
2465.55,1222.18
2467.01,1232.61
2468.46,1201.17
2469.91,1230.45
2471.36,1227
2472.81,1208.61
2474.26,1199.06
2475.71,1192.78
2477.16,1221.86
2478.61,1212.33
2480.06,1204.3
2481.51,1210.51
2482.96,1189.57
2484.41,1205.48
2485.86,1198.68
2487.31,1204.3
2488.76,1203.51
2490.21,1207.26
2491.66,1197.76
2493.11,1206.24
2494.56,1232.39
2496.01,1217.63
2497.46,1222.35
2498.91,1220.16
2500.36,1243.17
2501.81,1235.54
2503.26,1230.91
2504.71,1252.28
2506.16,1262.46
2507.61,1247.88
2509.06,1260.35
2510.51,1260.96
2511.97,1253.95
2513.42,1238.04
2514.87,1277
2516.32,1276.07
2517.77,1267.9
2519.22,1285.7
2520.67,1289.65
2522.12,1287.48
2523.57,1309.7
2525.02,1346.85
2526.47,1357.35
2527.92,1360.22
2529.37,1362.6
2530.82,1391.58
2532.27,1402.46
2533.72,1400.14
2535.17,1412.22
2536.62,1416.57
2538.07,1447.13
2539.52,1434.31
2540.97,1464.42
2542.42,1481.25
2543.87,1483.7
2545.32,1516.44
2546.77,1510.14
2548.22,1553.46
2549.67,1591.02
2551.12,1606.93
2552.57,1617.83
2554.02,1619.61
2555.48,1628.01
2556.93,1660.58
2558.38,1699.77
2559.83,1720.25
2561.28,1740.92
2562.73,1766.27
2564.18,1829.81
2565.63,1837.36
2567.08,1885.37
2568.53,1903.34
2569.98,1989.54
2571.43,2024.17
2572.88,2052.2
2574.33,2086.19
2575.78,2135.63
2577.23,2174.87
2578.68,2220.01
2580.13,2275.43
2581.58,2304.08
2583.03,2334.18
2584.48,2414.25
2585.93,2475.75
2587.38,2528.52
2588.83,2635.97
2590.28,2672.07
2591.73,2724.74
2593.18,2830.82
2594.63,2932.61
2596.08,3000.25
2597.53,3095.45
2598.98,3222.64
2600.44,3312.79
2601.89,3404.28
2603.34,3523.46
2604.79,3647.36
2606.24,3732.88
2607.69,3876.42
2609.14,4002.35
2610.59,4155.31
2612.04,4268.91
2613.49,4462.33
2614.94,4559.72
2616.39,4688.02
2617.84,4917.56
2619.29,5053.58
2620.74,5230.23
2622.19,5448.83
2623.64,5628.67
2625.09,5772.34
2626.54,5948.21
2627.99,6126.9
2629.44,6337.54
2630.89,6475.09
2632.34,6662.86
2633.79,6875.06
2635.24,7066.31
2636.69,7270.59
2638.14,7413.28
2639.59,7552.1
2641.04,7743.61
2642.49,7919.37
2643.94,8037.73
2645.4,8159.98
2646.85,8247.54
2648.3,8357.02
2649.75,8422.38
2651.2,8474.17
2652.65,8505.04
2654.1,8448.68
2655.55,8466.6
2657,8506.52
2658.45,8438.4
2659.9,8418.78
2661.35,8385.71
2662.8,8305.65
2664.25,8157.08
2665.7,8030.91
2667.15,7934.51
2668.6,7795.74
2670.05,7569.22
2671.5,7364.04
2672.95,7284.78
2674.4,7024.96
2675.85,6908.26
2677.3,6684.26
2678.75,6481.53
2680.2,6294.6
2681.65,6053.38
2683.1,5890.53
2684.55,5718.44
2686,5557.76
2687.45,5355.84
2688.91,5120.21
2690.36,4944.92
2691.81,4732.82
2693.26,4554.51
2694.71,4403.7
2696.16,4251.63
2697.61,4028.25
2699.06,3951.39
2700.51,3842.4
2701.96,3703.52
2703.41,3557.76
2704.86,3417.27
2706.31,3290.42
2707.76,3179.66
2709.21,3058.45
2710.66,2929.72
2712.11,2833.29
2713.56,2753.91
2715.01,2668.46
2716.46,2656.36
2717.91,2527.92
2719.36,2469.13
2720.81,2384.63
2722.26,2284.01
2723.71,2256.4
2725.16,2212.67
2726.61,2134.37
2728.06,2088.25
2729.51,2070.25
2730.96,1987.14
2732.41,1969.53
2733.87,1920.22
2735.32,1849.42
2736.77,1828.47
2738.22,1787.3
2739.67,1771.68
2741.12,1731.16
2742.57,1704.8
2744.02,1694.8
2745.47,1615.47
2746.92,1620.43
2748.37,1586.4
2749.82,1578.78
2751.27,1543.98
2752.72,1511.68
2754.17,1521
2755.62,1473.01
2757.07,1440.65
2758.52,1442.93
2759.97,1423.98
2761.42,1409.2
2762.87,1411.4
2764.32,1369.2
2765.77,1367.3
2767.22,1368.1
2768.67,1339.95
2770.12,1323.89
2771.57,1326.13
2773.02,1303.07
2774.47,1301.69
2775.92,1286.68
2777.38,1280.68
2778.83,1268.18
2780.28,1255.12
2781.73,1238.83
2783.18,1211.07
2784.63,1243.29
2786.08,1202.7
2787.53,1208.81
2788.98,1202.32
2790.43,1185.97
2791.88,1187.32
2793.33,1179.9
2794.78,1154.53
2796.23,1170.17
2797.68,1148.38
2799.13,1168.77
2800.58,1144.47
2802.03,1135.36
2803.48,1120
2804.93,1148.49
2806.38,1137.8
2807.83,1115.68
2809.28,1109.79
2810.73,1111.18
2812.18,1095.21
2813.63,1110.79
2815.08,1093.36
2816.53,1094.31
2817.98,1091.11
2819.43,1096.29
2820.88,1091.73
2822.33,1075.94
2823.79,1062.57
2825.24,1072.38
2826.69,1077.07
2828.14,1073.05
2829.59,1059.56
2831.04,1064.97
2832.49,1042.33
2833.94,1045.29
2835.39,1059.85
2836.84,1048.6
2838.29,1023.43
2839.74,1017.04
2841.19,1023.83
2842.64,1041.53
2844.09,1037.16
2845.54,1028.05
2846.99,1002.99
2848.44,1043.24
2849.89,1030.08
2851.34,1027.54
2852.79,1031.71
2854.24,1028.81
2855.69,1023.22
2857.14,1021.46
2858.59,1023.3
2860.04,1001.06
2861.49,1042.59
2862.94,1000.51
2864.39,1010.19
2865.84,1027.22
2867.3,1030.84
2868.75,1013.27
2870.2,1011.38
2871.65,1007.95
2873.1,1002.13
2874.55,993.629
2876,990.4
2877.45,1012.99
2878.9,1018.09
2880.35,985.831
2881.8,989.48
2883.25,1006.66
2884.7,1010.35
2886.15,1007.09
2887.6,1002.07
2889.05,1007.85
2890.5,1014.92
2891.95,1001.01
2893.4,1003.35
2894.85,996.163
2896.3,1000.27
2897.75,999.715
2899.2,1001.43
2900.65,1003.35
2902.1,1001.52
2903.55,985.811
2905,992.122
2906.45,999.245
2907.9,991.31
2909.35,986.329
2910.8,981.222
2912.26,969.452
2913.71,979.608
2915.16,968.92
2916.61,974.785
2918.06,954.43
2919.51,979.05
2920.96,967.369
2922.41,980.635
2923.86,967.583
2925.31,959.969
2926.76,969.536
2928.21,964.02
2929.66,957.11
2931.11,948.678
2932.56,948.735
2934.01,947.041
2935.46,928.298
2936.91,926.765
2938.36,927.277
2939.81,925.82
2941.26,920.288
2942.71,915.872
2944.16,928.98
2945.61,926.064
2947.06,909.261
2948.51,908.994
2949.96,899.694
2951.41,907.818
2952.86,913.105
2954.31,908.605
2955.77,889.089
2957.22,887.893
2958.67,877.268
2960.12,894.844
2961.57,870.823
2963.02,885.603
2964.47,881.021
2965.92,884.468
2967.37,878.089
2968.82,877.893
2970.27,874.246
2971.72,874.128
2973.17,863.818
2974.62,862.267
2976.07,855.112
2977.52,851.152
2978.97,853.079
2980.42,859.547
2981.87,851.806
2983.32,852.848
2984.77,848.466
2986.22,852.234
2987.67,850.629
2989.12,863.43
2990.57,852.165
2992.02,854.884
2993.47,855.386
2994.92,856.373
2996.37,846.176
2997.82,856.494
2999.27,863.588
3000.73,842.95
3002.18,850.904
3003.63,829.565
3005.08,851.918
3006.53,854.226
3007.98,850.631
3009.43,851.955
3010.88,843.76
3012.33,834.984
3013.78,824.386
3015.23,834.086
3016.68,842.321
3018.13,851.111
3019.58,823.489
3021.03,822.984
3022.48,828.095
3023.93,837.429
3025.38,843.117
3026.83,848.017
3028.28,846.298
3029.73,852.036
3031.18,842.323
3032.63,832.159
3034.08,852.726
3035.53,832.163
3036.98,839.331
3038.43,818.713
3039.88,831.798
3041.33,866.618
3042.78,862.749
3044.23,843.881
3045.69,843.809
3047.14,837.826
3048.59,833.601
3050.04,841.252
3051.49,819.991
3052.94,840.224
3054.39,843.522
3055.84,828.326
3057.29,845.823
3058.74,850.434
3060.19,873.296
3061.64,855.751
3063.09,868.15
3064.54,860.212
3065.99,854.22
3067.44,861.068
3068.89,870.601
3070.34,869.453
3071.79,855.252
3073.24,872.568
3074.69,880.701
3076.14,887.707
3077.59,887.27
3079.04,899.024
3080.49,908.324
3081.94,907.329
3083.39,876.617
3084.84,901.969
3086.29,924.121
3087.74,902.386
3089.2,918.938
3090.65,930.916
3092.1,951.738
3093.55,940.254
3095,944.054
3096.45,944.317
3097.9,951.56
3099.35,947.11
3100.8,952.563
3102.25,976.463
3103.7,964.468
3105.15,1000.52
3106.6,1007.49
3108.05,1006.97
3109.5,1003.66
3110.95,1019.34
3112.4,1030.61
3113.85,1040.43
3115.3,1007.86
3116.75,1037.18
3118.2,1074.48
3119.65,1066.4
3121.1,1083.51
3122.55,1101.27
3124,1095.28
3125.45,1095.03
3126.9,1114.85
3128.35,1117.04
3129.8,1103.86
3131.25,1126.04
3132.7,1127.71
3134.16,1120.01
3135.61,1128.83
3137.06,1115.36
3138.51,1123.16
3139.96,1157.73
3141.41,1161.83
3142.86,1162.95
3144.31,1165.22
3145.76,1151.5
3147.21,1162.76
3148.66,1197.22
3150.11,1186.79
3151.56,1173.49
3153.01,1175.31
3154.46,1184.1
3155.91,1168.37
3157.36,1196.53
3158.81,1189.32
3160.26,1203.28
3161.71,1197.86
3163.16,1190.08
3164.61,1203.52
3166.06,1194
3167.51,1205.21
3168.96,1210.3
3170.41,1238.74
3171.86,1257.34
3173.31,1240.43
3174.76,1245.86
3176.21,1250.79
3177.67,1250.66
3179.12,1276.77
3180.57,1266.89
3182.02,1269.49
3183.47,1289.49
3184.92,1294.1
3186.37,1304.24
3187.82,1302.11
3189.27,1288.47
3190.72,1297.28
3192.17,1297.47
3193.62,1296.16
3195.07,1289.24
3196.52,1284.19
3197.97,1286.39
3199.42,1282.9
3200.87,1258.49
3202.32,1279.89
3203.77,1248.21
3205.22,1227.89
3206.67,1212.24
3208.12,1262.79
3209.57,1222.72
3211.02,1195.68
3212.47,1183.13
3213.92,1189.21
3215.37,1178.59
3216.82,1160.5
3218.27,1165.96
3219.72,1143.82
3221.17,1130.59
3222.63,1119.13
3224.08,1116.15
3225.53,1097
3226.98,1066.55
3228.43,1063.49
3229.88,1048.43
3231.33,1032.05
3232.78,1006.2
3234.23,1000.28
3235.68,980.107
3237.13,943.577
3238.58,974.384
3240.03,974.995
3241.48,953.502
3242.93,936.318
3244.38,927.381
3245.83,904.872
3247.28,896.613
3248.73,894.461
3250.18,906.236
3251.63,891.5
3253.08,874.916
3254.53,872.424
3255.98,851.536
3257.43,844.942
3258.88,855.735
3260.33,840.441
3261.78,858.743
3263.23,850.521
3264.68,827.221
3266.13,845.842
3267.59,863.523
3269.04,839.503
3270.49,829.387
3271.94,845.039
3273.39,822.698
3274.84,812.317
3276.29,844.832
3277.74,809.525
3279.19,814.262
3280.64,831.784
3282.09,829.747
3283.54,824.027
3284.99,807.887
3286.44,814.034
3287.89,819.406
3289.34,798.191
3290.79,812.275
3292.24,816.676
3293.69,814.845
3295.14,813.354
3296.59,811.742
3298.04,802.424
3299.49,813.638
3300.94,811.114
3302.39,829.529
3303.84,807.448
3305.29,804.477
3306.74,814.353
3308.19,808.756
3309.64,810.431
3311.09,818.938
3312.55,814.887
3314,830.57
3315.45,817.93
3316.9,811.199
3318.35,805.65
3319.8,800.395
3321.25,813.853
3322.7,802.881
3324.15,803.012
3325.6,821.373
3327.05,821.456
3328.5,801.353
3329.95,808.753
3331.4,826.725
3332.85,808.224
3334.3,807.512
3335.75,801.365
3337.2,806.081
3338.65,796.167
3340.1,813.837
3341.55,800.312
3343,801.515
3344.45,798.978
3345.9,803.905
3347.35,765.991
3348.8,806.038
3350.25,810.715
3351.7,819.031
3353.15,818.704
3354.6,809.979
3356.06,804.586
3357.51,819.441
3358.96,785.171
3360.41,792.909
3361.86,797.651
3363.31,809.244
3364.76,787.537
3366.21,800.736
3367.66,821.076
3369.11,817.486
3370.56,812.741
3372.01,814.953
3373.46,792.53
3374.91,820.97
3376.36,823.814
3377.81,813.004
3379.26,797.874
3380.71,824.354
3382.16,831.026
3383.61,818.545
3385.06,812.047
3386.51,803.508
3387.96,814.307
3389.41,833.58
3390.86,831.609
3392.31,804.219
3393.76,812.695
3395.21,820.366
3396.66,794.114
3398.11,820.024
3399.56,816.757
3401.02,817.621
3402.47,816.792
3403.92,806.934
3405.37,819.857
3406.82,800.326
3408.27,829.256
3409.72,814.434
3411.17,817.771
3412.62,802.558
3414.07,825.965
3415.52,801.805
3416.97,822.882
3418.42,821.72
3419.87,814.71
3421.32,810.651
3422.77,809.947
3424.22,819.556
3425.67,836.027
3427.12,845.106
3428.57,820.399
3430.02,824.35
3431.47,819.141
3432.92,804.011
3434.37,816.252
3435.82,827.578
3437.27,829.004
3438.72,833.496
3440.17,815.397
3441.62,819.992
3443.07,823.716
3444.52,832.667
3445.98,822.253
3447.43,798.807
3448.88,807.307
3450.33,812.892
3451.78,819.869
3453.23,834.948
3454.68,817.777
3456.13,822.527
3457.58,843.239
3459.03,822.368
3460.48,817.576
3461.93,819.436
3463.38,812.384
3464.83,828.902
3466.28,828.404
3467.73,808.939
3469.18,835.225
3470.63,827.309
3472.08,823.708
3473.53,819.082
3474.98,826.226
3476.43,802.19
3477.88,840.6
3479.33,830.523
3480.78,827.989
3482.23,836.931
3483.68,832.171
3485.13,824.006
3486.58,829.946
3488.03,818.79
3489.49,818.613
3490.94,820.052
3492.39,821.358
3493.84,833.706
3495.29,819.358
3496.74,830.016
3498.19,818.421
3499.64,847.567
3501.09,818.962
3502.54,846.358
3503.99,835.957
3505.44,821.758
3506.89,841.478
3508.34,838.965
3509.79,852.503
3511.24,847.943
3512.69,846.714
3514.14,835.945
3515.59,844.134
3517.04,870.584
3518.49,849.844
3519.94,835.846
3521.39,819.435
3522.84,857.094
3524.29,838.654
3525.74,828.864
3527.19,849.892
3528.64,840.813
3530.09,846.363
3531.54,827.363
3532.99,829.748
3534.45,839.156
3535.9,859.061
3537.35,837.395
3538.8,837.717
3540.25,823.105
3541.7,826.172
3543.15,830.82
3544.6,837.259
3546.05,861.052
3547.5,851.77
3548.95,858.733
3550.4,854.125
3551.85,854.129
3553.3,827.056
3554.75,833.429
3556.2,834.518
3557.65,850.306
3559.1,842.283
3560.55,837.855
3562,827.388
3563.45,856.453
3564.9,854.154
3566.35,838.31
3567.8,858.134
3569.25,843.08
3570.7,852.715
3572.15,854.823
3573.6,858.3
3575.05,853.307
3576.5,829.197
3577.96,826.663
3579.41,847.65
3580.86,840.884
3582.31,852.357
3583.76,859.18
3585.21,857.176
3586.66,850.12
3588.11,863.242
3589.56,845.808
3591.01,860.197
3592.46,870.078
3593.91,847.045
3595.36,849.986
3596.81,862.719
3598.26,858.144
3599.71,842.732
3601.16,854.59
3602.61,864.36
3604.06,853.642
3605.51,851.804
3606.96,850.325
3608.41,863.442
3609.86,855.993
3611.31,866.245
3612.76,846.957
3614.21,845.91
3615.66,880.159
3617.11,853.584
3618.56,863.38
3620.01,856.289
3621.46,866.331
3622.92,865.13
3624.37,865.713
3625.82,865.941
3627.27,869.043
3628.72,843.359
3630.17,856.252
3631.62,868.221
3633.07,849.634
3634.52,866.327
3635.97,868.192
3637.42,866.154
3638.87,873.284
3640.32,849.562
3641.77,884.122
3643.22,885.834
3644.67,872.186
3646.12,872.723
3647.57,875.387
3649.02,871.114
3650.47,881.31
3651.92,874.133
3653.37,882.564
3654.82,877.881
3656.27,873.434
3657.72,869.749
3659.17,882.66
3660.62,889.605
3662.07,881.29
3663.52,878.942
3664.97,883.02
3666.43,877.612
3667.88,893.727
3669.33,867.298
3670.78,871.458
3672.23,881.458
3673.68,890.066
3675.13,890.187
3676.58,893.651
3678.03,880.069
3679.48,893.797
3680.93,900.123
3682.38,880.656
3683.83,879.61
3685.28,878.056
3686.73,898.64
3688.18,891.358
3689.63,893.41
3691.08,885.134
3692.53,899.008
3693.98,889.168
3695.43,898.01
3696.88,888.799
3698.33,878.691
3699.78,878.775
3701.23,889.685
3702.68,893.374
3704.13,909.486
3705.58,893.2
3707.03,909.319
3708.48,892.148
3709.93,888.056
3711.39,898.213
3712.84,875.453
3714.29,904.399
3715.74,895.767
3717.19,897.86
3718.64,903.724
3720.09,897.193
3721.54,896.784
3722.99,896.764
3724.44,901.483
3725.89,891.406
3727.34,880.683
3728.79,883.794
3730.24,880.109
3731.69,906.915
3733.14,903.611
3734.59,906.304
3736.04,894.846
3737.49,897.95
3738.94,908.929
3740.39,924.729
3741.84,894.028
3743.29,920.638
3744.74,928.768
3746.19,903.236
3747.64,914.069
3749.09,922.647
3750.54,899.294
3751.99,903.537
3753.44,909.263
3754.89,911.386
3756.35,920.471
3757.8,916.003
3759.25,915.433
3760.7,916.183
3762.15,912.997
3763.6,902.449
3765.05,919.025
3766.5,918.467
3767.95,923.778
3769.4,920.584
3770.85,917.485
3772.3,909.197
3773.75,910.77
3775.2,917.573
3776.65,914.599
3778.1,928.581
3779.55,915.447
3781,930.005
3782.45,941.15
3783.9,924.452
3785.35,910.514
3786.8,945.346
3788.25,910.192
3789.7,928.083
3791.15,913.33
3792.6,941.491
3794.05,922.74
3795.5,910.735
3796.95,918.145
3798.4,908.279
3799.85,929.239
3801.31,929.743
3802.76,911.021
3804.21,951.934
3805.66,948.293
3807.11,949.02
3808.56,939.957
3810.01,948.059
3811.46,954.647
3812.91,952.593
3814.36,938.475
3815.81,939.208
3817.26,943.532
3818.71,942.846
3820.16,952.445
3821.61,954.769
3823.06,937.104
3824.51,931.312
3825.96,949.729
3827.41,950.559
3828.86,948.947
3830.31,958.296
3831.76,949.215
3833.21,955.059
3834.66,969.334
3836.11,967.126
3837.56,961.185
3839.01,954.669
3840.46,955.059
3841.91,946.682
3843.36,945.061
3844.82,918.367
3846.27,951.539
3847.72,963.834
3849.17,961.653
3850.62,978.097
3852.07,966.424
3853.52,961.183
3854.97,962.599
3856.42,961.375
3857.87,961.196
3859.32,970.945
3860.77,966.536
3862.22,964.854
3863.67,976.219
3865.12,974.228
3866.57,964.97
3868.02,965.259
3869.47,986.467
3870.92,964.583
3872.37,959.645
3873.82,974.92
3875.27,994.578
3876.72,1005.11
3878.17,1000.56
3879.62,974.691
3881.07,980.645
3882.52,979.911
3883.97,982.582
3885.42,993.58
3886.87,992.758
3888.32,1001.12
3889.78,986.526
3891.23,995.194
3892.68,990.488
3894.13,988.287
3895.58,996.32
3897.03,1008.76
3898.48,1010.85
3899.93,1018.43
3901.38,1013.22
3902.83,992.885
3904.28,1015.3
3905.73,1017.73
3907.18,1018.81
3908.63,1000.76
3910.08,1013.21
3911.53,1009.43
3912.98,1025.92
3914.43,1017.37
3915.88,1019
3917.33,1007.96
3918.78,1000.35
3920.23,1020.47
3921.68,1026.9
3923.13,1040.67
3924.58,1022.81
3926.03,1031.54
3927.48,1027.36
3928.93,1063.26
3930.38,1026.43
3931.83,1031.44
3933.28,1035.92
3934.74,1041.02
3936.19,1059.18
3937.64,1047.46
3939.09,1031.32
3940.54,1059.86
3941.99,1048.29
3943.44,1040.75
3944.89,1045.58
3946.34,1056.3
3947.79,1067.62
3949.24,1059.83
3950.69,1063.33
3952.14,1069.62
3953.59,1075.35
3955.04,1078.84
3956.49,1047.5
3957.94,1083.28
3959.39,1058.88
3960.84,1056.19
3962.29,1064.7
3963.74,1059.34
3965.19,1050.71
3966.64,1090.93
3968.09,1065.95
3969.54,1086.11
3970.99,1060.91
3972.44,1081.84
3973.89,1078.17
3975.34,1102.11
3976.79,1096.47
3978.25,1103.6
3979.7,1100.9
3981.15,1089.56
3982.6,1095.99
3984.05,1106.15
3985.5,1111.06
3986.95,1125.68
3988.4,1106.94
3989.85,1111.82
3991.3,1107.4
3992.75,1114.55
3994.2,1128.01
3995.65,1104.31
3997.1,1159.71
3998.55,1112.06
4000,1114.44
