-20,65.8573
-18.5482,65.2934
-17.0964,63.4406
-15.6446,67.2393
-14.1928,70.9347
-12.7411,75.9522
-11.2893,80.4263
-9.83749,84.6816
-8.3857,88.5471
-6.93391,114.97
-5.48212,536.14
-4.03034,4870.41
-2.57855,17419.6
-1.12676,31095.6
0.325027,41627.3
1.77681,39583.6
3.2286,25383.3
4.68039,7341.66
6.13218,1251.9
7.58397,226.433
9.03575,141.283
10.4875,131.437
11.9393,130.704
13.3911,130.156
14.8429,128.412
16.2947,126.355
17.7465,123.172
19.1983,117.353
20.6501,112.353
22.1018,106.704
23.5536,102.564
25.0054,99.6261
26.4572,93.4017
27.909,86.021
29.3608,79.9349
30.8126,70.8333
32.2644,69.2203
33.7161,68.1366
35.1679,67.1507
36.6197,67.1511
38.0715,64.4954
39.5233,64.4352
40.9751,67.0395
42.4269,70.0408
43.8787,70.3657
45.3304,76.967
46.7822,90.6924
48.234,111.966
49.6858,155.293
51.1376,241.122
52.5894,408.238
54.0412,638.1
55.493,921.75
56.9447,1228.06
58.3965,1576.65
59.8483,1857.96
61.3001,2110.18
62.7519,2303.7
64.2037,2440.73
65.6555,2489.51
67.1073,2566.51
68.559,2623.01
70.0108,2651.24
71.4626,2671.29
72.9144,2683.4
74.3662,2704.61
75.818,2752.75
77.2698,2784.78
78.7216,2844.7
80.1733,2939.71
81.6251,2993.79
83.0769,3059.29
84.5287,3100.94
85.9805,3083.37
87.4323,3009.06
88.8841,2906.09
90.3359,2782.35
91.7877,2639.9
93.2394,2494.57
94.6912,2371.55
96.143,2243.91
97.5948,2136.01
99.0466,2075.7
100.498,2049.42
101.95,1993.42
103.402,1938.39
104.854,1914.01
106.306,1900.94
107.757,1871.43
109.209,1833.88
110.661,1790.41
112.113,1767.99
113.564,1766.52
115.016,1736.89
116.468,1695.56
117.92,1672.19
119.372,1658.42
120.823,1612.44
122.275,1626.33
123.727,1593.83
125.179,1545.41
126.631,1521.99
128.082,1520.26
129.534,1480.95
130.986,1455.61
132.438,1439.81
133.889,1415.66
135.341,1389.49
136.793,1357.66
138.245,1338.35
139.697,1338.39
141.148,1341.84
142.6,1327.49
144.052,1328.24
145.504,1324.07
146.956,1312.95
148.407,1287.38
149.859,1260.37
151.311,1238.71
152.763,1242.46
154.215,1243.14
155.666,1231.77
157.118,1178.56
158.57,1154.78
160.022,1152.23
161.473,1150.92
162.925,1130.91
164.377,1138.22
165.829,1142.15
167.281,1130.46
168.732,1110.84
170.184,1124.14
171.636,1100.29
173.088,1072.2
174.54,1063.75
175.991,1067.15
177.443,1016.25
178.895,1024.3
180.347,1024.29
181.798,1013.8
183.25,987.983
184.702,1004.56
186.154,998.611
187.606,989.901
189.057,973.799
190.509,958.094
191.961,943.729
193.413,952.829
194.865,971.373
196.316,972.538
197.768,956.531
199.22,952.21
200.672,953.386
202.124,960.98
203.575,950.949
205.027,922.99
206.479,920.118
207.931,928.106
209.382,925.11
210.834,926.975
212.286,947.072
213.738,937.014
215.19,926.126
216.641,937.168
218.093,953.445
219.545,962.456
220.997,962.532
222.449,919.227
223.9,930.327
225.352,942.397
226.804,938.678
228.256,911.327
229.707,915.47
231.159,928.798
232.611,929.287
234.063,935.731
235.515,933.739
236.966,941.185
238.418,938.701
239.87,934.25
241.322,930.502
242.774,921.903
244.225,919.337
245.677,919.996
247.129,924.18
248.581,913.912
250.033,893.445
251.484,904.937
252.936,882.691
254.388,870.18
255.84,879.577
257.291,894.411
258.743,878.552
260.195,874.946
261.647,872.667
263.099,876.219
264.55,876.448
266.002,860.777
267.454,867.659
268.906,875.285
270.358,877.821
271.809,865.918
273.261,846.052
274.713,854.03
276.165,854.131
277.616,848.437
279.068,839.959
280.52,838.131
281.972,831.371
283.424,809.43
284.875,797.127
286.327,802.719
287.779,807.239
289.231,807.159
290.683,811.769
292.134,807.017
293.586,788.02
295.038,766.578
296.49,783.648
297.941,782.572
299.393,777.127
300.845,773.759
302.297,769.484
303.749,766.881
305.2,753.898
306.652,754.038
308.104,750.085
309.556,733.331
311.008,744.227
312.459,759.526
313.911,741.494
315.363,734.735
316.815,742.67
318.267,713.692
319.718,735.056
321.17,731.39
322.622,733.576
324.074,737.013
325.525,726.879
326.977,736.673
328.429,737.448
329.881,710.665
331.333,692.059
332.784,711.192
334.236,704.103
335.688,687.624
337.14,707.294
338.592,714.685
340.043,700.426
341.495,695.116
342.947,706.752
344.399,702.834
345.85,693.759
347.302,693.464
348.754,701.257
350.206,694.812
351.658,687.42
353.109,687.634
354.561,692.254
356.013,691.157
357.465,668.581
358.917,671.986
360.368,674.635
361.82,674.21
363.272,677.069
364.724,684.984
366.176,672.722
367.627,663.356
369.079,664.915
370.531,675.947
371.983,679.71
373.434,662.056
374.886,665.19
376.338,669.126
377.79,669.642
379.242,665.151
380.693,670.259
382.145,646.53
383.597,657.571
385.049,671.624
386.501,681.328
387.952,684.006
389.404,674.523
390.856,664.095
392.308,664.892
393.759,668.995
395.211,670.155
396.663,656.696
398.115,676.318
399.567,668.73
401.018,658.209
402.47,653.745
403.922,664.966
405.374,664.585
406.826,667.132
408.277,665.966
409.729,663.854
411.181,665.627
412.633,677.362
414.085,667.876
415.536,656.411
416.988,659.828
418.44,668.394
419.892,665.478
421.343,686.865
422.795,663.058
424.247,653.92
425.699,655.62
427.151,658.13
428.602,653.049
430.054,643.262
431.506,665.023
432.958,668.577
434.41,661.901
435.861,666.185
437.313,645.43
438.765,644.721
440.217,670.35
441.668,681.849
443.12,668.744
444.572,638.083
446.024,660.845
447.476,649.934
448.927,646.664
450.379,647.545
451.831,648.866
453.283,654.398
454.735,635.182
456.186,641.691
457.638,650.923
459.09,657.894
460.542,660.023
461.993,658.174
463.445,657.713
464.897,646.41
466.349,647.758
467.801,652.627
469.252,636.082
470.704,638.277
472.156,648.096
473.608,658.035
475.06,655.198
476.511,637.34
477.963,632.75
479.415,646.691
480.867,654.566
482.319,650.159
483.77,636.427
485.222,626.461
486.674,645.728
488.126,656.594
489.577,645.16
491.029,639.037
492.481,637.678
493.933,621.294
495.385,623.607
496.836,623.658
498.288,633.796
499.74,633.54
501.192,623.79
502.644,619.122
504.095,625.198
505.547,631.375
506.999,636.429
508.451,635.037
509.902,625.294
511.354,637.135
512.806,622.945
514.258,625.555
515.71,630.002
517.161,632.791
518.613,624.541
520.065,604.852
521.517,629.58
522.969,629.365
524.42,617.677
525.872,607.401
527.324,616.402
528.776,617.699
530.228,627.016
531.679,638.84
533.131,629.236
534.583,617.114
536.035,621.876
537.486,642.969
538.938,636.49
540.39,621.281
541.842,619.049
543.294,624.736
544.745,630.573
546.197,629.833
547.649,625.439
549.101,618.168
550.553,630.086
552.004,638.77
553.456,624.091
554.908,626.263
556.36,615.105
557.811,616.32
559.263,619.534
560.715,628.256
562.167,631.101
563.619,651.327
565.07,633.679
566.522,630.783
567.974,634.163
569.426,625.555
570.878,613.747
572.329,625.396
573.781,612.068
575.233,623.065
576.685,631.503
578.137,631.034
579.588,616.817
581.04,609.068
582.492,620.848
583.944,614.945
585.395,616.396
586.847,621.302
588.299,619.712
589.751,616.214
591.203,615.076
592.654,609.438
594.106,617.299
595.558,628.122
597.01,623.02
598.462,611.976
599.913,622.531
601.365,606.023
602.817,604.296
604.269,619.339
605.72,617.866
607.172,631.715
608.624,635.596
610.076,637.151
611.528,626.045
612.979,614.456
614.431,616.902
615.883,607.055
617.335,613.588
618.787,621.433
620.238,634.647
621.69,630.913
623.142,609.654
624.594,626.898
626.046,624.447
627.497,632.029
628.949,627.083
630.401,630.646
631.853,635.932
633.304,615.817
634.756,609.798
636.208,625.28
637.66,628.77
639.112,630.961
640.563,635.718
642.015,632.441
643.467,624.99
644.919,629.007
646.371,640.266
647.822,644.674
649.274,642.895
650.726,642.035
652.178,651.287
653.629,627.437
655.081,629.526
656.533,641.299
657.985,647.695
659.437,646.241
660.888,654.63
662.34,642.848
663.792,634.344
665.244,640.888
666.696,641.209
668.147,640.446
669.599,661.804
671.051,665.632
672.503,645.06
673.954,643.951
675.406,643.027
676.858,636.935
678.31,649.953
679.762,666.926
681.213,653.944
682.665,640.712
684.117,638.993
685.569,650.462
687.021,670.851
688.472,670.885
689.924,658.842
691.376,653.209
692.828,658.651
694.28,666.048
695.731,657.797
697.183,656.693
698.635,642.534
700.087,643.652
701.538,646.88
702.99,648.487
704.442,645.102
705.894,651.226
707.346,668.626
708.797,674.075
710.249,658.567
711.701,662.04
713.153,662.358
714.605,650.078
716.056,653.175
717.508,654.465
718.96,669.727
720.412,659.965
721.863,653.045
723.315,656.497
724.767,661.21
726.219,661.553
727.671,662.617
729.122,645.055
730.574,643.383
732.026,649.296
733.478,664.604
734.93,674.534
736.381,667.732
737.833,649.526
739.285,656.232
740.737,658.046
742.189,660.527
743.64,667.016
745.092,663.123
746.544,661.539
747.996,670.64
749.447,660.166
750.899,669.504
752.351,670.761
753.803,653.786
755.255,663.292
756.706,654.465
758.158,653.557
759.61,672.606
761.062,678.93
762.514,680.888
763.965,674.438
765.417,661.907
766.869,663.01
768.321,672.084
769.772,669.321
771.224,673.448
772.676,677.472
774.128,661.097
775.58,665.486
777.031,655.304
778.483,667.433
779.935,657.154
781.387,653.721
782.839,663.473
784.29,669.459
785.742,675.787
787.194,689.965
788.646,679.68
790.098,684.084
791.549,686.263
793.001,681.231
794.453,689.363
795.905,680.753
797.356,664.413
798.808,666.196
800.26,660.26
801.712,668.071
803.164,686.1
804.615,687.436
806.067,694.511
807.519,676.595
808.971,682.247
810.423,681.519
811.874,681.999
813.326,676.063
814.778,687.323
816.23,689.175
817.681,689.384
819.133,679.077
820.585,691.581
822.037,693.131
823.489,685.06
824.94,680.885
826.392,695.06
827.844,702.432
829.296,707.058
830.748,709.477
832.199,711.542
833.651,700.856
835.103,703.135
836.555,705.196
838.007,704.538
839.458,699.81
840.91,705.734
842.362,710.889
843.814,715.248
845.265,699.975
846.717,697.132
848.169,719.963
849.621,738.592
851.073,741.542
852.524,734.041
853.976,731.859
855.428,726.179
856.88,729.54
858.332,726.342
859.783,733.89
861.235,735.769
862.687,728.501
864.139,722.037
865.59,718.367
867.042,721.74
868.494,713.647
869.946,712.911
871.398,727.154
872.849,720.068
874.301,699.348
875.753,706.558
877.205,711.009
878.657,721.707
880.108,716.576
881.56,718.296
883.012,719.163
884.464,723.005
885.915,724.78
887.367,727.126
888.819,722.393
890.271,741.893
891.723,733.295
893.174,748.611
894.626,744.156
896.078,732.426
897.53,738.705
898.982,740.034
900.433,735.435
901.885,749.208
903.337,726.859
904.789,734.235
906.241,751.82
907.692,754.222
909.144,740.007
910.596,736.558
912.048,751.916
913.499,752.294
914.951,754.539
916.403,754.61
917.855,753.326
919.307,760.857
920.758,763.514
922.21,760.951
923.662,767.883
925.114,770.71
926.566,770.04
928.017,761.511
929.469,756.105
930.921,766.436
932.373,766.606
933.824,765.676
935.276,764.969
936.728,789.395
938.18,781.78
939.632,769.953
941.083,778.132
942.535,748.942
943.987,774.009
945.439,779.012
946.891,765.889
948.342,765.278
949.794,765.113
951.246,767.113
952.698,771.749
954.15,766.225
955.601,772.201
957.053,775.643
958.505,769.277
959.957,780.472
961.408,775.499
962.86,757.455
964.312,760.876
965.764,789.538
967.216,767.588
968.667,771.286
970.119,778.47
971.571,777.471
973.023,767.067
974.475,766.186
975.926,783.557
977.378,782.937
978.83,771.151
980.282,776.218
981.733,773.153
983.185,783.205
984.637,792.943
986.089,783.424
987.541,785.081
988.992,779.319
990.444,783.574
991.896,791.212
993.348,777.609
994.8,783.604
996.251,806.389
997.703,805.95
999.155,792.236
1000.61,810.51
1002.06,809.128
1003.51,812.095
1004.96,806.219
1006.41,810.423
1007.87,809.055
1009.32,826.85
1010.77,830.598
1012.22,814.558
1013.67,840.593
1015.12,818.516
1016.58,830.719
1018.03,836.895
1019.48,840.411
1020.93,842.689
1022.38,833.697
1023.84,843.159
1025.29,865.237
1026.74,877.684
1028.19,873.967
1029.64,876.404
1031.09,893.872
1032.55,899.611
1034,886.842
1035.45,896.496
1036.9,908.939
1038.35,904.258
1039.8,904.827
1041.26,911.757
1042.71,919.198
1044.16,941.691
1045.61,945.901
1047.06,927.234
1048.52,934.103
1049.97,961.263
1051.42,946.132
1052.87,959.235
1054.32,975.39
1055.77,957.275
1057.23,958.44
1058.68,994.515
1060.13,983.74
1061.58,1012.65
1063.03,1006.99
1064.49,1012.77
1065.94,1031.45
1067.39,1043.99
1068.84,1036.76
1070.29,1046.35
1071.74,1060.38
1073.2,1056.07
1074.65,1080.72
1076.1,1075.28
1077.55,1106.83
1079,1102.74
1080.46,1096.32
1081.91,1106.36
1083.36,1117.66
1084.81,1096.21
1086.26,1126.07
1087.71,1121.41
1089.17,1100.07
1090.62,1106.54
1092.07,1113.14
1093.52,1088.24
1094.97,1074.19
1096.42,1119.96
1097.88,1123.97
1099.33,1086.87
1100.78,1091.43
1102.23,1092.29
1103.68,1088.05
1105.14,1092.25
1106.59,1084.47
1108.04,1069.33
1109.49,1061.15
1110.94,1085.14
1112.39,1077.34
1113.85,1071.36
1115.3,1051.9
1116.75,1044.68
1118.2,1041.62
1119.65,1038.9
1121.11,1047.56
1122.56,1033.65
1124.01,1040.03
1125.46,1005.6
1126.91,1023.72
1128.36,1005.21
1129.82,1001.7
1131.27,1011.26
1132.72,1019.7
1134.17,1019.02
1135.62,1007.69
1137.07,1004.71
1138.53,999.405
1139.98,1001.77
1141.43,999.677
1142.88,986.172
1144.33,997.17
1145.79,1008.56
1147.24,988.678
1148.69,971.467
1150.14,997.595
1151.59,1000.91
1153.04,1007.14
1154.5,998.466
1155.95,997.274
1157.4,997.78
1158.85,991.754
1160.3,996.712
1161.76,1007.65
1163.21,993.166
1164.66,999.081
1166.11,1001.88
1167.56,990.315
1169.01,987.547
1170.47,998.915
1171.92,1010.62
1173.37,1003.26
1174.82,1006.12
1176.27,998.825
1177.72,1010.23
1179.18,1018.76
1180.63,1032.97
1182.08,1026.4
1183.53,1012.02
1184.98,1011.08
1186.44,1011.78
1187.89,1014.97
1189.34,1026.54
1190.79,1014.37
1192.24,1034.43
1193.69,1014.1
1195.15,1025.88
1196.6,1032.16
1198.05,1039.8
1199.5,1041.13
1200.95,1046.08
1202.41,1056.36
1203.86,1044.57
1205.31,1056.93
1206.76,1067.79
1208.21,1063.91
1209.66,1052.75
1211.12,1047.15
1212.57,1054.23
1214.02,1060.56
1215.47,1060.41
1216.92,1052.19
1218.37,1077.71
1219.83,1079.68
1221.28,1073.83
1222.73,1087.67
1224.18,1079.15
1225.63,1061.23
1227.09,1056.98
1228.54,1083.49
1229.99,1099.13
1231.44,1072.52
1232.89,1066.58
1234.34,1103.35
1235.8,1097.58
1237.25,1093.74
1238.7,1107.63
1240.15,1114.92
1241.6,1108.85
1243.06,1110.57
1244.51,1129.45
1245.96,1127.65
1247.41,1147.33
1248.86,1162.85
1250.31,1153.27
1251.77,1138.05
1253.22,1152.21
1254.67,1164.15
1256.12,1176.68
1257.57,1202.37
1259.02,1211.95
1260.48,1214
1261.93,1231.56
1263.38,1210.28
1264.83,1252.12
1266.28,1249.56
1267.74,1245.13
1269.19,1265.5
1270.64,1289.91
1272.09,1304.19
1273.54,1321.25
1274.99,1331.39
1276.45,1346.52
1277.9,1361.95
1279.35,1403.88
1280.8,1374.14
1282.25,1411
1283.71,1443.66
1285.16,1469.26
1286.61,1489.86
1288.06,1510.84
1289.51,1553.97
1290.96,1607.07
1292.42,1600.85
1293.87,1657.03
1295.32,1699.33
1296.77,1730.89
1298.22,1794.2
1299.67,1860.29
1301.13,1918.52
1302.58,1962.24
1304.03,2004.26
1305.48,2072.86
1306.93,2161.27
1308.39,2225.3
1309.84,2343.16
1311.29,2430.42
1312.74,2517.39
1314.19,2641.03
1315.64,2763.63
1317.1,2867.72
1318.55,2988.87
1320,3122.93
1321.45,3231.36
1322.9,3360.25
1324.36,3499.42
1325.81,3640.89
1327.26,3793.36
1328.71,3858.5
1330.16,3928.04
1331.61,4038.96
1333.07,4119.4
1334.52,4165.38
1335.97,4237.13
1337.42,4214.34
1338.87,4189.92
1340.33,4124.69
1341.78,4089.22
1343.23,3974.87
1344.68,3848.24
1346.13,3753.44
1347.58,3645.33
1349.04,3514.43
1350.49,3369.92
1351.94,3207.23
1353.39,3095.25
1354.84,2985.49
1356.29,2802.46
1357.75,2708.61
1359.2,2597.39
1360.65,2505.41
1362.1,2394.19
1363.55,2289.16
1365.01,2231.48
1366.46,2152.48
1367.91,2048.72
1369.36,2004.92
1370.81,1936.37
1372.26,1872.53
1373.72,1864.35
1375.17,1818.06
1376.62,1788.48
1378.07,1738.69
1379.52,1694.48
1380.98,1665.15
1382.43,1633.91
1383.88,1623.52
1385.33,1598.67
1386.78,1567.52
1388.23,1567.48
1389.69,1536.96
1391.14,1513.9
1392.59,1516.33
1394.04,1514.4
1395.49,1482.99
1396.94,1462.12
1398.4,1453.65
1399.85,1450.36
1401.3,1448.18
1402.75,1441.61
1404.2,1446.34
1405.66,1448.07
1407.11,1425.66
1408.56,1435.82
1410.01,1421.4
1411.46,1436.48
1412.91,1447.17
1414.37,1421.1
1415.82,1426.35
1417.27,1433.46
1418.72,1442.26
1420.17,1441.75
1421.63,1442.25
1423.08,1448.65
1424.53,1447.55
1425.98,1439.32
1427.43,1478.15
1428.88,1442.32
1430.34,1466.73
1431.79,1465.1
1433.24,1474.56
1434.69,1470.14
1436.14,1485.35
1437.59,1509.96
1439.05,1506.19
1440.5,1520.78
1441.95,1510.02
1443.4,1511.1
1444.85,1510.08
1446.31,1525.57
1447.76,1524.4
1449.21,1529.66
1450.66,1552.23
1452.11,1578.49
1453.56,1593.79
1455.02,1602.95
1456.47,1596.67
1457.92,1595.17
1459.37,1630.58
1460.82,1657.18
1462.28,1667.59
1463.73,1659.92
1465.18,1708.88
1466.63,1684.22
1468.08,1721.82
1469.53,1740.79
1470.99,1742.67
1472.44,1756.24
1473.89,1777.36
1475.34,1812.62
1476.79,1865.99
1478.24,1876.73
1479.7,1882.58
1481.15,1929.3
1482.6,1954.76
1484.05,1986.68
1485.5,2034.49
1486.96,2055.58
1488.41,2088.1
1489.86,2121.14
1491.31,2160.2
1492.76,2185.93
1494.21,2201.37
1495.67,2279.98
1497.12,2378.22
1498.57,2404.26
1500.02,2430.6
1501.47,2496
1502.93,2577.89
1504.38,2578.1
1505.83,2698.96
1507.28,2743.09
1508.73,2852.33
1510.18,2952.69
1511.64,3048.31
1513.09,3161.36
1514.54,3249.76
1515.99,3391.67
1517.44,3569.44
1518.89,3718.32
1520.35,3840.06
1521.8,3986.01
1523.25,4197.69
1524.7,4420.3
1526.15,4760.69
1527.61,4994.46
1529.06,5359.31
1530.51,5703.53
1531.96,6118.05
1533.41,6595.25
1534.86,7086.58
1536.32,7652.1
1537.77,8331.11
1539.22,9065.9
1540.67,9861.83
1542.12,10677.1
1543.58,11747.4
1545.03,12831.9
1546.48,14052.2
1547.93,15230
1549.38,16481.2
1550.83,17773.8
1552.29,19190.9
1553.74,20557.7
1555.19,21894.1
1556.64,23301.9
1558.09,24605.2
1559.54,25787.3
1561,26840.5
1562.45,27692.2
1563.9,28222.7
1565.35,28591.4
1566.8,28661.7
1568.26,28467.4
1569.71,27732
1571.16,26830.9
1572.61,25745.6
1574.06,24440.3
1575.51,23045.6
1576.97,21561.7
1578.42,20072.5
1579.87,18650.5
1581.32,17234.7
1582.77,15899.5
1584.23,14662.2
1585.68,13461.2
1587.13,12461.3
1588.58,11414.5
1590.03,10481.4
1591.48,9661.8
1592.94,8869.14
1594.39,8300.76
1595.84,7795.47
1597.29,7260.29
1598.74,6897.29
1600.2,6536.64
1601.65,6177.74
1603.1,5843.7
1604.55,5562.15
1606,5283.85
1607.45,5017.65
1608.91,4796.22
1610.36,4588.42
1611.81,4377.4
1613.26,4117.06
1614.71,3921.05
1616.16,3739.59
1617.62,3554.42
1619.07,3404.03
1620.52,3218.18
1621.97,3121.49
1623.42,2999.57
1624.88,2865.28
1626.33,2779.19
1627.78,2671.43
1629.23,2579.85
1630.68,2494.89
1632.13,2389.91
1633.59,2341.85
1635.04,2318.4
1636.49,2273.16
1637.94,2192.88
1639.39,2114.15
1640.85,2090.69
1642.3,2044.76
1643.75,2004.89
1645.2,1961.28
1646.65,1952.54
1648.1,1930.53
1649.56,1902.82
1651.01,1845.87
1652.46,1819.49
1653.91,1790.71
1655.36,1765.1
1656.81,1761.36
1658.27,1712.63
1659.72,1669.82
1661.17,1662.12
1662.62,1644.05
1664.07,1613.95
1665.53,1607.84
1666.98,1607.68
1668.43,1567.05
1669.88,1523.79
1671.33,1515.51
1672.78,1510.86
1674.24,1469.86
1675.69,1441.87
1677.14,1454.59
1678.59,1455.84
1680.04,1432.15
1681.5,1410.05
1682.95,1408.38
1684.4,1412.62
1685.85,1401.53
1687.3,1387.67
1688.75,1370.88
1690.21,1353.95
1691.66,1343.68
1693.11,1309.46
1694.56,1326.02
1696.01,1330.84
1697.46,1309.75
1698.92,1301.69
1700.37,1286.22
1701.82,1279.55
1703.27,1277.31
1704.72,1287.41
1706.18,1287.84
1707.63,1279.45
1709.08,1264.35
1710.53,1270.99
1711.98,1265.25
1713.43,1237.57
1714.89,1246.08
1716.34,1245.27
1717.79,1246.59
1719.24,1231.57
1720.69,1244.38
1722.15,1271.76
1723.6,1244.61
1725.05,1259.66
1726.5,1243.48
1727.95,1223.68
1729.4,1236.35
1730.86,1236.13
1732.31,1252.46
1733.76,1263.54
1735.21,1222.23
1736.66,1210.83
1738.11,1224.85
1739.57,1217.58
1741.02,1199.82
1742.47,1205.98
1743.92,1211.18
1745.37,1190.66
1746.83,1179.45
1748.28,1181.78
1749.73,1191.68
1751.18,1197.73
1752.63,1183.95
1754.08,1161.85
1755.54,1185.54
1756.99,1188.47
1758.44,1170.6
1759.89,1138.88
1761.34,1157.67
1762.8,1147.21
1764.25,1139.66
1765.7,1132.26
1767.15,1142.72
1768.6,1147.33
1770.05,1144.27
1771.51,1132.18
1772.96,1102.81
1774.41,1100.51
1775.86,1108.72
1777.31,1111.38
1778.76,1095.33
1780.22,1080.11
1781.67,1098.46
1783.12,1109.5
1784.57,1100.51
1786.02,1071.86
1787.48,1074.75
1788.93,1095.6
1790.38,1075.19
1791.83,1062.48
1793.28,1088.52
1794.73,1116.68
1796.19,1066.69
1797.64,1047.41
1799.09,1065.72
1800.54,1058.77
1801.99,1057.91
1803.45,1068.57
1804.9,1069.71
1806.35,1068.03
1807.8,1072.33
1809.25,1064.25
1810.7,1051.6
1812.16,1045.35
1813.61,1045.2
1815.06,1046.26
1816.51,1039.82
1817.96,1050.94
1819.41,1057.47
1820.87,1047.91
1822.32,1036.8
1823.77,1050.3
1825.22,1055.99
1826.67,1074.39
1828.13,1040.76
1829.58,1066.07
1831.03,1056.56
1832.48,1048.36
1833.93,1043.81
1835.38,1028.71
1836.84,1078.96
1838.29,1068.53
1839.74,1089.65
1841.19,1095.48
1842.64,1089.17
1844.1,1097.26
1845.55,1091.95
1847,1096.22
1848.45,1092.4
1849.9,1084.34
1851.35,1100
1852.81,1123.5
1854.26,1125.11
1855.71,1119.31
1857.16,1134.79
1858.61,1138.55
1860.07,1117.85
1861.52,1108.41
1862.97,1106.64
1864.42,1118.73
1865.87,1123.93
1867.32,1153.16
1868.78,1134.67
1870.23,1107.51
1871.68,1096.77
1873.13,1113.32
1874.58,1086.73
1876.03,1081.31
1877.49,1114.73
1878.94,1094.13
1880.39,1068.87
1881.84,1073.88
1883.29,1084.93
1884.75,1082.01
1886.2,1080.24
1887.65,1056.61
1889.1,1043.56
1890.55,1053.62
1892,1056.95
1893.46,1038.41
1894.91,1041.5
1896.36,1045.54
1897.81,1029.88
1899.26,1024.51
1900.72,1018.27
1902.17,1016.79
1903.62,1012.56
1905.07,1019.24
1906.52,1001.12
1907.97,998.798
1909.43,1013.43
1910.88,1003.45
1912.33,1005.97
1913.78,995.036
1915.23,1005.35
1916.68,1005.52
1918.14,984.738
1919.59,993.58
1921.04,965.45
1922.49,991.409
1923.94,987.169
1925.4,993.12
1926.85,996.282
1928.3,980.321
1929.75,954.64
1931.2,987.578
1932.65,998.52
1934.11,991.684
1935.56,996.081
1937.01,974.054
1938.46,990.516
1939.91,988.326
1941.37,998.093
1942.82,998.346
1944.27,999.888
1945.72,1018.22
1947.17,1000.78
1948.62,999.526
1950.08,987.999
1951.53,994.615
1952.98,998.094
1954.43,999.179
1955.88,987.331
1957.33,1010.09
1958.79,1018.94
1960.24,990.343
1961.69,978.216
1963.14,999.201
1964.59,996.425
1966.05,1010.1
1967.5,1013.84
1968.95,1012.37
1970.4,1025.28
1971.85,1025.03
1973.3,1021.57
1974.76,1033.77
1976.21,1028.96
1977.66,1024.67
1979.11,1025.98
1980.56,1018
1982.02,1030.57
1983.47,1019.87
1984.92,1014.74
1986.37,1027.72
1987.82,1042.3
1989.27,1038.89
1990.73,1033.39
1992.18,1031.16
1993.63,1033.13
1995.08,1036.18
1996.53,1052.71
1997.98,1018.65
1999.44,1018.48
2000.89,1061.98
2002.34,1021.25
2003.79,1035.31
2005.24,1028.23
2006.7,1052.74
2008.15,1028.65
2009.6,1044.41
2011.05,1040.28
2012.5,1037.17
2013.95,1046.53
2015.41,1023.3
2016.86,1005.62
2018.31,1005.35
2019.76,1001.47
2021.21,996.883
2022.67,988.503
2024.12,979.115
2025.57,1008.2
2027.02,999.987
2028.47,1006.92
2029.92,969.067
2031.38,986.523
2032.83,992.383
2034.28,989.395
2035.73,966.093
2037.18,974.676
2038.63,962.947
2040.09,960.313
2041.54,937.083
2042.99,958.47
2044.44,964.637
2045.89,951.365
2047.35,941.243
2048.8,951.1
2050.25,945.044
2051.7,946.324
2053.15,958.753
2054.6,946.979
2056.06,922.033
2057.51,937.541
2058.96,932.901
2060.41,923.385
2061.86,928.386
2063.32,935.475
2064.77,926.28
2066.22,916.688
2067.67,917.822
2069.12,931.242
2070.57,911.139
2072.03,927.75
2073.48,924.436
2074.93,914.544
2076.38,908.502
2077.83,923.779
2079.28,925.905
2080.74,913.198
2082.19,908.77
2083.64,924.028
2085.09,937.264
2086.54,928.488
2088,917.746
2089.45,912.046
2090.9,896.415
2092.35,892.791
2093.8,900.705
2095.25,906.295
2096.71,896.447
2098.16,919.227
2099.61,928.929
2101.06,932.706
2102.51,931.115
2103.97,926.463
2105.42,906.503
2106.87,902.727
2108.32,900.637
2109.77,893.028
2111.22,895.027
2112.68,892.943
2114.13,898.558
2115.58,893.085
2117.03,899.131
2118.48,914.456
2119.94,908.386
2121.39,926.379
2122.84,913.924
2124.29,920.466
2125.74,926.273
2127.19,929.115
2128.65,950.66
2130.1,921.882
2131.55,915.551
2133,926.178
2134.45,920.884
2135.9,919.992
2137.36,929.756
2138.81,917.419
2140.26,912.422
2141.71,897.749
2143.16,926.615
2144.62,929.369
2146.07,923.041
2147.52,918.76
2148.97,922.061
2150.42,936.49
2151.87,921.517
2153.33,950.5
2154.78,943.89
2156.23,935.841
2157.68,929.625
2159.13,938.464
2160.58,947.632
2162.04,941.627
2163.49,971.953
2164.94,966.671
2166.39,943.52
2167.84,949.285
2169.3,947.938
2170.75,955.385
2172.2,957.466
2173.65,955.385
2175.1,967.961
2176.55,978.131
2178.01,975.136
2179.46,955.709
2180.91,972.121
2182.36,977.603
2183.81,989.042
2185.27,982.786
2186.72,995.183
2188.17,1002.95
2189.62,983.698
2191.07,984.716
2192.52,992.34
2193.98,991.78
2195.43,979.237
2196.88,990.793
2198.33,990.165
2199.78,975.107
2201.24,977.129
2202.69,991.097
2204.14,1003.14
2205.59,967.275
2207.04,1003.99
2208.49,994.568
2209.95,992.279
2211.4,1013.32
2212.85,995.675
2214.3,990.153
2215.75,975.257
2217.2,993.45
2218.66,994.683
2220.11,1013.32
2221.56,1008.96
2223.01,996.3
2224.46,1009.01
2225.92,1016.02
2227.37,1014.69
2228.82,978.652
2230.27,1021.07
2231.72,985.148
2233.17,985.579
2234.63,1014.09
2236.08,1015.31
2237.53,1009.89
2238.98,1002.06
2240.43,1035.4
2241.89,1012.92
2243.34,1025.96
2244.79,1010.33
2246.24,1031.74
2247.69,1028.2
2249.14,1027.82
2250.6,1020.46
2252.05,1024.28
2253.5,1011.23
2254.95,1022.79
2256.4,1026.04
2257.85,1048.04
2259.31,1048.44
2260.76,1045.3
2262.21,1036.29
2263.66,1051.51
2265.11,1054.5
2266.57,1048.64
2268.02,1049.84
2269.47,1073.75
2270.92,1067.59
2272.37,1055.24
2273.82,1065.23
2275.28,1071.18
2276.73,1068.7
2278.18,1054.4
2279.63,1072.79
2281.08,1080.55
2282.54,1070.04
2283.99,1084.65
2285.44,1087.16
2286.89,1091.4
2288.34,1090.71
2289.79,1071.18
2291.25,1096.43
2292.7,1104.22
2294.15,1093.93
2295.6,1103.87
2297.05,1126.7
2298.5,1125.85
2299.96,1081.53
2301.41,1096.99
2302.86,1114.52
2304.31,1127.1
2305.76,1132.56
2307.22,1110.84
2308.67,1129.32
2310.12,1118.61
2311.57,1143.24
2313.02,1146.39
2314.47,1149.9
2315.93,1149.38
2317.38,1149.26
2318.83,1142.14
2320.28,1149.17
2321.73,1143.18
2323.19,1159.45
2324.64,1161.62
2326.09,1160.46
2327.54,1169.9
2328.99,1181.19
2330.44,1181.92
2331.9,1187.48
2333.35,1214.28
2334.8,1203.51
2336.25,1214.46
2337.7,1205.31
2339.16,1212.78
2340.61,1231.6
2342.06,1237.33
2343.51,1226.76
2344.96,1253.44
2346.41,1234.35
2347.87,1225.16
2349.32,1247.04
2350.77,1266.84
2352.22,1296.46
2353.67,1267.67
2355.12,1270.93
2356.58,1274.9
2358.03,1309.32
2359.48,1301.6
2360.93,1334.34
2362.38,1308.06
2363.84,1320.45
2365.29,1340.4
2366.74,1364.74
2368.19,1342.07
2369.64,1379.08
2371.09,1374.55
2372.55,1393.94
2374,1405.49
2375.45,1416.38
2376.9,1443.84
2378.35,1455.65
2379.8,1456.03
2381.26,1479.21
2382.71,1476.05
2384.16,1496.15
2385.61,1539.5
2387.06,1579.78
2388.52,1583.38
2389.97,1564.27
2391.42,1576.4
2392.87,1647.64
2394.32,1676.27
2395.77,1739.07
2397.23,1739.44
2398.68,1747.68
2400.13,1767.91
2401.58,1814.27
2403.03,1831.05
2404.49,1877.95
2405.94,1906.93
2407.39,1927.25
2408.84,1962.58
2410.29,2011.57
2411.74,2015.27
2413.2,2036.69
2414.65,2074.42
2416.1,2091.67
2417.55,2126.36
2419,2144.84
2420.46,2160.21
2421.91,2150.16
2423.36,2168.79
2424.81,2205.42
2426.26,2220.29
2427.71,2180.62
2429.17,2203.96
2430.62,2235.67
2432.07,2212.55
2433.52,2191.69
2434.97,2219.68
2436.42,2212.81
2437.88,2206.99
2439.33,2186.21
2440.78,2192.07
2442.23,2159.88
2443.68,2146.13
2445.14,2136.26
2446.59,2115.51
2448.04,2095.03
2449.49,2083.45
2450.94,2116.3
2452.39,2078.67
2453.85,2099.99
2455.3,2077.4
2456.75,2021.82
2458.2,1996.79
2459.65,1992.49
2461.1,2016.39
2462.56,1988.38
2464.01,1971.7
2465.46,1997.47
2466.91,1976.69
2468.36,1952.36
2469.82,1953.99
2471.27,1924.34
2472.72,1932.49
2474.17,1938.15
2475.62,1923.79
2477.07,1969.77
2478.53,1937.97
2479.98,1928.57
2481.43,1901.53
2482.88,1919.86
2484.33,1937.13
2485.79,1932.04
2487.24,1910.78
2488.69,1898.58
2490.14,1909.84
2491.59,1927.81
2493.04,1929.86
2494.5,1898.28
2495.95,1962.5
2497.4,1931.23
2498.85,1930.6
2500.3,1917.28
2501.76,1959.03
2503.21,1936.49
2504.66,1928.45
2506.11,1969.47
2507.56,1944.33
2509.01,1958.14
2510.47,1962.74
2511.92,1971.86
2513.37,1995.49
2514.82,1995.97
2516.27,2007.32
2517.72,2010.53
2519.18,2049.43
2520.63,2054.98
2522.08,2074.47
2523.53,2095.83
2524.98,2083.17
2526.44,2100.16
2527.89,2107.92
2529.34,2125.96
2530.79,2179.86
2532.24,2200.41
2533.69,2217.05
2535.15,2256.11
2536.6,2262.22
2538.05,2262.65
2539.5,2291.85
2540.95,2339.56
2542.41,2345.81
2543.86,2359.08
2545.31,2403.48
2546.76,2451.39
2548.21,2482.83
2549.66,2503.01
2551.12,2553.2
2552.57,2594.91
2554.02,2612.16
2555.47,2668.72
2556.92,2680.99
2558.37,2730.34
2559.83,2758.99
2561.28,2844.92
2562.73,2874.91
2564.18,2933.04
2565.63,2985.65
2567.09,3062.64
2568.54,3114.92
2569.99,3156.42
2571.44,3205.94
2572.89,3249.09
2574.34,3364.41
2575.8,3446.2
2577.25,3507.95
2578.7,3588.1
2580.15,3658.07
2581.6,3788.39
2583.06,3902.69
2584.51,3937.27
2585.96,4052.09
2587.41,4180.36
2588.86,4275.98
2590.31,4385.63
2591.77,4540.32
2593.22,4687.63
2594.67,4800.36
2596.12,4927.91
2597.57,5099.65
2599.02,5319.4
2600.48,5490.13
2601.93,5630.15
2603.38,5866.62
2604.83,6091.36
2606.28,6273.67
2607.74,6437.77
2609.19,6736.89
2610.64,7053.61
2612.09,7306.73
2613.54,7598.48
2614.99,7834.8
2616.45,8146.13
2617.9,8504.38
2619.35,8827.38
2620.8,9076.44
2622.25,9398.56
2623.71,9828.91
2625.16,10212
2626.61,10614.4
2628.06,11021.6
2629.51,11453.5
2630.96,11880.2
2632.42,12273.5
2633.87,12696.7
2635.32,13160
2636.77,13492.8
2638.22,13926.2
2639.68,14355.4
2641.13,14707.6
2642.58,15090.5
2644.03,15520.1
2645.48,15799.5
2646.93,16159.5
2648.39,16573.6
2649.84,16641.6
2651.29,16937.5
2652.74,17153.7
2654.19,17303.2
2655.64,17481.4
2657.1,17546.4
2658.55,17560.3
2660,17538
2661.45,17497.9
2662.9,17294.4
2664.36,17271.9
2665.81,17040.6
2667.26,16878.9
2668.71,16678.9
2670.16,16332.9
2671.61,15968
2673.07,15583.7
2674.52,15368.8
2675.97,14871.9
2677.42,14466.3
2678.87,14032.2
2680.32,13637.8
2681.78,13238.3
2683.23,12846.7
2684.68,12351.8
2686.13,11862.3
2687.58,11387.6
2689.04,10939.7
2690.49,10550
2691.94,10159.7
2693.39,9666.83
2694.84,9346.85
2696.29,8957.08
2697.75,8587.13
2699.2,8216.76
2700.65,7909.84
2702.1,7596.59
2703.55,7215.62
2705.01,6918.86
2706.46,6599.54
2707.91,6348.54
2709.36,6190.17
2710.81,5892.51
2712.26,5592.85
2713.72,5426.77
2715.17,5277.15
2716.62,5080.66
2718.07,4868.61
2719.52,4652.74
2720.98,4506.92
2722.43,4350.28
2723.88,4232.79
2725.33,4087.37
2726.78,3941.18
2728.23,3811.01
2729.69,3692.43
2731.14,3593.37
2732.59,3519.08
2734.04,3416.89
2735.49,3316.83
2736.94,3236.16
2738.4,3163.13
2739.85,3073.21
2741.3,3012.61
2742.75,2938.78
2744.2,2901.61
2745.66,2793.64
2747.11,2768.32
2748.56,2698.17
2750.01,2647.08
2751.46,2585
2752.91,2522.9
2754.37,2483.98
2755.82,2476.62
2757.27,2412.91
2758.72,2370.97
2760.17,2351.76
2761.63,2302.1
2763.08,2249.8
2764.53,2284.38
2765.98,2187.16
2767.43,2198.07
2768.88,2146.13
2770.34,2097.17
2771.79,2082.1
2773.24,2055.71
2774.69,2071.53
2776.14,2076.93
2777.59,2002.41
2779.05,2026.49
2780.5,1948.91
2781.95,1909.15
2783.4,1942.82
2784.85,1890.07
2786.31,1843.69
2787.76,1848.86
2789.21,1830.81
2790.66,1836.76
2792.11,1834.03
2793.56,1790.76
2795.02,1795.66
2796.47,1746.29
2797.92,1723.01
2799.37,1737.86
2800.82,1699.17
2802.28,1708.69
2803.73,1679.53
2805.18,1685.98
2806.63,1702.6
2808.08,1678.62
2809.53,1648.05
2810.99,1652.04
2812.44,1603.77
2813.89,1634.22
2815.34,1622.28
2816.79,1604.84
2818.24,1594.89
2819.7,1571.59
2821.15,1555.69
2822.6,1571.94
2824.05,1511.65
2825.5,1516.31
2826.96,1530.39
2828.41,1547.4
2829.86,1521.89
2831.31,1532.92
2832.76,1513.26
2834.21,1487.23
2835.67,1510.22
2837.12,1504.2
2838.57,1478.04
2840.02,1515.32
2841.47,1481.83
2842.93,1489.32
2844.38,1460.49
2845.83,1478.6
2847.28,1472.14
2848.73,1466.25
2850.18,1453.11
2851.64,1487.85
2853.09,1474.97
2854.54,1471.2
2855.99,1454.63
2857.44,1440.83
2858.9,1421.17
2860.35,1470.27
2861.8,1432.78
2863.25,1466.89
2864.7,1474.98
2866.15,1464.93
2867.61,1453.49
2869.06,1450.06
2870.51,1485.29
2871.96,1454.05
2873.41,1423.03
2874.86,1458
2876.32,1434.91
2877.77,1484.93
2879.22,1471.35
2880.67,1457.94
2882.12,1426.64
2883.58,1426.87
2885.03,1444.58
2886.48,1470.15
2887.93,1467.67
2889.38,1499.72
2890.83,1471.21
2892.29,1472.49
2893.74,1460.21
2895.19,1480.33
2896.64,1473.34
2898.09,1447.06
2899.54,1474.22
2901,1466.71
2902.45,1472.15
2903.9,1475.86
2905.35,1499.87
2906.8,1486.5
2908.26,1468.25
2909.71,1460.83
2911.16,1447
2912.61,1468.46
2914.06,1475.53
2915.51,1461.23
2916.97,1464.17
2918.42,1435.29
2919.87,1446.67
2921.32,1404.99
2922.77,1429.57
2924.23,1404.41
2925.68,1396.43
2927.13,1404.02
2928.58,1411.71
2930.03,1379.74
2931.48,1395.51
2932.94,1355.39
2934.39,1342.35
2935.84,1331.24
2937.29,1318.03
2938.74,1346.03
2940.2,1333.74
2941.65,1279.64
2943.1,1260.98
2944.55,1279.26
2946,1261.2
2947.45,1253.6
2948.91,1256.66
2950.36,1233.98
2951.81,1226.8
2953.26,1209.65
2954.71,1176.71
2956.16,1198.11
2957.62,1175.7
2959.07,1152.73
2960.52,1158.05
2961.97,1149.38
2963.42,1145.94
2964.88,1124.67
2966.33,1137.2
2967.78,1130.11
2969.23,1111.7
2970.68,1113.96
2972.13,1111.71
2973.59,1114.59
2975.04,1107.17
2976.49,1081.95
2977.94,1086.51
2979.39,1059.11
2980.84,1072.04
2982.3,1065.83
2983.75,1069.7
2985.2,1047.84
2986.65,1047.74
2988.1,1055.1
2989.56,1035.14
2991.01,1035.68
2992.46,1046.54
2993.91,1021.79
2995.36,1033.36
2996.81,1055.87
2998.27,1029
2999.72,1022.42
3001.17,1000.78
3002.62,994.147
3004.07,995.094
3005.53,1020.31
3006.98,1004.98
3008.43,1011.97
3009.88,1016.83
3011.33,1003.87
3012.78,1006.62
3014.24,999.44
3015.69,1008.39
3017.14,997.799
3018.59,993.47
3020.04,973.671
3021.5,998.534
3022.95,995.753
3024.4,985.212
3025.85,981.12
3027.3,983.35
3028.75,1008.28
3030.21,980.611
3031.66,981.887
3033.11,989.869
3034.56,972.053
3036.01,968.704
3037.46,986.754
3038.92,986.878
3040.37,969.622
3041.82,985.149
3043.27,962.513
3044.72,984.619
3046.18,968.05
3047.63,976.164
3049.08,971.876
3050.53,998.531
3051.98,989.426
3053.43,983.818
3054.89,986.313
3056.34,1005.72
3057.79,993.027
3059.24,976.478
3060.69,981.28
3062.15,993.771
3063.6,975.295
3065.05,977.4
3066.5,1006.15
3067.95,1002.14
3069.4,1015.32
3070.86,1017.37
3072.31,1021.72
3073.76,997.404
3075.21,1007.49
3076.66,1033.32
3078.11,1025.74
3079.57,1023.15
3081.02,1044.48
3082.47,1036.49
3083.92,1042.5
3085.37,1046.4
3086.83,1079.09
3088.28,1056.98
3089.73,1058.72
3091.18,1080.17
3092.63,1101.03
3094.08,1112.74
3095.54,1097.64
3096.99,1115.62
3098.44,1170.82
3099.89,1137.23
3101.34,1171.9
3102.8,1172.64
3104.25,1179.79
3105.7,1201.95
3107.15,1204.52
3108.6,1231.88
3110.05,1254.78
3111.51,1218.74
3112.96,1259.44
3114.41,1286.38
3115.86,1303.54
3117.31,1322.34
3118.76,1340.1
3120.22,1381.28
3121.67,1355.45
3123.12,1377.66
3124.57,1420.06
3126.02,1415.02
3127.48,1413.49
3128.93,1426.25
3130.38,1443.07
3131.83,1474.93
3133.28,1486.83
3134.73,1479.52
3136.19,1508.67
3137.64,1519.9
3139.09,1510.48
3140.54,1529.68
3141.99,1524.38
3143.45,1521.22
3144.9,1563.86
3146.35,1549.78
3147.8,1533.64
3149.25,1581.98
3150.7,1545.82
3152.16,1560.04
3153.61,1539.87
3155.06,1570.1
3156.51,1561.17
3157.96,1564.86
3159.42,1536.38
3160.87,1573.41
3162.32,1570.82
3163.77,1548.86
3165.22,1578.05
3166.67,1600.69
3168.13,1575.5
3169.58,1576.75
3171.03,1628.06
3172.48,1614.66
3173.93,1618.68
3175.38,1625.15
3176.84,1658.35
3178.29,1677.67
3179.74,1729.54
3181.19,1671.98
3182.64,1697.71
3184.1,1751.95
3185.55,1724.65
3187,1724
3188.45,1753.6
3189.9,1821.02
3191.35,1816.37
3192.81,1827.24
3194.26,1792.98
3195.71,1840.4
3197.16,1868.71
3198.61,1858.32
3200.06,1854.19
3201.52,1874.57
3202.97,1883.4
3204.42,1868.64
3205.87,1838.83
3207.32,1831.33
3208.78,1818.74
3210.23,1806.7
3211.68,1754.44
3213.13,1712.7
3214.58,1717.12
3216.03,1683.67
3217.49,1677.6
3218.94,1664.97
3220.39,1597.63
3221.84,1574.17
3223.29,1515.88
3224.75,1480.05
3226.2,1451.38
3227.65,1419.91
3229.1,1401.21
3230.55,1353.87
3232,1304.47
3233.46,1283.54
3234.91,1248.5
3236.36,1211.3
3237.81,1180.51
3239.26,1173.92
3240.72,1138.38
3242.17,1123.98
3243.62,1079.66
3245.07,1068.15
3246.52,1051.9
3247.97,1045.81
3249.43,1028.65
3250.88,993.289
3252.33,973.536
3253.78,983.262
3255.23,959.984
3256.68,952.768
3258.14,941.924
3259.59,904.274
3261.04,909.314
3262.49,895.397
3263.94,884.269
3265.4,901.944
3266.85,878.061
3268.3,891.214
3269.75,862.93
3271.2,883.445
3272.65,872.347
3274.11,849.596
3275.56,833.178
3277.01,868.696
3278.46,863.368
3279.91,854.445
3281.37,840.705
3282.82,834.651
3284.27,838.75
3285.72,843.561
3287.17,826.988
3288.62,825.324
3290.08,848.137
3291.53,843.933
3292.98,829.61
3294.43,825.634
3295.88,830.829
3297.33,838.421
3298.79,819.692
3300.24,795.866
3301.69,794.728
3303.14,798.172
3304.59,822.092
3306.05,804.034
3307.5,795.95
3308.95,794.443
3310.4,804.484
3311.85,831.015
3313.3,813.203
3314.76,806.138
3316.21,804.195
3317.66,801.308
3319.11,785.823
3320.56,796.201
3322.02,807.718
3323.47,809.872
3324.92,798.393
3326.37,785.698
3327.82,779.998
3329.27,799.225
3330.73,792.789
3332.18,775.035
3333.63,781.323
3335.08,777.147
3336.53,790.951
3337.98,806.836
3339.44,797.815
3340.89,797.545
3342.34,785.314
3343.79,791.518
3345.24,791.17
3346.7,782.159
3348.15,781.821
3349.6,780.43
3351.05,794.673
3352.5,785.896
3353.95,789.889
3355.41,803.287
3356.86,773.268
3358.31,783.817
3359.76,778.618
3361.21,773.371
3362.67,782.232
3364.12,750.908
3365.57,787.253
3367.02,780.044
3368.47,777.171
3369.92,786.921
3371.38,781.825
3372.83,802.013
3374.28,779.541
3375.73,771.526
3377.18,773.73
3378.63,785.343
3380.09,769.404
3381.54,755.848
3382.99,763.519
3384.44,771.136
3385.89,778.251
3387.35,771.848
3388.8,782.95
3390.25,782.371
3391.7,775.818
3393.15,772.704
3394.6,779.087
3396.06,787.437
3397.51,755.671
3398.96,764.691
3400.41,760.906
3401.86,756.071
3403.32,776.631
3404.77,789.794
3406.22,795.333
3407.67,769.346
3409.12,767.056
3410.57,765.521
3412.03,775.856
3413.48,766.239
3414.93,779.447
3416.38,759.585
3417.83,767.721
3419.28,780.231
3420.74,774.788
3422.19,788.154
3423.64,773.712
3425.09,769.995
3426.54,768.18
3428,754.775
3429.45,756.723
3430.9,756.922
3432.35,756.815
3433.8,752.292
3435.25,736.462
3436.71,753.903
3438.16,767.141
3439.61,762.386
3441.06,770.318
3442.51,758.545
3443.97,765.989
3445.42,783.424
3446.87,756.465
3448.32,754.964
3449.77,756.711
3451.22,756.402
3452.68,766.175
3454.13,753.895
3455.58,747.858
3457.03,752.112
3458.48,754.591
3459.94,734.929
3461.39,743.842
3462.84,738.511
3464.29,753.49
3465.74,762.94
3467.19,773.763
3468.65,751.633
3470.1,761.024
3471.55,751.457
3473,746.794
3474.45,760.721
3475.9,747.794
3477.36,744.245
3478.81,727.887
3480.26,736.69
3481.71,761.829
3483.16,759.249
3484.62,773.6
3486.07,758.689
3487.52,766.657
3488.97,770.761
3490.42,784.695
3491.87,738.705
3493.33,752.347
3494.78,765.119
3496.23,748.501
3497.68,745.483
3499.13,760.778
3500.58,766.524
3502.04,753.335
3503.49,770.072
3504.94,758.331
3506.39,766.773
3507.84,756.143
3509.3,732.848
3510.75,762.943
3512.2,756.018
3513.65,756.101
3515.1,761.519
3516.55,785.399
3518.01,776.38
3519.46,768.099
3520.91,752.201
3522.36,758.167
3523.81,773.243
3525.27,732.765
3526.72,743.347
3528.17,749.473
3529.62,758.647
3531.07,769.729
3532.52,759.53
3533.98,777.137
3535.43,757.017
3536.88,768.898
3538.33,759.553
3539.78,758.153
3541.24,762.662
3542.69,739.043
3544.14,763.111
3545.59,774.006
3547.04,742.587
3548.49,750.945
3549.95,752.478
3551.4,753.504
3552.85,733.279
3554.3,752.617
3555.75,746.697
3557.2,756.701
3558.66,735.074
3560.11,744.713
3561.56,754.846
3563.01,740.216
3564.46,751.595
3565.92,761.477
3567.37,751.805
3568.82,757.054
3570.27,750.432
3571.72,758.63
3573.17,744.868
3574.63,755.967
3576.08,763.412
3577.53,734.028
3578.98,742.965
3580.43,748.742
3581.89,757.329
3583.34,767.316
3584.79,754.537
3586.24,748.193
3587.69,750.625
3589.14,750.707
3590.6,754.062
3592.05,741.92
3593.5,742.08
3594.95,754.13
3596.4,738.345
3597.85,748.289
3599.31,744.161
3600.76,744.653
3602.21,743.817
3603.66,751.266
3605.11,750.14
3606.57,747.231
3608.02,756.93
3609.47,746.509
3610.92,751.092
3612.37,755.06
3613.82,746.422
3615.28,752.506
3616.73,743.312
3618.18,734.957
3619.63,763.734
3621.08,731.039
3622.54,746.403
3623.99,732.195
3625.44,753.678
3626.89,763.275
3628.34,747.181
3629.79,752.057
3631.25,748.915
3632.7,756.615
3634.15,739.681
3635.6,743.417
3637.05,769.141
3638.5,757.993
3639.96,770.292
3641.41,737.762
3642.86,739.374
3644.31,752.064
3645.76,738.794
3647.22,743.039
3648.67,749.252
3650.12,730.253
3651.57,753.248
3653.02,745.108
3654.47,751.589
3655.93,745.883
3657.38,726.384
3658.83,766.521
3660.28,754.755
3661.73,749.762
3663.19,744.727
3664.64,750.12
3666.09,760.023
3667.54,766.576
3668.99,745.553
3670.44,736.954
3671.9,762.609
3673.35,776
3674.8,765.933
3676.25,751.931
3677.7,764.564
3679.16,757.74
3680.61,766.802
3682.06,748.368
3683.51,752.636
3684.96,754.795
3686.41,769.261
3687.87,747.793
3689.32,744.284
3690.77,739.507
3692.22,775.538
3693.67,745.87
3695.12,748.482
3696.58,772.264
3698.03,741.028
3699.48,747.233
3700.93,762.973
3702.38,768.874
3703.84,752.27
3705.29,767.587
3706.74,765.714
3708.19,759.449
3709.64,744.608
3711.09,744.008
3712.55,753.344
3714,752.223
3715.45,770.377
3716.9,767.589
3718.35,755.848
3719.8,769.587
3721.26,749.31
3722.71,765.342
3724.16,765.544
3725.61,772.948
3727.06,775.701
3728.52,781.111
3729.97,778.63
3731.42,789.038
3732.87,761.713
3734.32,769.993
3735.77,761.448
3737.23,772.971
3738.68,772.227
3740.13,764.051
3741.58,756.733
3743.03,795.253
3744.49,773.118
3745.94,767.033
3747.39,770.96
3748.84,766.134
3750.29,768.458
3751.74,766.532
3753.2,763.274
3754.65,762.721
3756.1,778.612
3757.55,764.375
3759,774.007
3760.46,788.361
3761.91,773.226
3763.36,783.324
3764.81,783.698
3766.26,760.076
3767.71,771.652
3769.17,780.273
3770.62,781.545
3772.07,781.004
3773.52,778.708
3774.97,761.859
3776.42,771.059
3777.88,765.801
3779.33,787.088
3780.78,780.195
3782.23,778.272
3783.68,787.332
3785.14,760.508
3786.59,768.18
3788.04,780.76
3789.49,796.021
3790.94,802.712
3792.39,777.256
3793.85,775.166
3795.3,780.172
3796.75,783.435
3798.2,789.996
3799.65,762.762
3801.1,766.835
3802.56,784.2
3804.01,784.423
3805.46,802.177
3806.91,785.209
3808.36,794.409
3809.82,779.398
3811.27,770.247
3812.72,779.953
3814.17,794.624
3815.62,795.488
3817.07,799.091
3818.53,790.553
3819.98,789.467
3821.43,792.645
3822.88,788.859
3824.33,809.139
3825.79,804.013
3827.24,787.915
3828.69,788.891
3830.14,769.082
3831.59,794.922
3833.04,790.104
3834.5,788.837
3835.95,775.651
3837.4,774.634
3838.85,807.826
3840.3,779.794
3841.76,794.33
3843.21,792.832
3844.66,791.344
3846.11,791.418
3847.56,782.371
3849.01,812.25
3850.47,810.446
3851.92,811.828
3853.37,800.989
3854.82,824.128
3856.27,814.593
3857.72,818.68
3859.18,800.013
3860.63,810.606
3862.08,800.905
3863.53,815.614
3864.98,841.462
3866.44,819.755
3867.89,817.606
3869.34,806.506
3870.79,797.23
3872.24,822.715
3873.69,828.88
3875.15,814.66
3876.6,819.681
3878.05,819.61
3879.5,823.43
3880.95,843.936
3882.41,828.774
3883.86,815.07
3885.31,814.685
3886.76,834.203
3888.21,823.729
3889.66,826.717
3891.12,830.459
3892.57,803.907
3894.02,837.558
3895.47,831.014
3896.92,852.719
3898.37,824.073
3899.83,822.437
3901.28,839.046
3902.73,835.805
3904.18,841.471
3905.63,860.674
3907.09,819.017
3908.54,851.051
3909.99,854.341
3911.44,857.414
3912.89,878.02
3914.34,858.782
3915.8,854.447
3917.25,879.135
3918.7,862.835
3920.15,839.683
3921.6,868.65
3923.06,838.068
3924.51,835.72
3925.96,855.665
3927.41,877.624
3928.86,867.984
3930.31,880.009
3931.77,886.148
3933.22,886.769
3934.67,887.946
3936.12,888.09
3937.57,878.351
3939.02,852.81
3940.48,887.323
3941.93,915.686
3943.38,915.567
3944.83,887.589
3946.28,906.506
3947.74,918.458
3949.19,929.381
3950.64,914.909
3952.09,919.376
3953.54,891.398
3954.99,917.403
3956.45,912.563
3957.9,906.504
3959.35,926.683
3960.8,912.876
3962.25,926.681
3963.71,916.937
3965.16,910.729
3966.61,921.783
3968.06,927.285
3969.51,927.326
3970.96,947.03
3972.42,932.456
3973.87,933.911
3975.32,947.167
3976.77,947.81
3978.22,936.328
3979.68,956.048
3981.13,947.055
3982.58,954.934
3984.03,967.126
3985.48,970.961
3986.93,948.096
3988.39,969.69
3989.84,972.366
3991.29,954.737
3992.74,970.515
3994.19,958.345
3995.64,963.091
3997.1,979.029
3998.55,973.39
4000,976.027
