-20,-2.56088
-18.5482,6.75066
-17.0964,14.4397
-15.6446,15.6915
-14.1928,33.3004
-12.7411,38.9482
-11.2893,40.548
-9.83749,52.2389
-8.3857,73.4979
-6.93391,101.243
-5.48212,376.903
-4.03034,77.9383
-2.57855,77.9383
-1.12676,77.9383
0.325027,77.9383
1.77681,77.9383
3.2286,77.9383
4.68039,77.9383
6.13218,77.9383
7.58397,184.259
9.03575,40.676
10.4875,35.9977
11.9393,28.0848
13.3911,22.377
14.8429,17.0968
16.2947,11.0906
17.7465,8.9596
19.1983,5.6047
20.6501,3.48487
22.1018,1.38825
23.5536,-4.17023
25.0054,-3.07883
26.4572,-4.62106
27.909,-9.20933
29.3608,-15.0248
30.8126,-17.2848
32.2644,-17.7664
33.7161,-17.7794
35.1679,-18.5998
36.6197,-20.4494
38.0715,-17.886
39.5233,-18.2025
40.9751,-15.4956
42.4269,-13.4011
43.8787,-17.3668
45.3304,-10.1687
46.7822,-2.86461
48.234,16.576
49.6858,58.3948
51.1376,132.755
52.5894,278.856
54.0412,500.418
55.493,766.186
56.9447,1054.81
58.3965,1344.89
59.8483,1596.5
61.3001,1790.57
62.7519,1931.07
64.2037,2048.98
65.6555,2149.3
67.1073,2167.64
68.559,2174.57
70.0108,2181.96
71.4626,2188.96
72.9144,2190.09
74.3662,2243.57
75.818,2300.74
77.2698,2344.11
78.7216,2383.42
80.1733,2461.35
81.6251,2577.65
83.0769,2667.36
84.5287,2726.34
85.9805,2736.63
87.4323,2707.97
88.8841,2665.89
90.3359,2582.24
91.7877,2431.95
93.2394,2330.85
94.6912,2157.31
96.143,2025.25
97.5948,1950.09
99.0466,1892.99
100.498,1793.33
101.95,1740.04
103.402,1695.79
104.854,1653.02
106.306,1613.93
107.757,1586.33
109.209,1534.13
110.661,1510.06
112.113,1514.73
113.564,1455.54
115.016,1435.19
116.468,1418.11
117.92,1409.77
119.372,1417.85
120.823,1367.67
122.275,1319.35
123.727,1285.7
125.179,1273.83
126.631,1267.35
128.082,1235.95
129.534,1200.5
130.986,1181.8
132.438,1157.18
133.889,1127.26
135.341,1116.77
136.793,1110.27
138.245,1087.89
139.697,1067.69
141.148,1067.87
142.6,1047.39
144.052,1046.21
145.504,1023.54
146.956,991.28
148.407,994.949
149.859,978.416
151.311,980.257
152.763,966.688
154.215,954.191
155.666,967.24
157.118,958.501
158.57,943.474
160.022,936.748
161.473,920.706
162.925,935.832
164.377,900.102
165.829,862.25
167.281,858.945
168.732,874.677
170.184,847.785
171.636,829.96
173.088,820.249
174.54,804.599
175.991,796.305
177.443,794.63
178.895,815.436
180.347,792.831
181.798,778.701
183.25,787.132
184.702,792.024
186.154,783.865
187.606,779.4
189.057,769.849
190.509,769.224
191.961,778.539
193.413,750.843
194.865,738.92
196.316,732.441
197.768,739.262
199.22,742.616
200.672,730.6
202.124,719.13
203.575,707.017
205.027,714.283
206.479,735.912
207.931,716.668
209.382,703.989
210.834,702.733
212.286,711.452
213.738,697.078
215.19,693.839
216.641,702.361
218.093,712.384
219.545,711.714
220.997,713.538
222.449,692.419
223.9,691.072
225.352,699.935
226.804,713.717
228.256,730.469
229.707,717.005
231.159,720.049
232.611,716.477
234.063,709.011
235.515,718.365
236.966,711.976
238.418,704.794
239.87,695.454
241.322,692.688
242.774,697.813
244.225,701.607
245.677,688.531
247.129,683.784
248.581,683.902
250.033,667.024
251.484,679.335
252.936,676.321
254.388,668.813
255.84,665.784
257.291,661.875
258.743,665.15
260.195,655.956
261.647,665.04
263.099,671.522
264.55,650.18
266.002,653.131
267.454,646.618
268.906,650.954
270.358,655.31
271.809,644.943
273.261,613.856
274.713,629.538
276.165,637.435
277.616,637.948
279.068,630.118
280.52,600.789
281.972,608.159
283.424,601.607
284.875,608.597
286.327,616.839
287.779,601.704
289.231,581.367
290.683,577.999
292.134,574.937
293.586,569.672
295.038,578.72
296.49,590.453
297.941,568.015
299.393,556.067
300.845,550.737
302.297,553.885
303.749,555.011
305.2,532.249
306.652,545.347
308.104,553.961
309.556,543.715
311.008,528.666
312.459,530.588
313.911,526.378
315.363,517.628
316.815,512.36
318.267,517.61
319.718,506.238
321.17,518.357
322.622,528.243
324.074,527.556
325.525,519.325
326.977,508.508
328.429,511.14
329.881,508.906
331.333,502.904
332.784,495.392
334.236,501.189
335.688,518.911
337.14,509.772
338.592,497.841
340.043,497.319
341.495,502.137
342.947,502.543
344.399,499.083
345.85,493.177
347.302,488.524
348.754,490.056
350.206,485.94
351.658,486.731
353.109,488.09
354.561,487.014
356.013,472.325
357.465,482.237
358.917,487.778
360.368,484.112
361.82,487.122
363.272,482.563
364.724,465.379
366.176,472.307
367.627,451.316
369.079,451.273
370.531,467.775
371.983,468.17
373.434,468.714
374.886,459.138
376.338,459.329
377.79,465.561
379.242,470.285
380.693,474.105
382.145,466.923
383.597,471.405
385.049,475.125
386.501,470.495
387.952,465.408
389.404,459.378
390.856,459.424
392.308,457.638
393.759,460.345
395.211,475.107
396.663,487.425
398.115,468.125
399.567,463.829
401.018,460.583
402.47,458.665
403.922,469.513
405.374,449.668
406.826,471.215
408.277,469.454
409.729,460.52
411.181,455.663
412.633,467.208
414.085,466.703
415.536,476.419
416.988,464.421
418.44,445.612
419.892,453.809
421.343,449.977
422.795,457.517
424.247,441.437
425.699,433.653
427.151,440.762
428.602,454.819
430.054,433.082
431.506,441.35
432.958,456.508
434.41,461.762
435.861,453.717
437.313,446.562
438.765,449.806
440.217,442.566
441.668,448.326
443.12,453.947
444.572,428.847
446.024,442.619
447.476,449.056
448.927,453.817
450.379,451.238
451.831,446.553
453.283,451.907
454.735,450.572
456.186,459.39
457.638,460.736
459.09,454.038
460.542,444.753
461.993,432.805
463.445,441.61
464.897,442.514
466.349,445.135
467.801,447.959
469.252,435.82
470.704,437.959
472.156,435.339
473.608,436.038
475.06,440.05
476.511,440.575
477.963,429.715
479.415,437.539
480.867,442.543
482.319,440.028
483.77,437.841
485.222,450.494
486.674,452.903
488.126,450.337
489.577,446.043
491.029,441.044
492.481,432.252
493.933,433.306
495.385,434.412
496.836,425.128
498.288,425.475
499.74,430.344
501.192,433.425
502.644,440.367
504.095,429.854
505.547,413.055
506.999,422.587
508.451,425.981
509.902,419.599
511.354,441.039
512.806,432.491
514.258,424.966
515.71,423.131
517.161,432.51
518.613,440.639
520.065,437.339
521.517,436.409
522.969,427.426
524.42,420.609
525.872,419.42
527.324,426.079
528.776,446.338
530.228,431.26
531.679,425.87
533.131,423.593
534.583,425.312
536.035,441.487
537.486,433.065
538.938,428.469
540.39,425.447
541.842,431.439
543.294,434.639
544.745,438.746
546.197,433.976
547.649,422.075
549.101,432.729
550.553,445.543
552.004,444.102
553.456,436.337
554.908,439.466
556.36,427.471
557.811,433.614
559.263,421.481
560.715,404.744
562.167,429.603
563.619,439.325
565.07,437.758
566.522,437.519
567.974,425.446
569.426,417.643
570.878,446.521
572.329,430.193
573.781,432.649
575.233,427.67
576.685,424.776
578.137,429.853
579.588,440.425
581.04,423.466
582.492,428.516
583.944,431.822
585.395,433.927
586.847,434.285
588.299,431.011
589.751,435.16
591.203,426.649
592.654,437.937
594.106,442.093
595.558,430.641
597.01,422.449
598.462,435.015
599.913,428.049
601.365,435.706
602.817,427.708
604.269,420.162
605.72,414.833
607.172,429.852
608.624,428.373
610.076,445.083
611.528,438.597
612.979,421.366
614.431,425.696
615.883,416.312
617.335,432.242
618.787,428.882
620.238,431.716
621.69,442.709
623.142,443.734
624.594,418.163
626.046,424.963
627.497,435.541
628.949,440.73
630.401,431.98
631.853,424.546
633.304,438.143
634.756,449.945
636.208,442.91
637.66,443.52
639.112,448.291
640.563,446.852
642.015,445.133
643.467,448.239
644.919,451.253
646.371,446.758
647.822,441.313
649.274,442.769
650.726,467.772
652.178,467.079
653.629,442.769
655.081,430.956
656.533,441.724
657.985,454.929
659.437,454.262
660.888,450.414
662.34,448.808
663.792,453.302
665.244,458.307
666.696,461.376
668.147,464.882
669.599,462.094
671.051,474.096
672.503,462.754
673.954,460.85
675.406,456.464
676.858,452.61
678.31,458.496
679.762,470.772
681.213,443.701
682.665,454.617
684.117,463.085
685.569,472.964
687.021,481.941
688.472,463.165
689.924,485.694
691.376,488.963
692.828,472.432
694.28,457.445
695.731,456.766
697.183,474.437
698.635,467.811
700.087,455.316
701.538,466.51
702.99,464.717
704.442,464.119
705.894,480.462
707.346,482.463
708.797,491.5
710.249,466.935
711.701,462.648
713.153,475.325
714.605,480.613
716.056,460.69
717.508,462.351
718.96,457.772
720.412,460.95
721.863,469.211
723.315,472.595
724.767,471.21
726.219,472.588
727.671,481.9
729.122,465.622
730.574,467.784
732.026,469.384
733.478,464.321
734.93,469.645
736.381,479
737.833,472.783
739.285,497.32
740.737,491.163
742.189,474.899
743.64,474.176
745.092,485.809
746.544,491.639
747.996,496.635
749.447,473.857
750.899,473.361
752.351,483.029
753.803,494.848
755.255,493.691
756.706,494.712
758.158,494.785
759.61,486.444
761.062,480.658
762.514,476.484
763.965,466.654
765.417,482.648
766.869,479.784
768.321,477.744
769.772,486.626
771.224,484.808
772.676,487.471
774.128,505.036
775.58,498.902
777.031,473.463
778.483,485.786
779.935,491.96
781.387,485.484
782.839,488.38
784.29,491.358
785.742,488.38
787.194,493.783
788.646,482.681
790.098,486.735
791.549,479.417
793.001,472.545
794.453,494.667
795.905,478.086
797.356,492.823
798.808,493.035
800.26,500.41
801.712,487.643
803.164,483.821
804.615,493.95
806.067,499.231
807.519,503.546
808.971,501.485
810.423,493.867
811.874,497.404
813.326,495.022
814.778,499.034
816.23,515.756
817.681,517.051
819.133,511.907
820.585,514.282
822.037,519.822
823.489,513.42
824.94,508.588
826.392,512.736
827.844,506.498
829.296,517.83
830.748,539.884
832.199,544.613
833.651,526.718
835.103,533.746
836.555,520.756
838.007,534.771
839.458,521.389
840.91,519.117
842.362,537.097
843.814,550.326
845.265,531.88
846.717,550.939
848.169,534.712
849.621,560.532
851.073,546.431
852.524,537.321
853.976,539.603
855.428,521.337
856.88,530.139
858.332,536.283
859.783,541.161
861.235,543.553
862.687,545.312
864.139,546.463
865.59,545.746
867.042,563.82
868.494,517.485
869.946,524.924
871.398,535.483
872.849,544.632
874.301,536.534
875.753,532.016
877.205,536.704
878.657,524.455
880.108,524.603
881.56,536.346
883.012,531.745
884.464,526.237
885.915,538.282
887.367,551.032
888.819,529.963
890.271,551.388
891.723,542.223
893.174,543.473
894.626,558.672
896.078,556.177
897.53,560.466
898.982,573.396
900.433,532.505
901.885,553.568
903.337,582.599
904.789,568.991
906.241,564.983
907.692,568.535
909.144,585.364
910.596,561.923
912.048,575.335
913.499,579.289
914.951,569.795
916.403,575.276
917.855,575.699
919.307,564.988
920.758,578.646
922.21,574.651
923.662,561.453
925.114,557.331
926.566,567.07
928.017,577.006
929.469,573.746
930.921,568.982
932.373,565.601
933.824,564.164
935.276,590.695
936.728,597.122
938.18,587.203
939.632,585.903
941.083,582.648
942.535,579.957
943.987,574.252
945.439,596.925
946.891,577.819
948.342,590.75
949.794,584.965
951.246,565.487
952.698,575.983
954.15,581.311
955.601,584.664
957.053,585.391
958.505,579.943
959.957,579.958
961.408,581.375
962.86,582.382
964.312,575.818
965.764,575.978
967.216,564.485
968.667,585.108
970.119,576.125
971.571,572.095
973.023,573.115
974.475,583.425
975.926,584.86
977.378,582.972
978.83,607.14
980.282,596.757
981.733,580.763
983.185,583.195
984.637,589.777
986.089,591.469
987.541,586.934
988.992,586.461
990.444,617.325
991.896,594.099
993.348,585.374
994.8,585.105
996.251,597.182
997.703,602.371
999.155,603.206
1000.61,599.023
1002.06,613.072
1003.51,618.261
1004.96,628.461
1006.41,632.544
1007.87,616.299
1009.32,617.799
1010.77,640.094
1012.22,619.188
1013.67,637.579
1015.12,642.883
1016.58,633.706
1018.03,637.865
1019.48,639.689
1020.93,651.645
1022.38,654.016
1023.84,647.024
1025.29,658.069
1026.74,672.57
1028.19,670.575
1029.64,682.463
1031.09,689.343
1032.55,688.423
1034,698.225
1035.45,703.914
1036.9,691.935
1038.35,701.755
1039.8,698.714
1041.26,706.426
1042.71,718.009
1044.16,717.364
1045.61,711.082
1047.06,713.035
1048.52,762.394
1049.97,750.716
1051.42,756.04
1052.87,757.998
1054.32,758.035
1055.77,773.502
1057.23,782.404
1058.68,780.065
1060.13,767.593
1061.58,773.089
1063.03,785.962
1064.49,813.72
1065.94,823.53
1067.39,816.286
1068.84,833.187
1070.29,861.792
1071.74,860.865
1073.2,858.745
1074.65,882
1076.1,866.845
1077.55,859.658
1079,864.19
1080.46,865.303
1081.91,887.737
1083.36,906.439
1084.81,898.609
1086.26,887.735
1087.71,902.562
1089.17,891.178
1090.62,885.214
1092.07,881.661
1093.52,879.189
1094.97,876.358
1096.42,875.26
1097.88,844.332
1099.33,878.184
1100.78,884.394
1102.23,878.554
1103.68,866.69
1105.14,862.266
1106.59,861.605
1108.04,863.846
1109.49,869.563
1110.94,854.007
1112.39,827.409
1113.85,822.929
1115.3,825.318
1116.75,826.079
1118.2,814.344
1119.65,806.647
1121.11,833.483
1122.56,827.994
1124.01,806.228
1125.46,803.836
1126.91,794.324
1128.36,797.826
1129.82,804.947
1131.27,796.572
1132.72,780.61
1134.17,771.384
1135.62,776.63
1137.07,805.655
1138.53,787.61
1139.98,800.806
1141.43,789.539
1142.88,764.473
1144.33,765.474
1145.79,777.006
1147.24,773.432
1148.69,763.061
1150.14,774.568
1151.59,787.812
1153.04,781.372
1154.5,764.604
1155.95,754.155
1157.4,767.237
1158.85,784.918
1160.3,781.589
1161.76,768.415
1163.21,770.726
1164.66,757.309
1166.11,775.72
1167.56,776.342
1169.01,777.257
1170.47,766.04
1171.92,766.786
1173.37,781.918
1174.82,777.045
1176.27,781.315
1177.72,784.292
1179.18,794.281
1180.63,792.737
1182.08,797.876
1183.53,794.144
1184.98,785.226
1186.44,784.883
1187.89,793.091
1189.34,792.136
1190.79,796.968
1192.24,804.598
1193.69,797.108
1195.15,791.654
1196.6,789.068
1198.05,800.413
1199.5,813.357
1200.95,822.496
1202.41,819.416
1203.86,817.373
1205.31,802.986
1206.76,832.032
1208.21,796.333
1209.66,806.76
1211.12,810.473
1212.57,818.057
1214.02,817.035
1215.47,811.602
1216.92,843.029
1218.37,810.592
1219.83,809.602
1221.28,820.883
1222.73,819.767
1224.18,835.02
1225.63,843.159
1227.09,839.757
1228.54,838.489
1229.99,838.537
1231.44,829.97
1232.89,834.049
1234.34,824.305
1235.8,863.183
1237.25,866.244
1238.7,866.133
1240.15,846.584
1241.6,837.34
1243.06,856.701
1244.51,870.94
1245.96,863.275
1247.41,877.416
1248.86,859.249
1250.31,885.316
1251.77,889.254
1253.22,883.739
1254.67,889.998
1256.12,901.408
1257.57,909.365
1259.02,912.484
1260.48,908.044
1261.93,924.752
1263.38,963.299
1264.83,938.733
1266.28,951.754
1267.74,968.197
1269.19,973.889
1270.64,986.625
1272.09,1000.96
1273.54,996.872
1274.99,1005.45
1276.45,1015.68
1277.9,1025.61
1279.35,1023.25
1280.8,1054.51
1282.25,1072.03
1283.71,1095.93
1285.16,1113.88
1286.61,1144.91
1288.06,1182.51
1289.51,1200.28
1290.96,1197.26
1292.42,1247.7
1293.87,1276.52
1295.32,1273.41
1296.77,1308.47
1298.22,1336.15
1299.67,1381.19
1301.13,1436.99
1302.58,1464.46
1304.03,1478.17
1305.48,1537.71
1306.93,1618.89
1308.39,1658.56
1309.84,1735.42
1311.29,1779.13
1312.74,1863.4
1314.19,1942.36
1315.64,2017.05
1317.1,2104.98
1318.55,2206.71
1320,2295.73
1321.45,2386.93
1322.9,2490.7
1324.36,2575.75
1325.81,2704.79
1327.26,2788.39
1328.71,2843.8
1330.16,2904.55
1331.61,2927.79
1333.07,2960.39
1334.52,2978.17
1335.97,2983.08
1337.42,2985.99
1338.87,2930.67
1340.33,2873.83
1341.78,2853.16
1343.23,2792.83
1344.68,2696.12
1346.13,2638.96
1347.58,2547.9
1349.04,2445.07
1350.49,2362.36
1351.94,2293.31
1353.39,2204.85
1354.84,2064.84
1356.29,2040
1357.75,1921.49
1359.2,1837.27
1360.65,1750.39
1362.1,1693.04
1363.55,1648.22
1365.01,1610.19
1366.46,1572.71
1367.91,1532.08
1369.36,1489.65
1370.81,1432.3
1372.26,1416.63
1373.72,1377.23
1375.17,1367.97
1376.62,1337.87
1378.07,1304.59
1379.52,1284.43
1380.98,1259.85
1382.43,1260.4
1383.88,1249.85
1385.33,1220.17
1386.78,1207.38
1388.23,1209.64
1389.69,1174.02
1391.14,1197.04
1392.59,1179.05
1394.04,1150.82
1395.49,1151.82
1396.94,1151.23
1398.4,1150.34
1399.85,1144.22
1401.3,1131.28
1402.75,1143.44
1404.2,1155.89
1405.66,1135.35
1407.11,1140.33
1408.56,1162.73
1410.01,1143.5
1411.46,1151.74
1412.91,1153.15
1414.37,1184.61
1415.82,1185.12
1417.27,1173.61
1418.72,1164.73
1420.17,1176.92
1421.63,1181.95
1423.08,1169.03
1424.53,1175.75
1425.98,1203.35
1427.43,1189.35
1428.88,1181.36
1430.34,1188.21
1431.79,1190.1
1433.24,1206.34
1434.69,1226.2
1436.14,1217.28
1437.59,1196.74
1439.05,1214.98
1440.5,1252.21
1441.95,1271.44
1443.4,1275.31
1444.85,1291.56
1446.31,1270.05
1447.76,1281.97
1449.21,1280.6
1450.66,1285.49
1452.11,1311.73
1453.56,1328.01
1455.02,1350.93
1456.47,1372.4
1457.92,1386.61
1459.37,1412.08
1460.82,1404.67
1462.28,1387.13
1463.73,1426.74
1465.18,1429.48
1466.63,1467.45
1468.08,1474.23
1469.53,1492.98
1470.99,1500.61
1472.44,1509.35
1473.89,1549.46
1475.34,1590.92
1476.79,1615.29
1478.24,1633.18
1479.7,1648.45
1481.15,1687
1482.6,1727.78
1484.05,1710.74
1485.5,1733.99
1486.96,1786.34
1488.41,1817.76
1489.86,1864.62
1491.31,1900.07
1492.76,1924.88
1494.21,1972.6
1495.67,2018.57
1497.12,2058.57
1498.57,2111.97
1500.02,2159.2
1501.47,2239.03
1502.93,2296.97
1504.38,2353.41
1505.83,2383.94
1507.28,2474.58
1508.73,2557.33
1510.18,2664.89
1511.64,2749.7
1513.09,2843.84
1514.54,2968.04
1515.99,3076.73
1517.44,3224.81
1518.89,3359.2
1520.35,3495.48
1521.8,3644.88
1523.25,3859.23
1524.7,4081.08
1526.15,4358.1
1527.61,4556.65
1529.06,4934.1
1530.51,5290.93
1531.96,5666.57
1533.41,6094.67
1534.86,6602.09
1536.32,7187.39
1537.77,7833.57
1539.22,8529.85
1540.67,9341.46
1542.12,10139.9
1543.58,11126.9
1545.03,12087.1
1546.48,13222.1
1547.93,14484.6
1549.38,15746.4
1550.83,16992.1
1552.29,18202.8
1553.74,19671.5
1555.19,21083.5
1556.64,22472.5
1558.09,23891.2
1559.54,25166.1
1561,26214.4
1562.45,27295
1563.9,28197.8
1565.35,28597.9
1566.8,28672.4
1568.26,28292.7
1569.71,27882.7
1571.16,26866.4
1572.61,25693.9
1574.06,24304.5
1575.51,22660.8
1576.97,21051.4
1578.42,19342.4
1579.87,17541.4
1581.32,15951.9
1582.77,14489
1584.23,13099.5
1585.68,11911.5
1587.13,10869.5
1588.58,9894.9
1590.03,9089.76
1591.48,8273.82
1592.94,7673.87
1594.39,7123.16
1595.84,6630.23
1597.29,6238.56
1598.74,5855.77
1600.2,5510.61
1601.65,5241.26
1603.1,4967.32
1604.55,4735.31
1606,4543.72
1607.45,4308.9
1608.91,4076.82
1610.36,3884.94
1611.81,3630.41
1613.26,3600.45
1614.71,3361.31
1616.16,3193.85
1617.62,3101.4
1619.07,2904.65
1620.52,2826.51
1621.97,2716.92
1623.42,2619.42
1624.88,2510.52
1626.33,2409.05
1627.78,2337.11
1629.23,2265.56
1630.68,2195.42
1632.13,2114.77
1633.59,2046.02
1635.04,2022.42
1636.49,1944.83
1637.94,1888.33
1639.39,1831.84
1640.85,1821.56
1642.3,1790.66
1643.75,1753.89
1645.2,1764.46
1646.65,1706.9
1648.1,1671.21
1649.56,1639.25
1651.01,1627.84
1652.46,1588.37
1653.91,1546.74
1655.36,1517.03
1656.81,1498.01
1658.27,1497.97
1659.72,1455.19
1661.17,1469.27
1662.62,1417.08
1664.07,1424.01
1665.53,1380.62
1666.98,1377.89
1668.43,1353.17
1669.88,1341.13
1671.33,1307.01
1672.78,1282.8
1674.24,1303.05
1675.69,1303.59
1677.14,1283.8
1678.59,1267.89
1680.04,1232.86
1681.5,1222.06
1682.95,1229.11
1684.4,1222.31
1685.85,1209.56
1687.3,1158.13
1688.75,1183.81
1690.21,1202.4
1691.66,1144.85
1693.11,1144.19
1694.56,1137.38
1696.01,1143.16
1697.46,1120.46
1698.92,1122.87
1700.37,1109.16
1701.82,1098
1703.27,1098.85
1704.72,1095.84
1706.18,1078.99
1707.63,1077.92
1709.08,1078.79
1710.53,1080.85
1711.98,1085.9
1713.43,1075.53
1714.89,1088.97
1716.34,1082.36
1717.79,1071.49
1719.24,1072.44
1720.69,1085.9
1722.15,1059.91
1723.6,1060.43
1725.05,1047.16
1726.5,1065.54
1727.95,1084.21
1729.4,1068.64
1730.86,1056.15
1732.31,1053.17
1733.76,1063.41
1735.21,1049.72
1736.66,1030.46
1738.11,1040.45
1739.57,1050.28
1741.02,1038.3
1742.47,1031.79
1743.92,1048.29
1745.37,1032.58
1746.83,1024.65
1748.28,1016.68
1749.73,1010.1
1751.18,1008.62
1752.63,1001.89
1754.08,982.753
1755.54,997.023
1756.99,1019.02
1758.44,1008.08
1759.89,949.092
1761.34,960.58
1762.8,962.261
1764.25,951.73
1765.7,974.391
1767.15,969.462
1768.6,969.041
1770.05,967.088
1771.51,951.198
1772.96,939.48
1774.41,941.133
1775.86,947.618
1777.31,956.182
1778.76,937.655
1780.22,922.1
1781.67,907.107
1783.12,927.499
1784.57,915.833
1786.02,938.462
1787.48,920.951
1788.93,911.74
1790.38,927.859
1791.83,921.524
1793.28,914.854
1794.73,895.251
1796.19,879.58
1797.64,887.988
1799.09,895.105
1800.54,889.172
1801.99,904.67
1803.45,894.468
1804.9,879.155
1806.35,893.222
1807.8,894.798
1809.25,890.588
1810.7,892.732
1812.16,894.064
1813.61,885.245
1815.06,886.539
1816.51,867.519
1817.96,876.042
1819.41,871.965
1820.87,876.373
1822.32,882.626
1823.77,881.151
1825.22,879.726
1826.67,882.178
1828.13,870.706
1829.58,884.323
1831.03,889.125
1832.48,903.686
1833.93,896.814
1835.38,890.315
1836.84,895.739
1838.29,884.839
1839.74,879.829
1841.19,880.238
1842.64,910.61
1844.1,900.776
1845.55,922.879
1847,945.574
1848.45,954.227
1849.9,951.363
1851.35,946.666
1852.81,928.985
1854.26,943.408
1855.71,945.188
1857.16,945.313
1858.61,942.457
1860.07,945.09
1861.52,943.833
1862.97,946.417
1864.42,954.858
1865.87,952.07
1867.32,963.191
1868.78,946.921
1870.23,950.363
1871.68,955.068
1873.13,944.06
1874.58,934.563
1876.03,940.231
1877.49,945.408
1878.94,926.118
1880.39,902.945
1881.84,893.148
1883.29,907.919
1884.75,895.573
1886.2,904.225
1887.65,899.551
1889.1,904.688
1890.55,914.996
1892,919.527
1893.46,889.82
1894.91,863.999
1896.36,865.587
1897.81,888.849
1899.26,870.354
1900.72,844.433
1902.17,847.278
1903.62,837.057
1905.07,840.178
1906.52,841.171
1907.97,837.608
1909.43,841.283
1910.88,842.116
1912.33,836.867
1913.78,816.485
1915.23,825.1
1916.68,833.769
1918.14,821.817
1919.59,827.256
1921.04,820.339
1922.49,823.559
1923.94,819.482
1925.4,832.649
1926.85,850.664
1928.3,820.119
1929.75,835.261
1931.2,840.368
1932.65,836.277
1934.11,811.143
1935.56,821.456
1937.01,804.913
1938.46,809.154
1939.91,817.767
1941.37,830.432
1942.82,847.058
1944.27,818.378
1945.72,818.998
1947.17,819.577
1948.62,828.726
1950.08,833.356
1951.53,842.777
1952.98,831.973
1954.43,836.218
1955.88,838.461
1957.33,830.128
1958.79,827.114
1960.24,833.781
1961.69,843.427
1963.14,850.637
1964.59,852.436
1966.05,853.302
1967.5,844.397
1968.95,839.948
1970.4,848.358
1971.85,853.4
1973.3,848.505
1974.76,852.128
1976.21,863.824
1977.66,856.394
1979.11,844.502
1980.56,852.975
1982.02,849.556
1983.47,858.955
1984.92,865.391
1986.37,892.814
1987.82,872.179
1989.27,867.016
1990.73,880.761
1992.18,881.355
1993.63,880.065
1995.08,886.836
1996.53,897.481
1997.98,883.155
1999.44,875.291
2000.89,880.522
2002.34,867.391
2003.79,877.017
2005.24,899.335
2006.7,881.264
2008.15,886.021
2009.6,841.818
2011.05,863.761
2012.5,870.657
2013.95,847.988
2015.41,837.86
2016.86,862.779
2018.31,867.5
2019.76,862.933
2021.21,852.032
2022.67,836.575
2024.12,861.37
2025.57,847.305
2027.02,846.967
2028.47,819.5
2029.92,833.385
2031.38,808.707
2032.83,836.474
2034.28,807.396
2035.73,829.343
2037.18,824.102
2038.63,831.534
2040.09,822.616
2041.54,825.905
2042.99,832.404
2044.44,820.153
2045.89,818.888
2047.35,793.856
2048.8,788.252
2050.25,775.886
2051.7,798.882
2053.15,782.067
2054.6,763.769
2056.06,775.026
2057.51,784.285
2058.96,777.933
2060.41,772.005
2061.86,790.259
2063.32,772.388
2064.77,759.867
2066.22,754.325
2067.67,768.637
2069.12,785.534
2070.57,766.801
2072.03,758.16
2073.48,765.822
2074.93,756.271
2076.38,751.066
2077.83,753.602
2079.28,746.419
2080.74,775.477
2082.19,765.045
2083.64,751.35
2085.09,764.821
2086.54,744.969
2088,731.911
2089.45,738.583
2090.9,756.438
2092.35,746.076
2093.8,735.295
2095.25,731.808
2096.71,736.797
2098.16,755.444
2099.61,761.315
2101.06,763.965
2102.51,782.157
2103.97,774.149
2105.42,748.65
2106.87,744.929
2108.32,762.336
2109.77,750.505
2111.22,746.258
2112.68,745.961
2114.13,734.693
2115.58,743.755
2117.03,768.816
2118.48,770.426
2119.94,762.818
2121.39,778.845
2122.84,781.585
2124.29,772.5
2125.74,774.085
2127.19,774.041
2128.65,761.504
2130.1,764.205
2131.55,762.142
2133,774.309
2134.45,771.731
2135.9,772.733
2137.36,776.207
2138.81,773.941
2140.26,775.858
2141.71,780.028
2143.16,781.004
2144.62,774.267
2146.07,785.615
2147.52,787.726
2148.97,776.001
2150.42,781.178
2151.87,781.364
2153.33,779.888
2154.78,778.506
2156.23,780.07
2157.68,784.3
2159.13,802.099
2160.58,811.356
2162.04,807.613
2163.49,793.215
2164.94,797.342
2166.39,792.077
2167.84,808.796
2169.3,802.547
2170.75,811.961
2172.2,809.158
2173.65,810.601
2175.1,800.646
2176.55,816.39
2178.01,816.634
2179.46,817.712
2180.91,839.677
2182.36,829.745
2183.81,817.51
2185.27,817.404
2186.72,818.202
2188.17,824.022
2189.62,820.926
2191.07,842.588
2192.52,823.603
2193.98,839.509
2195.43,863.112
2196.88,845.596
2198.33,858.961
2199.78,825.161
2201.24,834.102
2202.69,829.97
2204.14,841.505
2205.59,845.392
2207.04,852.528
2208.49,843.223
2209.95,849.969
2211.4,845.96
2212.85,830.237
2214.3,854.814
2215.75,858.504
2217.2,830.226
2218.66,858.233
2220.11,861.097
2221.56,862.704
2223.01,844.816
2224.46,841.164
2225.92,841.317
2227.37,846.741
2228.82,838.226
2230.27,866.201
2231.72,859.421
2233.17,848.635
2234.63,840.082
2236.08,837.783
2237.53,869.067
2238.98,880.471
2240.43,863.464
2241.89,844.329
2243.34,865.008
2244.79,862.963
2246.24,868.452
2247.69,890.807
2249.14,864.618
2250.6,859.063
2252.05,861.162
2253.5,868.267
2254.95,894.722
2256.4,894.403
2257.85,882.764
2259.31,893.222
2260.76,897.344
2262.21,901.847
2263.66,910.684
2265.11,895.01
2266.57,903.289
2268.02,918.341
2269.47,919.199
2270.92,887.246
2272.37,910.087
2273.82,906.663
2275.28,905.666
2276.73,926.105
2278.18,921.904
2279.63,923.046
2281.08,943.258
2282.54,948.594
2283.99,909.724
2285.44,940.29
2286.89,953.831
2288.34,939.564
2289.79,934.796
2291.25,926.933
2292.7,936.035
2294.15,949.161
2295.6,930.961
2297.05,928.424
2298.5,963.244
2299.96,987.026
2301.41,1000.67
2302.86,985.655
2304.31,987.656
2305.76,995.921
2307.22,974.199
2308.67,977.419
2310.12,993.987
2311.57,992.005
2313.02,984.238
2314.47,968.633
2315.93,994.259
2317.38,1000.65
2318.83,1008.56
2320.28,1016.2
2321.73,1017.33
2323.19,1006.13
2324.64,1018.07
2326.09,1020.13
2327.54,1010.16
2328.99,1022.31
2330.44,1034.65
2331.9,1056.88
2333.35,1060.2
2334.8,1056.83
2336.25,1072.61
2337.7,1045.29
2339.16,1037.23
2340.61,1062.77
2342.06,1059.28
2343.51,1046.52
2344.96,1096.38
2346.41,1098.25
2347.87,1102.29
2349.32,1108.99
2350.77,1118.54
2352.22,1083.22
2353.67,1135.04
2355.12,1178.83
2356.58,1145.84
2358.03,1144.23
2359.48,1157.55
2360.93,1146.71
2362.38,1153.82
2363.84,1174.27
2365.29,1227.17
2366.74,1221.21
2368.19,1208.44
2369.64,1208.87
2371.09,1232.48
2372.55,1229.98
2374,1236.77
2375.45,1262.93
2376.9,1275.7
2378.35,1309.15
2379.8,1334.25
2381.26,1333.1
2382.71,1339.82
2384.16,1371.94
2385.61,1403.53
2387.06,1397.68
2388.52,1439.53
2389.97,1453.76
2391.42,1475.88
2392.87,1492.59
2394.32,1534.98
2395.77,1543.1
2397.23,1573.17
2398.68,1634.59
2400.13,1644.88
2401.58,1636.58
2403.03,1703.74
2404.49,1734.7
2405.94,1747.31
2407.39,1781.55
2408.84,1835.92
2410.29,1882.53
2411.74,1857.7
2413.2,1899.9
2414.65,1955.16
2416.1,1975.16
2417.55,1994.32
2419,2018.04
2420.46,2021.86
2421.91,2068.62
2423.36,2063.5
2424.81,2084.61
2426.26,2094.04
2427.71,2094.81
2429.17,2130.54
2430.62,2114.99
2432.07,2121.05
2433.52,2076.4
2434.97,2095.08
2436.42,2089.48
2437.88,2085.91
2439.33,2049.69
2440.78,2044.59
2442.23,2052.37
2443.68,2061.12
2445.14,2053.84
2446.59,2011.64
2448.04,1988
2449.49,1962.83
2450.94,1977.69
2452.39,1962.99
2453.85,1959.28
2455.3,1943.41
2456.75,1920.45
2458.2,1901.31
2459.65,1909.49
2461.1,1893.44
2462.56,1876.4
2464.01,1910.45
2465.46,1860.44
2466.91,1855.97
2468.36,1832.76
2469.82,1837.23
2471.27,1846.18
2472.72,1835.13
2474.17,1791.96
2475.62,1817.95
2477.07,1786.97
2478.53,1786.41
2479.98,1793.46
2481.43,1792.69
2482.88,1799.44
2484.33,1813.91
2485.79,1824.43
2487.24,1810.18
2488.69,1791.9
2490.14,1767.47
2491.59,1761.96
2493.04,1764.04
2494.5,1788.49
2495.95,1790.74
2497.4,1786.48
2498.85,1795.74
2500.3,1807.36
2501.76,1834.88
2503.21,1846.93
2504.66,1845.33
2506.11,1790.02
2507.56,1856.05
2509.01,1846.07
2510.47,1853.6
2511.92,1848.32
2513.37,1843.96
2514.82,1868.42
2516.27,1883.73
2517.72,1879.24
2519.18,1899.4
2520.63,1912.68
2522.08,1939.39
2523.53,1937.27
2524.98,1980.16
2526.44,2006.82
2527.89,2025.79
2529.34,1985.45
2530.79,2012.25
2532.24,2050.07
2533.69,2082.35
2535.15,2116.69
2536.6,2105.19
2538.05,2135.58
2539.5,2154.11
2540.95,2167.96
2542.41,2188.74
2543.86,2232.75
2545.31,2258.92
2546.76,2284.73
2548.21,2310.3
2549.66,2368.57
2551.12,2393.49
2552.57,2412.75
2554.02,2462.43
2555.47,2495.83
2556.92,2517.13
2558.37,2537.08
2559.83,2603.93
2561.28,2678.61
2562.73,2708.03
2564.18,2770.42
2565.63,2850.52
2567.09,2882.72
2568.54,2918.43
2569.99,2964.3
2571.44,3053.68
2572.89,3116.6
2574.34,3168.86
2575.8,3225.19
2577.25,3352.09
2578.7,3416.8
2580.15,3522.8
2581.6,3548.39
2583.06,3693.55
2584.51,3780.74
2585.96,3896.15
2587.41,3963.25
2588.86,4068.67
2590.31,4216.73
2591.77,4368.6
2593.22,4478.83
2594.67,4586.7
2596.12,4761.7
2597.57,4924.92
2599.02,5064.59
2600.48,5258.72
2601.93,5429.09
2603.38,5645.19
2604.83,5836
2606.28,6069.06
2607.74,6255.96
2609.19,6477.38
2610.64,6804.62
2612.09,7092.85
2613.54,7349.71
2614.99,7594.87
2616.45,7882.89
2617.9,8214.44
2619.35,8572.09
2620.8,8916.55
2622.25,9249.22
2623.71,9729.77
2625.16,10119.7
2626.61,10569
2628.06,10935.7
2629.51,11326.2
2630.96,11775.8
2632.42,12278.9
2633.87,12762.9
2635.32,13251.6
2636.77,13641.8
2638.22,14121.4
2639.68,14607.6
2641.13,15125.5
2642.58,15522.2
2644.03,16008.4
2645.48,16427.3
2646.93,16847.7
2648.39,17134.5
2649.84,17466.8
2651.29,17751.2
2652.74,18063.2
2654.19,18286.2
2655.64,18541.7
2657.1,18569
2658.55,18632.8
2660,18601
2661.45,18588.7
2662.9,18540.7
2664.36,18359.1
2665.81,18189.5
2667.26,18010.8
2668.71,17770.2
2670.16,17427.4
2671.61,17180
2673.07,16713.1
2674.52,16355.3
2675.97,15883.9
2677.42,15446.1
2678.87,14953.2
2680.32,14457.3
2681.78,13980.6
2683.23,13498
2684.68,13098
2686.13,12505.1
2687.58,12044.9
2689.04,11596.4
2690.49,11117.2
2691.94,10648.6
2693.39,10199.8
2694.84,9789.3
2696.29,9441.81
2697.75,9040.83
2699.2,8613.4
2700.65,8218.65
2702.1,7915.41
2703.55,7543
2705.01,7254.21
2706.46,6925.41
2707.91,6588.54
2709.36,6334.62
2710.81,6033.8
2712.26,5843.02
2713.72,5621.17
2715.17,5323.68
2716.62,5124.33
2718.07,4993.75
2719.52,4797.67
2720.98,4591.71
2722.43,4438.51
2723.88,4284.53
2725.33,4118.83
2726.78,3965.44
2728.23,3787.22
2729.69,3791.97
2731.14,3579.49
2732.59,3511.24
2734.04,3418.4
2735.49,3332.18
2736.94,3258.5
2738.4,3170.57
2739.85,3101.55
2741.3,3006.42
2742.75,2970.33
2744.2,2869.11
2745.66,2798.09
2747.11,2734.1
2748.56,2674.94
2750.01,2603.75
2751.46,2564.26
2752.91,2538.82
2754.37,2480.5
2755.82,2445.82
2757.27,2409.14
2758.72,2391.02
2760.17,2280.16
2761.63,2226.39
2763.08,2220.24
2764.53,2235.3
2765.98,2152.46
2767.43,2143.78
2768.88,2090.07
2770.34,2078.91
2771.79,2037.31
2773.24,2004.57
2774.69,1997.54
2776.14,1957.5
2777.59,1937.86
2779.05,1919.73
2780.5,1886.59
2781.95,1856.94
2783.4,1840.76
2784.85,1826.93
2786.31,1794.06
2787.76,1764.94
2789.21,1774.46
2790.66,1777.75
2792.11,1733.27
2793.56,1722.73
2795.02,1691.95
2796.47,1710.56
2797.92,1684.68
2799.37,1648.3
2800.82,1647.97
2802.28,1636.68
2803.73,1620.15
2805.18,1601.19
2806.63,1591.55
2808.08,1606.71
2809.53,1584.53
2810.99,1576.28
2812.44,1587.61
2813.89,1535.63
2815.34,1538.35
2816.79,1501.62
2818.24,1523.89
2819.7,1516.43
2821.15,1504.58
2822.6,1486.19
2824.05,1476.34
2825.5,1509.19
2826.96,1446.47
2828.41,1437.36
2829.86,1451.09
2831.31,1438.42
2832.76,1440.64
2834.21,1444.47
2835.67,1429.14
2837.12,1412.49
2838.57,1407.06
2840.02,1377.08
2841.47,1411.82
2842.93,1379.86
2844.38,1393.35
2845.83,1382.74
2847.28,1380.22
2848.73,1369.89
2850.18,1379.79
2851.64,1366.73
2853.09,1353.16
2854.54,1368.84
2855.99,1379.29
2857.44,1363.46
2858.9,1358.58
2860.35,1361.93
2861.8,1344.06
2863.25,1367.7
2864.7,1369.17
2866.15,1357.64
2867.61,1364.34
2869.06,1338.54
2870.51,1376.95
2871.96,1387.42
2873.41,1356.64
2874.86,1379.1
2876.32,1342.61
2877.77,1356.96
2879.22,1350.22
2880.67,1342.51
2882.12,1352.37
2883.58,1327.68
2885.03,1347.04
2886.48,1345.24
2887.93,1341.58
2889.38,1361.85
2890.83,1357.37
2892.29,1342.41
2893.74,1368.7
2895.19,1356.24
2896.64,1347.41
2898.09,1348.26
2899.54,1320.04
2901,1360.17
2902.45,1355.5
2903.9,1339.85
2905.35,1369.31
2906.8,1361.39
2908.26,1336.64
2909.71,1348.61
2911.16,1352.36
2912.61,1342.48
2914.06,1349.61
2915.51,1321.04
2916.97,1335.81
2918.42,1328.49
2919.87,1331.21
2921.32,1322.27
2922.77,1319.01
2924.23,1307.76
2925.68,1283.35
2927.13,1253.96
2928.58,1267.7
2930.03,1243.95
2931.48,1236.32
2932.94,1224.97
2934.39,1218.66
2935.84,1221.7
2937.29,1213.75
2938.74,1207.01
2940.2,1194.73
2941.65,1185.54
2943.1,1156.81
2944.55,1166.82
2946,1176.19
2947.45,1140.66
2948.91,1136.31
2950.36,1108.44
2951.81,1103.92
2953.26,1108.48
2954.71,1093.01
2956.16,1082.01
2957.62,1080.3
2959.07,1083.36
2960.52,1065.05
2961.97,1043.15
2963.42,1037.95
2964.88,1011.06
2966.33,1028.46
2967.78,1049.6
2969.23,1033.44
2970.68,1022.14
2972.13,1039.79
2973.59,1022.24
2975.04,1000.32
2976.49,987.9
2977.94,986.486
2979.39,981.737
2980.84,991.996
2982.3,992.694
2983.75,981.192
2985.2,978.393
2986.65,957.289
2988.1,945.774
2989.56,940.062
2991.01,939.276
2992.46,962.989
2993.91,919.026
2995.36,952.186
2996.81,954.798
2998.27,963.19
2999.72,947.94
3001.17,923.688
3002.62,943.938
3004.07,938.914
3005.53,924.005
3006.98,940.917
3008.43,947.073
3009.88,914.604
3011.33,918.638
3012.78,925.141
3014.24,938.244
3015.69,915.118
3017.14,916.308
3018.59,945.851
3020.04,910.907
3021.5,902.845
3022.95,900.272
3024.4,923.371
3025.85,936.726
3027.3,931.347
3028.75,917.284
3030.21,914.813
3031.66,908.131
3033.11,895.986
3034.56,907.542
3036.01,896.207
3037.46,895.077
3038.92,916.487
3040.37,905.33
3041.82,909.989
3043.27,929.94
3044.72,927.307
3046.18,916.811
3047.63,933.626
3049.08,928.511
3050.53,963.073
3051.98,945.475
3053.43,935.306
3054.89,917.577
3056.34,915.746
3057.79,915.06
3059.24,912.876
3060.69,932.987
3062.15,944.161
3063.6,935.499
3065.05,946.155
3066.5,948.797
3067.95,959.725
3069.4,962.096
3070.86,952.077
3072.31,969.631
3073.76,965.318
3075.21,958.241
3076.66,956.384
3078.11,971.179
3079.57,1001.41
3081.02,1010.05
3082.47,1010.98
3083.92,1005.75
3085.37,1037.6
3086.83,1036.26
3088.28,1012.55
3089.73,1041.12
3091.18,1069.17
3092.63,1064.4
3094.08,1075.43
3095.54,1088.73
3096.99,1122.38
3098.44,1112.05
3099.89,1117.32
3101.34,1162.39
3102.8,1153.96
3104.25,1177.25
3105.7,1190.26
3107.15,1220.16
3108.6,1213.94
3110.05,1223.84
3111.51,1245.53
3112.96,1260.75
3114.41,1309.5
3115.86,1349.78
3117.31,1343.08
3118.76,1371.89
3120.22,1383.96
3121.67,1413.55
3123.12,1432.23
3124.57,1431.24
3126.02,1440.46
3127.48,1453.04
3128.93,1494.15
3130.38,1495.23
3131.83,1510.94
3133.28,1549.58
3134.73,1549.79
3136.19,1549.35
3137.64,1581.21
3139.09,1575.22
3140.54,1534.62
3141.99,1623.45
3143.45,1616.17
3144.9,1610.77
3146.35,1611.65
3147.8,1591.51
3149.25,1611.18
3150.7,1643.6
3152.16,1610.28
3153.61,1632.26
3155.06,1635.76
3156.51,1633.66
3157.96,1632.63
3159.42,1648.37
3160.87,1612.77
3162.32,1636.43
3163.77,1629.2
3165.22,1597.77
3166.67,1620.65
3168.13,1658.38
3169.58,1638.66
3171.03,1631.63
3172.48,1657.87
3173.93,1688.13
3175.38,1673.11
3176.84,1724.95
3178.29,1715.51
3179.74,1739.47
3181.19,1764.18
3182.64,1763.7
3184.1,1820.81
3185.55,1830.24
3187,1829.87
3188.45,1830.86
3189.9,1856.51
3191.35,1877.04
3192.81,1868.57
3194.26,1909.51
3195.71,1937.03
3197.16,1930.63
3198.61,1980.6
3200.06,1971.05
3201.52,1987.88
3202.97,1960.44
3204.42,1947.25
3205.87,1927.74
3207.32,1923.75
3208.78,1897.66
3210.23,1884.75
3211.68,1840.46
3213.13,1841.17
3214.58,1806.7
3216.03,1763.85
3217.49,1734.41
3218.94,1703.02
3220.39,1671.3
3221.84,1635.79
3223.29,1556.27
3224.75,1517.45
3226.2,1500.76
3227.65,1429.97
3229.1,1425.72
3230.55,1328.88
3232,1319.99
3233.46,1289.24
3234.91,1255.71
3236.36,1254.17
3237.81,1194.84
3239.26,1166.63
3240.72,1110.22
3242.17,1106.97
3243.62,1076.02
3245.07,1067.37
3246.52,1036.38
3247.97,1027.15
3249.43,968.615
3250.88,982.687
3252.33,953.431
3253.78,940.585
3255.23,945.916
3256.68,939.051
3258.14,947.681
3259.59,922.098
3261.04,908.073
3262.49,869.761
3263.94,874.196
3265.4,850.347
3266.85,827.479
3268.3,839.104
3269.75,871.302
3271.2,843.214
3272.65,846.864
3274.11,830.707
3275.56,807.025
3277.01,846.254
3278.46,815.293
3279.91,821.292
3281.37,823.385
3282.82,812.037
3284.27,829.214
3285.72,790.386
3287.17,820.396
3288.62,798.335
3290.08,785.861
3291.53,793.845
3292.98,808.952
3294.43,805.087
3295.88,780.557
3297.33,804.43
3298.79,800.933
3300.24,788.861
3301.69,762.668
3303.14,790.705
3304.59,765.634
3306.05,783.107
3307.5,759.413
3308.95,764.609
3310.4,784.376
3311.85,778.461
3313.3,776.338
3314.76,771.151
3316.21,773.546
3317.66,775.866
3319.11,770.525
3320.56,769.081
3322.02,774.703
3323.47,767.075
3324.92,772.329
3326.37,757.331
3327.82,747.236
3329.27,758.351
3330.73,730.563
3332.18,754.103
3333.63,753.806
3335.08,743.377
3336.53,762.611
3337.98,746.59
3339.44,754.253
3340.89,737.693
3342.34,754.359
3343.79,766.598
3345.24,746.813
3346.7,716.541
3348.15,755.889
3349.6,749.371
3351.05,773.599
3352.5,764.495
3353.95,769.068
3355.41,759.565
3356.86,752.821
3358.31,755.053
3359.76,767.393
3361.21,762.728
3362.67,750.298
3364.12,777.119
3365.57,760.028
3367.02,747.206
3368.47,746.911
3369.92,757.847
3371.38,777.452
3372.83,742.229
3374.28,764.526
3375.73,775.242
3377.18,749.834
3378.63,734.322
3380.09,767.79
3381.54,760.223
3382.99,757.857
3384.44,754.615
3385.89,769.458
3387.35,745.789
3388.8,735.334
3390.25,752.246
3391.7,762.806
3393.15,770.835
3394.6,736.337
3396.06,746.542
3397.51,741.707
3398.96,746.68
3400.41,730.347
3401.86,754.811
3403.32,741.61
3404.77,756.404
3406.22,744.599
3407.67,740.904
3409.12,769.006
3410.57,775.074
3412.03,741.556
3413.48,747.026
3414.93,754.139
3416.38,745.83
3417.83,752.284
3419.28,732.984
3420.74,745.546
3422.19,728.077
3423.64,720.915
3425.09,738.068
3426.54,740.985
3428,730.043
3429.45,719.18
3430.9,744.822
3432.35,763.363
3433.8,750.685
3435.25,730.457
3436.71,712.941
3438.16,734.523
3439.61,733.001
3441.06,742.178
3442.51,745.24
3443.97,734.367
3445.42,740.67
3446.87,744.812
3448.32,748.091
3449.77,732.745
3451.22,721.616
3452.68,725.005
3454.13,733.248
3455.58,728.328
3457.03,714.252
3458.48,712.799
3459.94,718.829
3461.39,745.124
3462.84,743.41
3464.29,741.688
3465.74,749.029
3467.19,731.145
3468.65,734.937
3470.1,723.145
3471.55,745.181
3473,736.352
3474.45,727.557
3475.9,738.288
3477.36,718.789
3478.81,741.773
3480.26,741.274
3481.71,764.052
3483.16,723.834
3484.62,717.156
3486.07,767.626
3487.52,752.11
3488.97,728.877
3490.42,740.514
3491.87,741.88
3493.33,742.915
3494.78,721.2
3496.23,748.092
3497.68,733.486
3499.13,743.543
3500.58,746.768
3502.04,730.794
3503.49,745.629
3504.94,713.574
3506.39,744.366
3507.84,728.564
3509.3,744.292
3510.75,743.83
3512.2,741.815
3513.65,756.16
3515.1,732.135
3516.55,744.327
3518.01,737.538
3519.46,752.227
3520.91,733.682
3522.36,755.452
3523.81,750.853
3525.27,744.877
3526.72,761.023
3528.17,743.962
3529.62,743.451
3531.07,736.87
3532.52,733.821
3533.98,722.747
3535.43,737.038
3536.88,734.122
3538.33,729.548
3539.78,742.384
3541.24,757.069
3542.69,730.541
3544.14,754.749
3545.59,728.787
3547.04,731.883
3548.49,751.232
3549.95,734.27
3551.4,728.51
3552.85,755.531
3554.3,755.367
3555.75,738.871
3557.2,724.667
3558.66,734.531
3560.11,743.547
3561.56,737.118
3563.01,722.333
3564.46,764.176
3565.92,735.945
3567.37,736.441
3568.82,749.751
3570.27,739.147
3571.72,764.591
3573.17,758.011
3574.63,743.531
3576.08,745.118
3577.53,717.671
3578.98,754.795
3580.43,749.291
3581.89,742.558
3583.34,745.12
3584.79,755.967
3586.24,742.969
3587.69,729.82
3589.14,736.066
3590.6,738.668
3592.05,731.013
3593.5,764.849
3594.95,742.336
3596.4,721.768
3597.85,741.035
3599.31,762.712
3600.76,732.972
3602.21,737.367
3603.66,732.55
3605.11,750.972
3606.57,714.723
3608.02,749.231
3609.47,743.169
3610.92,760.344
3612.37,741.045
3613.82,728.511
3615.28,738.623
3616.73,745.719
3618.18,738.379
3619.63,745.996
3621.08,743.299
3622.54,748.3
3623.99,749.174
3625.44,746.852
3626.89,746.651
3628.34,740.28
3629.79,740.304
3631.25,757.59
3632.7,748.66
3634.15,767.914
3635.6,748.78
3637.05,758.377
3638.5,761.786
3639.96,744.785
3641.41,747.005
3642.86,772.013
3644.31,755.4
3645.76,751.632
3647.22,764.861
3648.67,763.801
3650.12,767.454
3651.57,766.724
3653.02,763.437
3654.47,760.98
3655.93,759.099
3657.38,782.26
3658.83,779.176
3660.28,751.327
3661.73,739.556
3663.19,753.442
3664.64,746.674
3666.09,753.998
3667.54,749.112
3668.99,764.502
3670.44,758.539
3671.9,790.994
3673.35,754.991
3674.8,768.823
3676.25,779.891
3677.7,764.885
3679.16,773.541
3680.61,753.459
3682.06,759.287
3683.51,751.323
3684.96,789.275
3686.41,746.381
3687.87,756.644
3689.32,744.271
3690.77,770.444
3692.22,747.68
3693.67,746.506
3695.12,766.234
3696.58,764.636
3698.03,760.727
3699.48,784.338
3700.93,774.966
3702.38,771.417
3703.84,791.46
3705.29,759.605
3706.74,774.832
3708.19,781.925
3709.64,760.281
3711.09,761.105
3712.55,782.346
3714,767.234
3715.45,762.615
3716.9,777.983
3718.35,817.119
3719.8,771.031
3721.26,765.303
3722.71,765.612
3724.16,778.296
3725.61,761.353
3727.06,760.498
3728.52,792.262
3729.97,785.271
3731.42,802.542
3732.87,776.545
3734.32,753.775
3735.77,778.133
3737.23,793.002
3738.68,782.911
3740.13,784.03
3741.58,743.028
3743.03,812.991
3744.49,802.354
3745.94,779.171
3747.39,792.8
3748.84,789.336
3750.29,785.693
3751.74,781.179
3753.2,782.059
3754.65,781.932
3756.1,791.539
3757.55,782.283
3759,794.66
3760.46,766.511
3761.91,791.436
3763.36,806.182
3764.81,780.629
3766.26,790.188
3767.71,792.867
3769.17,788.828
3770.62,792.327
3772.07,790.956
3773.52,778.409
3774.97,778.357
3776.42,802.185
3777.88,784.465
3779.33,805.841
3780.78,812.149
3782.23,810.756
3783.68,817.176
3785.14,793.272
3786.59,804.453
3788.04,789.479
3789.49,794.189
3790.94,787.99
3792.39,790.831
3793.85,813.459
3795.3,816.915
3796.75,818.047
3798.2,823.641
3799.65,826.139
3801.1,810.171
3802.56,805.955
3804.01,827.619
3805.46,813.774
3806.91,823.244
3808.36,789.96
3809.82,811.427
3811.27,809.091
3812.72,796.407
3814.17,809.92
3815.62,816.253
3817.07,812.297
3818.53,808.254
3819.98,833.605
3821.43,829.352
3822.88,811.274
3824.33,831.002
3825.79,833.663
3827.24,815.723
3828.69,839.297
3830.14,814.837
3831.59,837.575
3833.04,809.525
3834.5,811.999
3835.95,819.78
3837.4,840.938
3838.85,809.647
3840.3,829.089
3841.76,846.033
3843.21,830.906
3844.66,811.931
3846.11,827.416
3847.56,824.697
3849.01,865.651
3850.47,835.683
3851.92,843.665
3853.37,834.366
3854.82,850.286
3856.27,835.928
3857.72,845.35
3859.18,848.93
3860.63,874.799
3862.08,858.802
3863.53,854.282
3864.98,839.657
3866.44,854.851
3867.89,837.419
3869.34,871.036
3870.79,866.03
3872.24,867.172
3873.69,854.145
3875.15,840.919
3876.6,865.09
3878.05,865.682
3879.5,855.748
3880.95,858.753
3882.41,849.233
3883.86,873.357
3885.31,862.828
3886.76,856.401
3888.21,871.188
3889.66,878.361
3891.12,876.277
3892.57,858.333
3894.02,890.996
3895.47,878.3
3896.92,888.383
3898.37,890.129
3899.83,870.921
3901.28,899.618
3902.73,888.299
3904.18,902.442
3905.63,887.301
3907.09,887.525
3908.54,873.773
3909.99,889.048
3911.44,888.965
3912.89,902.891
3914.34,898.385
3915.8,881.819
3917.25,906.682
3918.7,926.054
3920.15,941.032
3921.6,906.502
3923.06,930.62
3924.51,941.842
3925.96,927.824
3927.41,916.855
3928.86,933.938
3930.31,924.021
3931.77,934.445
3933.22,931.836
3934.67,932.323
3936.12,922.34
3937.57,936.43
3939.02,925.278
3940.48,943.675
3941.93,956.466
3943.38,957.531
3944.83,966.969
3946.28,958.523
3947.74,965.613
3949.19,971.979
3950.64,982.545
3952.09,990.957
3953.54,1003.14
3954.99,968.721
3956.45,994.709
3957.9,980.71
3959.35,1000
3960.8,984.767
3962.25,1002.1
3963.71,1014.05
3965.16,993.625
3966.61,992.793
3968.06,1010.24
3969.51,994.658
3970.96,1045.27
3972.42,1012.99
3973.87,1016.21
3975.32,1034.51
3976.77,1032.35
3978.22,1037.74
3979.68,1034.94
3981.13,1000.55
3982.58,1034.13
3984.03,1029.1
3985.48,1053.94
3986.93,1025.67
3988.39,1034.39
3989.84,1064.98
3991.29,1063.2
3992.74,1094.23
3994.19,1064.02
3995.64,1066.55
3997.1,1082.11
3998.55,1056.67
4000,1063.12
