-20,24.9694
-18.5482,29.7677
-17.0964,35.5535
-15.6446,40.3211
-14.1928,50.6016
-12.7411,58.0865
-11.2893,67.2837
-9.83749,73.6725
-8.3857,117.421
-6.93391,193.22
-5.48212,1902.98
-4.03034,12656
-2.57855,39976.7
-1.12676,63282.9
0.325027,73570
1.77681,60115.9
3.2286,39405.5
4.68039,11079.3
6.13218,1773.6
7.58397,295.954
9.03575,177.857
10.4875,174.593
11.9393,160.54
13.3911,155.308
14.8429,147.37
16.2947,138.81
17.7465,133.667
19.1983,118.531
20.6501,99.9789
22.1018,81.5968
23.5536,76.8465
25.0054,51.9679
26.4572,42.4314
27.909,37.7065
29.3608,33.8801
30.8126,27.5799
32.2644,19.5065
33.7161,14.4386
35.1679,16.3349
36.6197,19.5615
38.0715,18.1506
39.5233,15.7347
40.9751,14.4841
42.4269,13.7584
43.8787,14.9449
45.3304,16.2121
46.7822,42.1088
48.234,76.2827
49.6858,134.2
51.1376,248.547
52.5894,480.389
54.0412,803.263
55.493,1202.87
56.9447,1657.49
58.3965,2111.87
59.8483,2505.99
61.3001,2838.59
62.7519,3130.98
64.2037,3383.22
65.6555,3556.63
67.1073,3632.22
68.559,3695.25
70.0108,3733.08
71.4626,3727.32
72.9144,3701.56
74.3662,3719.2
75.818,3774.41
77.2698,3856.06
78.7216,3908.95
80.1733,4019.34
81.6251,4090.67
83.0769,4159.63
84.5287,4243.6
85.9805,4226.99
87.4323,4205.33
88.8841,4085.46
90.3359,3901.2
91.7877,3718.41
93.2394,3472.3
94.6912,3285.06
96.143,3126.53
97.5948,3001.8
99.0466,2922.91
100.498,2833.42
101.95,2769.99
103.402,2732.53
104.854,2677.25
106.306,2619.61
107.757,2540.48
109.209,2480.44
110.661,2435.67
112.113,2418.37
113.564,2401.55
115.016,2377.4
116.468,2369.63
117.92,2338.03
119.372,2262.42
120.823,2222.9
122.275,2217.46
123.727,2186.53
125.179,2166.72
126.631,2143.22
128.082,2112.95
129.534,2100.74
130.986,2059.1
132.438,1995.03
133.889,1956.85
135.341,1924.72
136.793,1888.33
138.245,1861.77
139.697,1839.51
141.148,1774.11
142.6,1754.77
144.052,1718
145.504,1694.17
146.956,1676.08
148.407,1635.19
149.859,1658.6
151.311,1661.14
152.763,1626.01
154.215,1575.31
155.666,1593.19
157.118,1580.53
158.57,1551.14
160.022,1548.02
161.473,1565.46
162.925,1572.81
164.377,1575.48
165.829,1587.94
167.281,1580.68
168.732,1563.55
170.184,1604.79
171.636,1654.94
173.088,1679.73
174.54,1696.02
175.991,1706.77
177.443,1690.51
178.895,1662.39
180.347,1623.21
181.798,1567.55
183.25,1496.99
184.702,1453.57
186.154,1437.76
187.606,1390.59
189.057,1353.42
190.509,1329.85
191.961,1311.51
193.413,1290.42
194.865,1304.11
196.316,1298.38
197.768,1271
199.22,1268.85
200.672,1267.6
202.124,1284.58
203.575,1271.21
205.027,1259.01
206.479,1254.56
207.931,1249.06
209.382,1268.36
210.834,1275.64
212.286,1267.36
213.738,1254.07
215.19,1271.25
216.641,1254.03
218.093,1231.11
219.545,1229.9
220.997,1260.29
222.449,1219.98
223.9,1235.47
225.352,1248.07
226.804,1254.37
228.256,1260.79
229.707,1260.97
231.159,1256.73
232.611,1247.31
234.063,1246.15
235.515,1223.07
236.966,1220.46
238.418,1222.14
239.87,1220.58
241.322,1214.99
242.774,1203.09
244.225,1198.71
245.677,1214.53
247.129,1221.37
248.581,1209.4
250.033,1190.2
251.484,1189.12
252.936,1183.57
254.388,1172.89
255.84,1177.54
257.291,1211.16
258.743,1183.96
260.195,1150.81
261.647,1163.93
263.099,1177.96
264.55,1146
266.002,1129.9
267.454,1152.85
268.906,1139.71
270.358,1137
271.809,1166.37
273.261,1134.03
274.713,1138.16
276.165,1116.26
277.616,1101.26
279.068,1091.87
280.52,1095.72
281.972,1108.27
283.424,1072.95
284.875,1041.68
286.327,1046.5
287.779,1082.68
289.231,1064.62
290.683,1049.57
292.134,1017.03
293.586,997.402
295.038,1010.92
296.49,1037.51
297.941,1004.72
299.393,1011
300.845,1017.11
302.297,991.752
303.749,966.84
305.2,963.07
306.652,958.895
308.104,953.912
309.556,950.39
311.008,951.753
312.459,955.579
313.911,960.409
315.363,941.237
316.815,917.062
318.267,936.493
319.718,918.916
321.17,920.788
322.622,940.142
324.074,947.69
325.525,913.952
326.977,905.768
328.429,893.878
329.881,900.352
331.333,913.078
332.784,903.523
334.236,888.207
335.688,879.606
337.14,896.267
338.592,892.818
340.043,881.516
341.495,904.079
342.947,861.969
344.399,874.824
345.85,891.457
347.302,898.806
348.754,883.851
350.206,901.088
351.658,879.309
353.109,868.885
354.561,862.57
356.013,856.149
357.465,871.755
358.917,866.921
360.368,852.217
361.82,841.851
363.272,837.89
364.724,819.501
366.176,863.819
367.627,874.193
369.079,868.687
370.531,860.315
371.983,847.166
373.434,831.543
374.886,839.439
376.338,838.141
377.79,831.031
379.242,820.713
380.693,822.132
382.145,829.028
383.597,827.746
385.049,821.192
386.501,823.179
387.952,825.963
389.404,834.368
390.856,844.224
392.308,845.4
393.759,851.825
395.211,858.227
396.663,861.427
398.115,827.116
399.567,853.295
401.018,849.477
402.47,818.464
403.922,817.823
405.374,826.537
406.826,844.917
408.277,827.582
409.729,826.195
411.181,856.432
412.633,827.573
414.085,822.775
415.536,831.187
416.988,835.041
418.44,834.539
419.892,853.661
421.343,816.384
422.795,826.617
424.247,835.226
425.699,828.754
427.151,812.341
428.602,804.089
430.054,812.959
431.506,811.722
432.958,812.3
434.41,796.782
435.861,766.388
437.313,797.478
438.765,818.209
440.217,823.37
441.668,817.382
443.12,812.01
444.572,806.987
446.024,811.725
447.476,793.908
448.927,785.939
450.379,784.889
451.831,780.397
453.283,797.403
454.735,801.713
456.186,790.021
457.638,792.776
459.09,803.93
460.542,801.314
461.993,814.466
463.445,787.87
464.897,811.025
466.349,813.911
467.801,787.262
469.252,798.209
470.704,803.583
472.156,801.914
473.608,804.055
475.06,813.735
476.511,815.388
477.963,816.994
479.415,778.376
480.867,795.87
482.319,812.318
483.77,798.57
485.222,774.662
486.674,774.474
488.126,789.503
489.577,795.991
491.029,796.879
492.481,795.456
493.933,803.764
495.385,797.411
496.836,775.148
498.288,771.833
499.74,779.734
501.192,786.258
502.644,789.504
504.095,807.752
505.547,792.694
506.999,784.749
508.451,772.458
509.902,765.484
511.354,796.805
512.806,777.849
514.258,771.921
515.71,757.457
517.161,754.435
518.613,774.208
520.065,778.735
521.517,745.926
522.969,762.011
524.42,773.661
525.872,781.12
527.324,781.382
528.776,775.268
530.228,783.115
531.679,778.285
533.131,766.373
534.583,762.256
536.035,770.505
537.486,798.608
538.938,777.411
540.39,781.536
541.842,788.616
543.294,790.189
544.745,779.296
546.197,785.7
547.649,797.813
549.101,786.077
550.553,773.651
552.004,770.855
553.456,785.429
554.908,773.583
556.36,759.633
557.811,764.511
559.263,774.136
560.715,774.913
562.167,779.746
563.619,741.686
565.07,772.928
566.522,783.928
567.974,785.67
569.426,786.767
570.878,790.832
572.329,792.859
573.781,776.438
575.233,765.075
576.685,765.73
578.137,767.123
579.588,755.616
581.04,745.07
582.492,740.954
583.944,757.866
585.395,768.35
586.847,772.332
588.299,784.532
589.751,762.444
591.203,745.29
592.654,748.241
594.106,751.481
595.558,757.786
597.01,749.914
598.462,766.561
599.913,771.679
601.365,781.935
602.817,776.954
604.269,767.795
605.72,777.582
607.172,768.589
608.624,776.429
610.076,778.292
611.528,760.919
612.979,757.665
614.431,771.203
615.883,770.983
617.335,786.236
618.787,762.817
620.238,763.573
621.69,764.413
623.142,756.389
624.594,735.688
626.046,762.837
627.497,789.622
628.949,788.293
630.401,795.279
631.853,801.246
633.304,788.319
634.756,791.892
636.208,787.733
637.66,797.455
639.112,790.045
640.563,773.064
642.015,783.874
643.467,815.255
644.919,791.829
646.371,769.685
647.822,762.553
649.274,762.976
650.726,785.527
652.178,793.737
653.629,800.055
655.081,810.561
656.533,810.547
657.985,804.322
659.437,804.542
660.888,820.944
662.34,783.3
663.792,793.237
665.244,794.744
666.696,798.092
668.147,802.978
669.599,808.129
671.051,808.935
672.503,822.674
673.954,821.608
675.406,818.616
676.858,830.95
678.31,836.598
679.762,820.755
681.213,814.021
682.665,796.832
684.117,789.73
685.569,799.074
687.021,803.749
688.472,856.618
689.924,810.044
691.376,809.013
692.828,826.814
694.28,827.892
695.731,819.879
697.183,837.895
698.635,799.565
700.087,831.391
701.538,860.23
702.99,846.789
704.442,828.643
705.894,828.965
707.346,833.557
708.797,823.959
710.249,841.877
711.701,842.953
713.153,834.263
714.605,827.656
716.056,830.668
717.508,842.658
718.96,841.101
720.412,838.788
721.863,850.746
723.315,837.836
724.767,809.052
726.219,825.415
727.671,869.88
729.122,842.205
730.574,847.1
732.026,857.005
733.478,858.617
734.93,854.885
736.381,841.201
737.833,828.795
739.285,859.423
740.737,841.694
742.189,844.165
743.64,857.415
745.092,863.301
746.544,844.646
747.996,848.536
749.447,831.085
750.899,833.993
752.351,845.525
753.803,842.036
755.255,830.097
756.706,820.921
758.158,833.061
759.61,847.013
761.062,852.051
762.514,849.447
763.965,855.56
765.417,872.355
766.869,832.986
768.321,833.455
769.772,840.005
771.224,848.992
772.676,846.707
774.128,828.023
775.58,828.932
777.031,850.567
778.483,870.841
779.935,863.071
781.387,866.677
782.839,866.113
784.29,860.653
785.742,851.949
787.194,845.87
788.646,853.467
790.098,850.789
791.549,848.738
793.001,854.227
794.453,846.255
795.905,867.971
797.356,889.398
798.808,861.774
800.26,871.475
801.712,877.072
803.164,848.961
804.615,848.266
806.067,871.322
807.519,897.955
808.971,888.464
810.423,893.405
811.874,886.523
813.326,882.893
814.778,877.46
816.23,897.717
817.681,876.811
819.133,889.341
820.585,898.752
822.037,890.898
823.489,869.746
824.94,879.801
826.392,920.079
827.844,868.72
829.296,896.764
830.748,895.147
832.199,886.101
833.651,893.49
835.103,891.487
836.555,927.929
838.007,908.428
839.458,906.877
840.91,918.578
842.362,923.849
843.814,924.964
845.265,894.271
846.717,916.784
848.169,937.04
849.621,947.819
851.073,930.151
852.524,945.444
853.976,948.477
855.428,934.171
856.88,961.282
858.332,921.785
859.783,944.421
861.235,961.588
862.687,966.405
864.139,954.046
865.59,936.631
867.042,915.434
868.494,945.051
869.946,913.151
871.398,924.15
872.849,926.803
874.301,920.822
875.753,934.343
877.205,912.078
878.657,936.183
880.108,949.392
881.56,950.451
883.012,929.414
884.464,930.703
885.915,925.944
887.367,917.644
888.819,934.424
890.271,962.152
891.723,940.268
893.174,955.007
894.626,961.638
896.078,945.321
897.53,944.539
898.982,947.498
900.433,967.023
901.885,961.208
903.337,964.42
904.789,966.662
906.241,966.554
907.692,974.627
909.144,963.861
910.596,953.681
912.048,980.076
913.499,971.505
914.951,973.644
916.403,997.871
917.855,1002.84
919.307,1001.6
920.758,1025.02
922.21,1000.56
923.662,1008.38
925.114,1009.62
926.566,1017.48
928.017,1017.69
929.469,990.299
930.921,987.164
932.373,1004.85
933.824,998.022
935.276,1027.72
936.728,1011.67
938.18,1023.69
939.632,1024.59
941.083,991.756
942.535,976.171
943.987,996.821
945.439,1007.55
946.891,1026.92
948.342,1006.8
949.794,986.653
951.246,999.577
952.698,1012.1
954.15,980.49
955.601,983.862
957.053,981.4
958.505,1023.7
959.957,1015.78
961.408,1008.7
962.86,997.299
964.312,990.053
965.764,1026.44
967.216,1003.01
968.667,1014.39
970.119,1019.48
971.571,1035.03
973.023,1027.72
974.475,1006.3
975.926,1020.94
977.378,1036.03
978.83,1025.17
980.282,994.592
981.733,1021.79
983.185,1032.48
984.637,1025.5
986.089,1026.2
987.541,1045.5
988.992,1003.5
990.444,1015.89
991.896,1042.76
993.348,1045.1
994.8,1046.04
996.251,1043.71
997.703,1042.3
999.155,1075.08
1000.61,1043.91
1002.06,1046.42
1003.51,1072.45
1004.96,1074.2
1006.41,1080.3
1007.87,1095.3
1009.32,1097.2
1010.77,1078.61
1012.22,1070.77
1013.67,1075.31
1015.12,1117.97
1016.58,1125.82
1018.03,1115.07
1019.48,1114.41
1020.93,1130.26
1022.38,1122.28
1023.84,1126.57
1025.29,1121.02
1026.74,1117.8
1028.19,1132.94
1029.64,1144.26
1031.09,1155.72
1032.55,1176.96
1034,1193.96
1035.45,1182.72
1036.9,1200.36
1038.35,1192.54
1039.8,1203.11
1041.26,1228.68
1042.71,1217.95
1044.16,1219.87
1045.61,1238.67
1047.06,1238.75
1048.52,1253.24
1049.97,1302.65
1051.42,1295.14
1052.87,1288.95
1054.32,1308.43
1055.77,1329.52
1057.23,1343.93
1058.68,1374.93
1060.13,1383.06
1061.58,1388.13
1063.03,1382.44
1064.49,1403.09
1065.94,1404.2
1067.39,1405.03
1068.84,1417.17
1070.29,1417.84
1071.74,1464.55
1073.2,1484.07
1074.65,1468.48
1076.1,1494.41
1077.55,1502.3
1079,1509.51
1080.46,1516.27
1081.91,1520.86
1083.36,1529.99
1084.81,1496.02
1086.26,1488.03
1087.71,1513.45
1089.17,1554.19
1090.62,1522.57
1092.07,1507.7
1093.52,1517.21
1094.97,1513.72
1096.42,1497.51
1097.88,1513.33
1099.33,1511.15
1100.78,1515.04
1102.23,1514.9
1103.68,1496.74
1105.14,1468.34
1106.59,1447.89
1108.04,1452.19
1109.49,1463.33
1110.94,1468.24
1112.39,1441.99
1113.85,1462.19
1115.3,1466.96
1116.75,1455.64
1118.2,1438.16
1119.65,1419.42
1121.11,1404.23
1122.56,1410.22
1124.01,1383.31
1125.46,1386.68
1126.91,1399.94
1128.36,1374.69
1129.82,1370.99
1131.27,1378.51
1132.72,1381.94
1134.17,1397.58
1135.62,1369.8
1137.07,1368.73
1138.53,1351.87
1139.98,1329.4
1141.43,1327.95
1142.88,1343.91
1144.33,1343.97
1145.79,1334.44
1147.24,1345.05
1148.69,1328.28
1150.14,1314.98
1151.59,1344.11
1153.04,1321.89
1154.5,1348.65
1155.95,1362.07
1157.4,1344.67
1158.85,1321.72
1160.3,1338.55
1161.76,1332.43
1163.21,1310.58
1164.66,1331
1166.11,1336.56
1167.56,1305.09
1169.01,1323.24
1170.47,1328.2
1171.92,1327.78
1173.37,1345.99
1174.82,1349.65
1176.27,1353.27
1177.72,1352.98
1179.18,1327.01
1180.63,1348.15
1182.08,1355.51
1183.53,1365.59
1184.98,1370.73
1186.44,1359.5
1187.89,1349.95
1189.34,1346.71
1190.79,1406.26
1192.24,1373.21
1193.69,1358.84
1195.15,1360.39
1196.6,1374.17
1198.05,1391.72
1199.5,1407.02
1200.95,1396.33
1202.41,1379.1
1203.86,1385.21
1205.31,1389.29
1206.76,1414.9
1208.21,1426.73
1209.66,1393.21
1211.12,1378.81
1212.57,1392.38
1214.02,1423.06
1215.47,1441.85
1216.92,1427.33
1218.37,1412.97
1219.83,1452.92
1221.28,1431.04
1222.73,1443.95
1224.18,1453.29
1225.63,1443.88
1227.09,1442.37
1228.54,1458.09
1229.99,1451.31
1231.44,1454.75
1232.89,1434.51
1234.34,1453.57
1235.8,1459.22
1237.25,1446.9
1238.7,1438.94
1240.15,1454.64
1241.6,1486.19
1243.06,1523.06
1244.51,1507.5
1245.96,1525.93
1247.41,1498.28
1248.86,1520.04
1250.31,1545.73
1251.77,1537.86
1253.22,1531.53
1254.67,1534.35
1256.12,1562.05
1257.57,1600.62
1259.02,1599.39
1260.48,1612.12
1261.93,1610.87
1263.38,1646.25
1264.83,1659.67
1266.28,1655.05
1267.74,1673.49
1269.19,1682.74
1270.64,1686.6
1272.09,1699.87
1273.54,1716.41
1274.99,1725.94
1276.45,1774.92
1277.9,1800.11
1279.35,1830.83
1280.8,1885.15
1282.25,1898.15
1283.71,1945.77
1285.16,1974.75
1286.61,2005.69
1288.06,2050.2
1289.51,2073.83
1290.96,2133.22
1292.42,2213.46
1293.87,2300.99
1295.32,2313.03
1296.77,2351.56
1298.22,2377.64
1299.67,2438.09
1301.13,2526.24
1302.58,2608.94
1304.03,2681.31
1305.48,2751.59
1306.93,2887.55
1308.39,3012.44
1309.84,3109.62
1311.29,3251.89
1312.74,3367.3
1314.19,3532.18
1315.64,3690.05
1317.1,3829.34
1318.55,3996.32
1320,4149.32
1321.45,4257.79
1322.9,4394.82
1324.36,4668.63
1325.81,4857.73
1327.26,5074.77
1328.71,5219.37
1330.16,5311.07
1331.61,5436.13
1333.07,5535.47
1334.52,5557.81
1335.97,5579.08
1337.42,5534.28
1338.87,5483.89
1340.33,5465.27
1341.78,5340.26
1343.23,5280.04
1344.68,5124.37
1346.13,4968.34
1347.58,4766.89
1349.04,4531.32
1350.49,4360.69
1351.94,4209.27
1353.39,4020.71
1354.84,3845.72
1356.29,3628.99
1357.75,3535.37
1359.2,3420.56
1360.65,3257.41
1362.1,3119.13
1363.55,3006.37
1365.01,2889.8
1366.46,2805.19
1367.91,2731.53
1369.36,2664.16
1370.81,2568.68
1372.26,2471.7
1373.72,2417.73
1375.17,2386.75
1376.62,2339.95
1378.07,2275.04
1379.52,2234.71
1380.98,2185.18
1382.43,2168.87
1383.88,2169.67
1385.33,2156.87
1386.78,2122.01
1388.23,2093.66
1389.69,2096.36
1391.14,2032.15
1392.59,2021.24
1394.04,2064.53
1395.49,2036.38
1396.94,2018.54
1398.4,2015.01
1399.85,2016.09
1401.3,1993.55
1402.75,1974.49
1404.2,1989.1
1405.66,2002.83
1407.11,1998.04
1408.56,1988.75
1410.01,1980.77
1411.46,1985.06
1412.91,1962.65
1414.37,1944.5
1415.82,1957.61
1417.27,1985.04
1418.72,1978.66
1420.17,1991.18
1421.63,1987.62
1423.08,1971.79
1424.53,1991.43
1425.98,2049.95
1427.43,2034.27
1428.88,2049.61
1430.34,2001.49
1431.79,2021.51
1433.24,2031.98
1434.69,2046.77
1436.14,2079.25
1437.59,2069.74
1439.05,2082.71
1440.5,2099.03
1441.95,2091.58
1443.4,2119.57
1444.85,2142.14
1446.31,2144.06
1447.76,2146.86
1449.21,2160.14
1450.66,2167.88
1452.11,2211.91
1453.56,2235.64
1455.02,2238.4
1456.47,2259.17
1457.92,2263.06
1459.37,2286.19
1460.82,2295.58
1462.28,2383.08
1463.73,2380.18
1465.18,2390.99
1466.63,2430.97
1468.08,2464.11
1469.53,2484.27
1470.99,2502.63
1472.44,2533.79
1473.89,2563.8
1475.34,2595.95
1476.79,2619.8
1478.24,2658.7
1479.7,2723.39
1481.15,2799.14
1482.6,2802.61
1484.05,2819.11
1485.5,2882.53
1486.96,2919.88
1488.41,2958.53
1489.86,3018.84
1491.31,3115.29
1492.76,3180.02
1494.21,3232.62
1495.67,3323.22
1497.12,3427.13
1498.57,3449.87
1500.02,3558.96
1501.47,3659.33
1502.93,3722.82
1504.38,3834.94
1505.83,3975.29
1507.28,4091.98
1508.73,4193.96
1510.18,4321.52
1511.64,4511.59
1513.09,4687.21
1514.54,4841.32
1515.99,5024.03
1517.44,5247.17
1518.89,5499.13
1520.35,5823.45
1521.8,6136.72
1523.25,6452.91
1524.7,6787.22
1526.15,7193.77
1527.61,7683.23
1529.06,8159.16
1530.51,8836.77
1531.96,9542.54
1533.41,10251.2
1534.86,11071.1
1536.32,12028.9
1537.77,13039
1539.22,14080.6
1540.67,15430.9
1542.12,16841.1
1543.58,18424.6
1545.03,20267.1
1546.48,21876.9
1547.93,23741.9
1549.38,25700
1550.83,27980.3
1552.29,30217.1
1553.74,32356.1
1555.19,34507.5
1556.64,36613.1
1558.09,38755.4
1559.54,40669.5
1561,42250.7
1562.45,43445.1
1563.9,44096.8
1565.35,44549.1
1566.8,44241.8
1568.26,43529.8
1569.71,42317.9
1571.16,40592.7
1572.61,38584.1
1574.06,36465.3
1575.51,34024.4
1576.97,31498.2
1578.42,29151.3
1579.87,26847.4
1581.32,24459.1
1582.77,22274.9
1584.23,20305.5
1585.68,18549
1587.13,16918
1588.58,15507.6
1590.03,14190
1591.48,13039.5
1592.94,12178.6
1594.39,11280.4
1595.84,10467.2
1597.29,9891.39
1598.74,9398.37
1600.2,8948.82
1601.65,8506.89
1603.1,8048.53
1604.55,7686.86
1606,7364.86
1607.45,7038.05
1608.91,6684.15
1610.36,6350.8
1611.81,5951.46
1613.26,5758.32
1614.71,5403.95
1616.16,5182.95
1617.62,4841.76
1619.07,4625.7
1620.52,4473.16
1621.97,4258.13
1623.42,4123.34
1624.88,4030.17
1626.33,3834.04
1627.78,3695.87
1629.23,3602.02
1630.68,3532.65
1632.13,3407.41
1633.59,3259.42
1635.04,3205.84
1636.49,3163.37
1637.94,3049.07
1639.39,2948.18
1640.85,2914.75
1642.3,2916.59
1643.75,2841.86
1645.2,2768.37
1646.65,2728.69
1648.1,2635.15
1649.56,2569.54
1651.01,2566.24
1652.46,2545.52
1653.91,2473.55
1655.36,2432.48
1656.81,2404.85
1658.27,2356.74
1659.72,2370.59
1661.17,2293.65
1662.62,2241.89
1664.07,2247.13
1665.53,2212.86
1666.98,2179.47
1668.43,2178.46
1669.88,2175.22
1671.33,2136.93
1672.78,2099.47
1674.24,2064.23
1675.69,2042.76
1677.14,2026.36
1678.59,2006.02
1680.04,1981.15
1681.5,1968.17
1682.95,1964.86
1684.4,1917.76
1685.85,1904.11
1687.3,1923.04
1688.75,1884.46
1690.21,1890.85
1691.66,1820.88
1693.11,1869.86
1694.56,1835.32
1696.01,1799.63
1697.46,1825.54
1698.92,1807.34
1700.37,1795.28
1701.82,1788.65
1703.27,1797.92
1704.72,1761.78
1706.18,1765.71
1707.63,1757.72
1709.08,1721.79
1710.53,1731.46
1711.98,1755.2
1713.43,1724.25
1714.89,1728.98
1716.34,1747.23
1717.79,1738.06
1719.24,1727.95
1720.69,1707.46
1722.15,1742.85
1723.6,1754.01
1725.05,1753.08
1726.5,1768.96
1727.95,1707.83
1729.4,1754.15
1730.86,1735.64
1732.31,1704.76
1733.76,1692.43
1735.21,1711.28
1736.66,1724.02
1738.11,1690.45
1739.57,1687.46
1741.02,1682.28
1742.47,1681.78
1743.92,1694.51
1745.37,1716.41
1746.83,1670.07
1748.28,1648.63
1749.73,1656.93
1751.18,1637.26
1752.63,1615.92
1754.08,1609.91
1755.54,1581.49
1756.99,1618.64
1758.44,1603.03
1759.89,1594.86
1761.34,1574.58
1762.8,1573.09
1764.25,1584.78
1765.7,1579.78
1767.15,1533.71
1768.6,1558.72
1770.05,1565.49
1771.51,1516.05
1772.96,1521.56
1774.41,1534.61
1775.86,1503.77
1777.31,1504.35
1778.76,1507.09
1780.22,1475.44
1781.67,1457.29
1783.12,1477.31
1784.57,1525.16
1786.02,1482.38
1787.48,1505.7
1788.93,1488.24
1790.38,1466.04
1791.83,1474.17
1793.28,1472.89
1794.73,1470.04
1796.19,1456.15
1797.64,1470.65
1799.09,1468
1800.54,1439.21
1801.99,1435.95
1803.45,1454.63
1804.9,1446.96
1806.35,1445.4
1807.8,1433.19
1809.25,1461.56
1810.7,1450.46
1812.16,1438.58
1813.61,1424.04
1815.06,1424.31
1816.51,1426.65
1817.96,1428.59
1819.41,1426.75
1820.87,1418.72
1822.32,1436.22
1823.77,1401.53
1825.22,1395.87
1826.67,1419.33
1828.13,1414.02
1829.58,1428.02
1831.03,1455.19
1832.48,1444.17
1833.93,1461.52
1835.38,1452.74
1836.84,1428.97
1838.29,1447.87
1839.74,1442.97
1841.19,1449.68
1842.64,1450.8
1844.1,1506.46
1845.55,1493.09
1847,1485.74
1848.45,1511.32
1849.9,1527.32
1851.35,1533.22
1852.81,1508.58
1854.26,1501.67
1855.71,1525.76
1857.16,1545.05
1858.61,1522.96
1860.07,1488.67
1861.52,1540.54
1862.97,1529.17
1864.42,1546.9
1865.87,1538.72
1867.32,1555.47
1868.78,1541.1
1870.23,1545.45
1871.68,1521.52
1873.13,1504.59
1874.58,1528.17
1876.03,1489.43
1877.49,1497.68
1878.94,1445.64
1880.39,1471.08
1881.84,1456.05
1883.29,1475.97
1884.75,1489.37
1886.2,1483.42
1887.65,1482.49
1889.1,1457.1
1890.55,1442.1
1892,1426.89
1893.46,1418.22
1894.91,1386.57
1896.36,1367.98
1897.81,1356.51
1899.26,1360.34
1900.72,1383.91
1902.17,1383.29
1903.62,1389.34
1905.07,1381.53
1906.52,1357.44
1907.97,1342.77
1909.43,1345.29
1910.88,1359.42
1912.33,1339.45
1913.78,1339.27
1915.23,1336.01
1916.68,1320.94
1918.14,1317.29
1919.59,1351.43
1921.04,1354.1
1922.49,1324.9
1923.94,1343.38
1925.4,1361.02
1926.85,1364.66
1928.3,1309.81
1929.75,1336.64
1931.2,1306.46
1932.65,1318.52
1934.11,1319.37
1935.56,1285.79
1937.01,1347.47
1938.46,1302.7
1939.91,1337.03
1941.37,1319.99
1942.82,1350.26
1944.27,1326.09
1945.72,1342.27
1947.17,1340.55
1948.62,1314.2
1950.08,1320.81
1951.53,1337.36
1952.98,1350.76
1954.43,1316.95
1955.88,1321.27
1957.33,1349.2
1958.79,1370.63
1960.24,1345.91
1961.69,1334.56
1963.14,1353.65
1964.59,1359.16
1966.05,1361.95
1967.5,1353.53
1968.95,1364.27
1970.4,1372.34
1971.85,1374.83
1973.3,1375.65
1974.76,1395.44
1976.21,1373.98
1977.66,1346.89
1979.11,1374.68
1980.56,1400.89
1982.02,1400.43
1983.47,1394.89
1984.92,1375.74
1986.37,1401.97
1987.82,1416.98
1989.27,1407.77
1990.73,1382.99
1992.18,1384.22
1993.63,1400.77
1995.08,1400.85
1996.53,1408.72
1997.98,1402.97
1999.44,1379.18
2000.89,1408.96
2002.34,1390.74
2003.79,1425.55
2005.24,1409.01
2006.7,1396.74
2008.15,1395.19
2009.6,1430.2
2011.05,1432.49
2012.5,1417.76
2013.95,1370.57
2015.41,1389.2
2016.86,1374.35
2018.31,1375.73
2019.76,1352.09
2021.21,1395.09
2022.67,1375.17
2024.12,1355.27
2025.57,1356.39
2027.02,1303.56
2028.47,1335.68
2029.92,1351.14
2031.38,1335.92
2032.83,1342.41
2034.28,1340.42
2035.73,1359.23
2037.18,1351.16
2038.63,1293.7
2040.09,1318.84
2041.54,1313.05
2042.99,1291.24
2044.44,1250.88
2045.89,1290.55
2047.35,1278.31
2048.8,1263.7
2050.25,1295.54
2051.7,1279.96
2053.15,1273.15
2054.6,1280.41
2056.06,1242.76
2057.51,1261.82
2058.96,1280.62
2060.41,1307.79
2061.86,1267.77
2063.32,1260.75
2064.77,1229.61
2066.22,1216.51
2067.67,1236.74
2069.12,1247.65
2070.57,1228.99
2072.03,1217.06
2073.48,1213.43
2074.93,1209.78
2076.38,1200.01
2077.83,1203.1
2079.28,1211.39
2080.74,1226.05
2082.19,1228.21
2083.64,1206.31
2085.09,1219.78
2086.54,1204.44
2088,1199.16
2089.45,1226.34
2090.9,1221.58
2092.35,1203.97
2093.8,1198.71
2095.25,1221.71
2096.71,1240.88
2098.16,1208.72
2099.61,1194.22
2101.06,1219.65
2102.51,1252.32
2103.97,1238.22
2105.42,1217.19
2106.87,1217.64
2108.32,1256.96
2109.77,1255.71
2111.22,1240.91
2112.68,1216.75
2114.13,1201.69
2115.58,1230.52
2117.03,1239.36
2118.48,1230.18
2119.94,1229.23
2121.39,1241.15
2122.84,1252.6
2124.29,1257.58
2125.74,1267.76
2127.19,1257.44
2128.65,1236.09
2130.1,1217.76
2131.55,1232.99
2133,1226.5
2134.45,1221.55
2135.9,1248.78
2137.36,1271.49
2138.81,1254.61
2140.26,1239.23
2141.71,1255.73
2143.16,1264.36
2144.62,1246.66
2146.07,1265.83
2147.52,1269.42
2148.97,1258.34
2150.42,1229.8
2151.87,1242.04
2153.33,1242.07
2154.78,1245.26
2156.23,1259.88
2157.68,1286.85
2159.13,1254.16
2160.58,1266.98
2162.04,1261.14
2163.49,1256.42
2164.94,1275.91
2166.39,1272.18
2167.84,1310.32
2169.3,1279.07
2170.75,1275.91
2172.2,1287.48
2173.65,1298.18
2175.1,1310.5
2176.55,1305.83
2178.01,1323.91
2179.46,1309.65
2180.91,1312.51
2182.36,1299.57
2183.81,1340.8
2185.27,1318.06
2186.72,1283.5
2188.17,1307.41
2189.62,1311.92
2191.07,1325.62
2192.52,1309.15
2193.98,1335.64
2195.43,1310.9
2196.88,1308.81
2198.33,1372.16
2199.78,1333.2
2201.24,1328.57
2202.69,1328.7
2204.14,1312.23
2205.59,1341.46
2207.04,1314.36
2208.49,1324.29
2209.95,1322.79
2211.4,1366.83
2212.85,1331.9
2214.3,1346.7
2215.75,1366.98
2217.2,1303.65
2218.66,1348.36
2220.11,1320.33
2221.56,1363.96
2223.01,1344.42
2224.46,1325.88
2225.92,1344.67
2227.37,1348.76
2228.82,1337.67
2230.27,1351.81
2231.72,1360.39
2233.17,1373.63
2234.63,1368.23
2236.08,1352.33
2237.53,1358.63
2238.98,1380.58
2240.43,1363.17
2241.89,1364.19
2243.34,1342.32
2244.79,1377.39
2246.24,1383.44
2247.69,1358.21
2249.14,1384.81
2250.6,1369.15
2252.05,1386.86
2253.5,1392.53
2254.95,1404.05
2256.4,1414.36
2257.85,1388.58
2259.31,1402.52
2260.76,1424.81
2262.21,1424.18
2263.66,1415.51
2265.11,1415.19
2266.57,1424.2
2268.02,1449.07
2269.47,1462.81
2270.92,1426.21
2272.37,1438.27
2273.82,1443.22
2275.28,1468.07
2276.73,1479.02
2278.18,1459.75
2279.63,1459.31
2281.08,1466.69
2282.54,1469.55
2283.99,1477.32
2285.44,1446.39
2286.89,1443.72
2288.34,1475.27
2289.79,1516.2
2291.25,1497.18
2292.7,1497.51
2294.15,1486.1
2295.6,1510.62
2297.05,1485.08
2298.5,1472.06
2299.96,1502.23
2301.41,1518.86
2302.86,1523.5
2304.31,1546.91
2305.76,1543.75
2307.22,1531.05
2308.67,1531.92
2310.12,1543.44
2311.57,1558.83
2313.02,1544.31
2314.47,1574.38
2315.93,1571.15
2317.38,1574.73
2318.83,1591.97
2320.28,1592.88
2321.73,1553.34
2323.19,1578.63
2324.64,1587.36
2326.09,1609.48
2327.54,1654.08
2328.99,1625.69
2330.44,1619.28
2331.9,1636.09
2333.35,1660.75
2334.8,1635.54
2336.25,1661.92
2337.7,1673.98
2339.16,1674.29
2340.61,1664.82
2342.06,1669.15
2343.51,1671.59
2344.96,1865.34
2346.41,4098.4
2347.87,2654.11
2349.32,1737.55
2350.77,1695.4
2352.22,1743.81
2353.67,1785.63
2355.12,1760.94
2356.58,1792.43
2358.03,1788.28
2359.48,1783.28
2360.93,1824.9
2362.38,1821.58
2363.84,1872.16
2365.29,1897.18
2366.74,1866.16
2368.19,1900
2369.64,1908.79
2371.09,1917.1
2372.55,1924.35
2374,1968.49
2375.45,2007.47
2376.9,2015.33
2378.35,2036.47
2379.8,2053.65
2381.26,2088.66
2382.71,2114.72
2384.16,2132.83
2385.61,2163.28
2387.06,2221.75
2388.52,2243.73
2389.97,2239.56
2391.42,2279.51
2392.87,2352.03
2394.32,2378.32
2395.77,2424.12
2397.23,2486.31
2398.68,2541.64
2400.13,2581.38
2401.58,2591.8
2403.03,2661.2
2404.49,2704.27
2405.94,2710.49
2407.39,2747.48
2408.84,2802.23
2410.29,2847.68
2411.74,2915.77
2413.2,2943.44
2414.65,2995.22
2416.1,3030.57
2417.55,3090.29
2419,3107.64
2420.46,3111.24
2421.91,3141.37
2423.36,3112.96
2424.81,3128.5
2426.26,3174.33
2427.71,3173.48
2429.17,3156.04
2430.62,3162.1
2432.07,3227.84
2433.52,3175.03
2434.97,3242.73
2436.42,3238.98
2437.88,3162.03
2439.33,3120.1
2440.78,3135.95
2442.23,3041.72
2443.68,3064.5
2445.14,3050.06
2446.59,3027.11
2448.04,3065.81
2449.49,3036.42
2450.94,3012.6
2452.39,2989.27
2453.85,2956.26
2455.3,2924
2456.75,2921.28
2458.2,2933.76
2459.65,2906.36
2461.1,2870.14
2462.56,2865.45
2464.01,2800.84
2465.46,2878.91
2466.91,2820.86
2468.36,2783.08
2469.82,2724.61
2471.27,2714.06
2472.72,2771.31
2474.17,2723.5
2475.62,2730.66
2477.07,2733.03
2478.53,2674.1
2479.98,2695.64
2481.43,2720.57
2482.88,2680.78
2484.33,2745.68
2485.79,2751.03
2487.24,2690.37
2488.69,2731.08
2490.14,2719.84
2491.59,2729.75
2493.04,2738.78
2494.5,2693.6
2495.95,2684.82
2497.4,2769.79
2498.85,2754.52
2500.3,2746.24
2501.76,2762.9
2503.21,2768.81
2504.66,2805.22
2506.11,2825.48
2507.56,2797.46
2509.01,2809.85
2510.47,2778.46
2511.92,2797.78
2513.37,2800.12
2514.82,2823.77
2516.27,2822.38
2517.72,2890.1
2519.18,2900.89
2520.63,2901.3
2522.08,2930.91
2523.53,2983.1
2524.98,3044.68
2526.44,3021.6
2527.89,3012.76
2529.34,3058.51
2530.79,3078.7
2532.24,3025.34
2533.69,3162.69
2535.15,3162
2536.6,3222.84
2538.05,3215.72
2539.5,3268.88
2540.95,3297.37
2542.41,3336.65
2543.86,3407.19
2545.31,3393.89
2546.76,3435.5
2548.21,3486.01
2549.66,3625.67
2551.12,3608.86
2552.57,3586.48
2554.02,3748.04
2555.47,3815.28
2556.92,3885.06
2558.37,3917.35
2559.83,3942.86
2561.28,3989.14
2562.73,4087.65
2564.18,4195.22
2565.63,4281.21
2567.09,4303.52
2568.54,4440.5
2569.99,4548.9
2571.44,4624.7
2572.89,4713.84
2574.34,4803.22
2575.8,4870.06
2577.25,5026.56
2578.7,5173.11
2580.15,5218.28
2581.6,5407.2
2583.06,5544.33
2584.51,5632.83
2585.96,5783.37
2587.41,5860.15
2588.86,6144.68
2590.31,6324.11
2591.77,6508.89
2593.22,6670.79
2594.67,6929.89
2596.12,7210.6
2597.57,7377.83
2599.02,7602.75
2600.48,7908.81
2601.93,8253.61
2603.38,8529.49
2604.83,8845.76
2606.28,9116.62
2607.74,9392.96
2609.19,9777.41
2610.64,10214.8
2612.09,10546.8
2613.54,10947.2
2614.99,11458.4
2616.45,11827.5
2617.9,12353.8
2619.35,12876.2
2620.8,13403.3
2622.25,13984.7
2623.71,14555.3
2625.16,15107.6
2626.61,15772.2
2628.06,16286.1
2629.51,17010.1
2630.96,17588.7
2632.42,18314.8
2633.87,19050.9
2635.32,19781.4
2636.77,20394.2
2638.22,21102.9
2639.68,21678.8
2641.13,22324.3
2642.58,23013.1
2644.03,23601.4
2645.48,23995.9
2646.93,24601.9
2648.39,25122.7
2649.84,25587
2651.29,25735.4
2652.74,26182.6
2654.19,26438.9
2655.64,26639.7
2657.1,26804.3
2658.55,26905.7
2660,26985.9
2661.45,26882.3
2662.9,26695.3
2664.36,26427.1
2665.81,26135.4
2667.26,25878
2668.71,25358.4
2670.16,25087.1
2671.61,24534.4
2673.07,23984.9
2674.52,23346.4
2675.97,22697.5
2677.42,22197.3
2678.87,21413.6
2680.32,20694.7
2681.78,20149.4
2683.23,19518.4
2684.68,18749.8
2686.13,17981.3
2687.58,17418.7
2689.04,16641
2690.49,15907.4
2691.94,15297.8
2693.39,14724.5
2694.84,14077.6
2696.29,13551.2
2697.75,12948.9
2699.2,12376.5
2700.65,11887.3
2702.1,11368.1
2703.55,10840.2
2705.01,10412.6
2706.46,9917.93
2707.91,9588.59
2709.36,9154.63
2710.81,8842.39
2712.26,8489.32
2713.72,8208.25
2715.17,7814.63
2716.62,7527.91
2718.07,7218.92
2719.52,7008.33
2720.98,6772.27
2722.43,6567.47
2723.88,6296.85
2725.33,6040.61
2726.78,5880.78
2728.23,5788.16
2729.69,5548.01
2731.14,5326.77
2732.59,5191.45
2734.04,5080.12
2735.49,4923.36
2736.94,4833.51
2738.4,4675.2
2739.85,4535.7
2741.3,4411.72
2742.75,4326.91
2744.2,4203.6
2745.66,4183.77
2747.11,4012.81
2748.56,3990.63
2750.01,3827.67
2751.46,3769.86
2752.91,3700.89
2754.37,3637.6
2755.82,3578.93
2757.27,3516.47
2758.72,3438.43
2760.17,3382.72
2761.63,3337.03
2763.08,3215.42
2764.53,3224.52
2765.98,3189.45
2767.43,3161.76
2768.88,3076.7
2770.34,3072.66
2771.79,3038.57
2773.24,3005.72
2774.69,2978.82
2776.14,2911.62
2777.59,2846.93
2779.05,2875.93
2780.5,2755.24
2781.95,2762.8
2783.4,2757.22
2784.85,2696.33
2786.31,2684.39
2787.76,2659.29
2789.21,2664.6
2790.66,2577.08
2792.11,2557.13
2793.56,2556.22
2795.02,2534.88
2796.47,2522.46
2797.92,2480.4
2799.37,2471.9
2800.82,2417.82
2802.28,2462.11
2803.73,2408.84
2805.18,2379.29
2806.63,2374.66
2808.08,2365.08
2809.53,2337.42
2810.99,2287.74
2812.44,2296.29
2813.89,2323.58
2815.34,2240.09
2816.79,2255.63
2818.24,2265.11
2819.7,2249.68
2821.15,2214.66
2822.6,2221.97
2824.05,2235.88
2825.5,2167.21
2826.96,2237.08
2828.41,2176.88
2829.86,2153.42
2831.31,2155.64
2832.76,2161.37
2834.21,2141.12
2835.67,2124.24
2837.12,2089.63
2838.57,2065.11
2840.02,2072.46
2841.47,2062.66
2842.93,2080.59
2844.38,2068.66
2845.83,2037.56
2847.28,2064.28
2848.73,2032.21
2850.18,2050.1
2851.64,2042.51
2853.09,2023.37
2854.54,2018.64
2855.99,2026.92
2857.44,2027.52
2858.9,2067.58
2860.35,1993.71
2861.8,2010.49
2863.25,2011.63
2864.7,2037.98
2866.15,2008.68
2867.61,1995.61
2869.06,1996.98
2870.51,1987.8
2871.96,2021.15
2873.41,2023.35
2874.86,2038.03
2876.32,2030.66
2877.77,1995.55
2879.22,2014.5
2880.67,2029.82
2882.12,2020.03
2883.58,1973.67
2885.03,2016.24
2886.48,2029.79
2887.93,2027.65
2889.38,2070.94
2890.83,2024.02
2892.29,1982.39
2893.74,2005.21
2895.19,2008.89
2896.64,2034.84
2898.09,2015.22
2899.54,2041.86
2901,2046.16
2902.45,1979.35
2903.9,2050.17
2905.35,2046.7
2906.8,2035.23
2908.26,2017.82
2909.71,2002.96
2911.16,1987.03
2912.61,2015.8
2914.06,1979.75
2915.51,1969.46
2916.97,1991.68
2918.42,1984.07
2919.87,1992.97
2921.32,1947.76
2922.77,1927.93
2924.23,1905.37
2925.68,1899.02
2927.13,1871.12
2928.58,1901.38
2930.03,1851.02
2931.48,1846.6
2932.94,1836.62
2934.39,1825.31
2935.84,1800.94
2937.29,1816.74
2938.74,1788.92
2940.2,1782.13
2941.65,1724.19
2943.1,1749.57
2944.55,1721.83
2946,1736.74
2947.45,1681.87
2948.91,1688.39
2950.36,1666.09
2951.81,1624.15
2953.26,1597.52
2954.71,1615.8
2956.16,1595.9
2957.62,1581.61
2959.07,1604.83
2960.52,1558.04
2961.97,1561.63
2963.42,1581.17
2964.88,1555.6
2966.33,1529.4
2967.78,1495.55
2969.23,1521.87
2970.68,1508.5
2972.13,1513.78
2973.59,1486.17
2975.04,1441.84
2976.49,1431.97
2977.94,1460.45
2979.39,1429.51
2980.84,1440.37
2982.3,1442.47
2983.75,1426.4
2985.2,1412.15
2986.65,1433.33
2988.1,1430.62
2989.56,1418.77
2991.01,1414.05
2992.46,1399.13
2993.91,1400.49
2995.36,1386.73
2996.81,1397.59
2998.27,1384.81
2999.72,1368.37
3001.17,1369.71
3002.62,1356.76
3004.07,1371.74
3005.53,1357.55
3006.98,1359.93
3008.43,1343.84
3009.88,1351.47
3011.33,1358.88
3012.78,1345.27
3014.24,1323.69
3015.69,1337.1
3017.14,1308.87
3018.59,1342.34
3020.04,1326.42
3021.5,1354.36
3022.95,1347.49
3024.4,1354.16
3025.85,1315.49
3027.3,1330.63
3028.75,1325.35
3030.21,1332.31
3031.66,1356.88
3033.11,1351.22
3034.56,1323.06
3036.01,1350.25
3037.46,1338.11
3038.92,1295.88
3040.37,1325.1
3041.82,1308.12
3043.27,1320.76
3044.72,1336.05
3046.18,1338.24
3047.63,1306.54
3049.08,1314.73
3050.53,1346.54
3051.98,1318.63
3053.43,1327.96
3054.89,1332.96
3056.34,1321.88
3057.79,1323.02
3059.24,1295.21
3060.69,1326.49
3062.15,1328.54
3063.6,1358.31
3065.05,1366.28
3066.5,1362.84
3067.95,1373.09
3069.4,1352.3
3070.86,1356.6
3072.31,1373.1
3073.76,1366.34
3075.21,1401.94
3076.66,1389.86
3078.11,1407.32
3079.57,1396.93
3081.02,1422.95
3082.47,1415.94
3083.92,1433.72
3085.37,1434.51
3086.83,1424.4
3088.28,1435.38
3089.73,1469
3091.18,1478.76
3092.63,1493.34
3094.08,1522.12
3095.54,1527.38
3096.99,1567.31
3098.44,1607.92
3099.89,1640.04
3101.34,1610.04
3102.8,1612.44
3104.25,1614.4
3105.7,1645.08
3107.15,1669.34
3108.6,1693.02
3110.05,1707.81
3111.51,1751.03
3112.96,1774.55
3114.41,1808.74
3115.86,1835.55
3117.31,1828.5
3118.76,1889.6
3120.22,1939.66
3121.67,1927.3
3123.12,1936.04
3124.57,1962.78
3126.02,1983.13
3127.48,2016.47
3128.93,2071.73
3130.38,2067.12
3131.83,2078.75
3133.28,2126.12
3134.73,2131.58
3136.19,2109.86
3137.64,2118.56
3139.09,2139.89
3140.54,2169.41
3141.99,2145.29
3143.45,2180.45
3144.9,2200.29
3146.35,2167.33
3147.8,2154.46
3149.25,2182.85
3150.7,2142.91
3152.16,2246.25
3153.61,2208.61
3155.06,2203.78
3156.51,2176.98
3157.96,2196.74
3159.42,2195.88
3160.87,2245.24
3162.32,2212
3163.77,2269.41
3165.22,2236.87
3166.67,2245.67
3168.13,2240.9
3169.58,2248.52
3171.03,2268.25
3172.48,2315.76
3173.93,2305.99
3175.38,2290.5
3176.84,2324.53
3178.29,2389.32
3179.74,2417.83
3181.19,2419
3182.64,2461.15
3184.1,2493.51
3185.55,2514.08
3187,2488.7
3188.45,2479.82
3189.9,2543.19
3191.35,2575.03
3192.81,2584.5
3194.26,2610.91
3195.71,2629.72
3197.16,2643.63
3198.61,2654.13
3200.06,2672.62
3201.52,2666.8
3202.97,2669.62
3204.42,2663.26
3205.87,2640.62
3207.32,2607.23
3208.78,2590.58
3210.23,2554.27
3211.68,2527.86
3213.13,2496.37
3214.58,2425.19
3216.03,2402.58
3217.49,2365.09
3218.94,2322.46
3220.39,2241.68
3221.84,2196.97
3223.29,2137.1
3224.75,2097.13
3226.2,2042.01
3227.65,1985.03
3229.1,1894.85
3230.55,1848.55
3232,1826.08
3233.46,1786.56
3234.91,1699.66
3236.36,1647.78
3237.81,1615.68
3239.26,1609.77
3240.72,1586.07
3242.17,1541.64
3243.62,1495.23
3245.07,1452.09
3246.52,1424.28
3247.97,1384.95
3249.43,1350.79
3250.88,1382.62
3252.33,1301.63
3253.78,1320.02
3255.23,1293.13
3256.68,1283.19
3258.14,1289.45
3259.59,1239.31
3261.04,1199.97
3262.49,1226.85
3263.94,1192.91
3265.4,1215.36
3266.85,1183.91
3268.3,1146.25
3269.75,1173.18
3271.2,1190.25
3272.65,1175.31
3274.11,1152.9
3275.56,1141.39
3277.01,1159.48
3278.46,1161.79
3279.91,1117.66
3281.37,1102.88
3282.82,1123.09
3284.27,1129.04
3285.72,1095.14
3287.17,1129.38
3288.62,1136.26
3290.08,1093.69
3291.53,1107.87
3292.98,1107.21
3294.43,1106.79
3295.88,1101.08
3297.33,1119.93
3298.79,1115.87
3300.24,1087.44
3301.69,1101.56
3303.14,1091.31
3304.59,1121.13
3306.05,1104.15
3307.5,1078.63
3308.95,1074.14
3310.4,1084.4
3311.85,1065.11
3313.3,1105.26
3314.76,1089.58
3316.21,1103.62
3317.66,1072.72
3319.11,1071.76
3320.56,1079.48
3322.02,1076.16
3323.47,1057.85
3324.92,1046.61
3326.37,1068.11
3327.82,1062.83
3329.27,1048.95
3330.73,1091.74
3332.18,1073.72
3333.63,1081.53
3335.08,1075.57
3336.53,1065.75
3337.98,1043.24
3339.44,1060
3340.89,1035.57
3342.34,1076.43
3343.79,1057.24
3345.24,1048.5
3346.7,1045.16
3348.15,1048.49
3349.6,1049.24
3351.05,1056.03
3352.5,1063.85
3353.95,1045.02
3355.41,1035.22
3356.86,1049.98
3358.31,1046.44
3359.76,1053.85
3361.21,1054.22
3362.67,1043.61
3364.12,1045.21
3365.57,1033.42
3367.02,1044.48
3368.47,1054.19
3369.92,1048.32
3371.38,1051.04
3372.83,1021.41
3374.28,1059.33
3375.73,1042.62
3377.18,1024.53
3378.63,1040.67
3380.09,1021.96
3381.54,1023.83
3382.99,1030.58
3384.44,1052.23
3385.89,1050.74
3387.35,1043.84
3388.8,1058.76
3390.25,1036.06
3391.7,1055.65
3393.15,1041.38
3394.6,1024.4
3396.06,1049.5
3397.51,1037.59
3398.96,1034.51
3400.41,1020.21
3401.86,1010.11
3403.32,1046.75
3404.77,1063.37
3406.22,1020.31
3407.67,1016.04
3409.12,1043.83
3410.57,1028.63
3412.03,1036.12
3413.48,1025.07
3414.93,997.87
3416.38,1056.39
3417.83,1062.82
3419.28,1054.73
3420.74,1046.41
3422.19,1024.18
3423.64,1023.77
3425.09,1037.17
3426.54,1039.83
3428,983.952
3429.45,1026.82
3430.9,1032.08
3432.35,1040.86
3433.8,1045.65
3435.25,987.15
3436.71,1004.28
3438.16,1016.95
3439.61,1039.49
3441.06,998.286
3442.51,1044.74
3443.97,1004.33
3445.42,992.859
3446.87,1023.66
3448.32,981.008
3449.77,1013.57
3451.22,1009.2
3452.68,1012.71
3454.13,1021.38
3455.58,1018.78
3457.03,1029.1
3458.48,1011.84
3459.94,984.606
3461.39,1013.06
3462.84,1013.39
3464.29,1015.99
3465.74,1006.47
3467.19,1042.93
3468.65,1026.53
3470.1,1023.16
3471.55,1034.76
3473,1032.91
3474.45,1038.13
3475.9,1020.04
3477.36,1008.91
3478.81,1019.33
3480.26,999.963
3481.71,1007.32
3483.16,1050.28
3484.62,1039.74
3486.07,1021.06
3487.52,1010.94
3488.97,1010.11
3490.42,1040.01
3491.87,1038.63
3493.33,1023.5
3494.78,1019.67
3496.23,997.858
3497.68,1032.83
3499.13,1053.62
3500.58,1026.79
3502.04,1019.92
3503.49,1014.77
3504.94,1033.57
3506.39,1021.37
3507.84,992.25
3509.3,1019.16
3510.75,1035.17
3512.2,1009.86
3513.65,1027.76
3515.1,1043.58
3516.55,1009.22
3518.01,1024.36
3519.46,1029.61
3520.91,1010.72
3522.36,996.039
3523.81,1008.85
3525.27,1019.12
3526.72,1006.06
3528.17,1001.88
3529.62,1004.25
3531.07,1026.18
3532.52,1042.37
3533.98,1007.02
3535.43,1025.45
3536.88,992.884
3538.33,1008.76
3539.78,1029.41
3541.24,1043.16
3542.69,1023.16
3544.14,1002.34
3545.59,1023.68
3547.04,1036.51
3548.49,1037
3549.95,1043.88
3551.4,1011.99
3552.85,998.868
3554.3,1017.51
3555.75,996.632
3557.2,1002.07
3558.66,994.038
3560.11,1003.83
3561.56,976.17
3563.01,1018.67
3564.46,1014.38
3565.92,1009.74
3567.37,997.134
3568.82,1007.28
3570.27,992.067
3571.72,991.618
3573.17,1009.79
3574.63,984.233
3576.08,1012.54
3577.53,996.911
3578.98,1007.53
3580.43,1016.61
3581.89,1052.9
3583.34,1000.43
3584.79,1038.66
3586.24,988.751
3587.69,998.87
3589.14,1000.13
3590.6,974.399
3592.05,988.658
3593.5,1007.12
3594.95,1013.28
3596.4,1006.97
3597.85,977.384
3599.31,996.794
3600.76,1019.46
3602.21,1010.45
3603.66,985.292
3605.11,1004.98
3606.57,1009.67
3608.02,1001.63
3609.47,1005.41
3610.92,977.965
3612.37,1023.1
3613.82,986.571
3615.28,1018.56
3616.73,1016.3
3618.18,1010.04
3619.63,993.633
3621.08,1019.17
3622.54,991.725
3623.99,994.679
3625.44,993.558
3626.89,998.418
3628.34,1019.97
3629.79,989.973
3631.25,993.796
3632.7,1027.94
3634.15,1025.46
3635.6,999.158
3637.05,1022.45
3638.5,1061.55
3639.96,1007.11
3641.41,1014.83
3642.86,1002.42
3644.31,1019.95
3645.76,984.069
3647.22,1020.92
3648.67,1004.13
3650.12,1012.24
3651.57,994.051
3653.02,1051.56
3654.47,1023.62
3655.93,1006.9
3657.38,1024.56
3658.83,1031.23
3660.28,996.504
3661.73,979.313
3663.19,1021.06
3664.64,1011.91
3666.09,1025.63
3667.54,1023.79
3668.99,1023.5
3670.44,1038.82
3671.9,1007.66
3673.35,1018.69
3674.8,1022.99
3676.25,1022.22
3677.7,1043.01
3679.16,1032.93
3680.61,1029.33
3682.06,1034.69
3683.51,1012.41
3684.96,1043.72
3686.41,984.21
3687.87,1026.97
3689.32,1018.46
3690.77,1073.61
3692.22,1007.98
3693.67,1032.66
3695.12,1029.02
3696.58,1050.16
3698.03,1013.19
3699.48,1016.77
3700.93,1030.99
3702.38,1042.49
3703.84,1044.65
3705.29,1020.94
3706.74,1025.88
3708.19,1057.67
3709.64,1064.48
3711.09,1025.53
3712.55,1032.65
3714,1035.81
3715.45,1028.27
3716.9,1006.45
3718.35,1052.98
3719.8,1044.43
3721.26,1020.57
3722.71,1060.67
3724.16,1032.15
3725.61,1023.14
3727.06,1023.19
3728.52,1050.55
3729.97,1019.25
3731.42,1048.43
3732.87,1041.24
3734.32,1064.85
3735.77,1041.83
3737.23,1045.12
3738.68,1038.72
3740.13,1060.8
3741.58,1038.24
3743.03,1045.35
3744.49,1051.4
3745.94,1045.31
3747.39,1050.81
3748.84,1044.63
3750.29,1060.35
3751.74,1025.54
3753.2,1026.82
3754.65,1033.11
3756.1,1024.37
3757.55,1024.68
3759,1025.6
3760.46,1033.17
3761.91,1042.89
3763.36,1041.61
3764.81,1029.27
3766.26,1063.37
3767.71,1076.22
3769.17,1053.9
3770.62,1068.19
3772.07,1035.28
3773.52,1050.71
3774.97,1054.42
3776.42,1054.65
3777.88,1073.06
3779.33,1057.52
3780.78,1072.59
3782.23,1037.94
3783.68,1073.91
3785.14,1078.24
3786.59,1077.68
3788.04,1075.16
3789.49,1082.79
3790.94,1035.4
3792.39,1059.45
3793.85,1058.06
3795.3,1089.8
3796.75,1066.82
3798.2,1085.54
3799.65,1084.09
3801.1,1073.72
3802.56,1053.82
3804.01,1050.78
3805.46,1044.26
3806.91,1045.64
3808.36,1068.27
3809.82,1122.87
3811.27,1099.75
3812.72,1063.53
3814.17,1087.93
3815.62,1069.14
3817.07,1056.65
3818.53,1061.3
3819.98,1080.98
3821.43,1106.74
3822.88,1100.84
3824.33,1068.35
3825.79,1080.93
3827.24,1090.34
3828.69,1087.74
3830.14,1078.47
3831.59,1068.47
3833.04,1082.2
3834.5,1093.01
3835.95,1074.36
3837.4,1084.43
3838.85,1085.62
3840.3,1101.78
3841.76,1108.89
3843.21,1082.69
3844.66,1116.78
3846.11,1096.63
3847.56,1081.26
3849.01,1066.81
3850.47,1112.74
3851.92,1103.99
3853.37,1120.89
3854.82,1098.33
3856.27,1129.18
3857.72,1105.25
3859.18,1106.55
3860.63,1108.26
3862.08,1066.65
3863.53,1114.43
3864.98,1099.73
3866.44,1130.11
3867.89,1113.79
3869.34,1106.86
3870.79,1154.09
3872.24,1088.64
3873.69,1125.35
3875.15,1124.99
3876.6,1093.99
3878.05,1132.01
3879.5,1130.44
3880.95,1112.35
3882.41,1145.77
3883.86,1166.43
3885.31,1128.08
3886.76,1124.01
3888.21,1172.05
3889.66,1136.61
3891.12,1094.86
3892.57,1118.7
3894.02,1159.85
3895.47,1151.12
3896.92,1171.72
3898.37,1166.7
3899.83,1160.67
3901.28,1162.13
3902.73,1158.81
3904.18,1154.7
3905.63,1190.6
3907.09,1165.54
3908.54,1164.58
3909.99,1191.63
3911.44,1168.19
3912.89,1166.49
3914.34,1176.43
3915.8,1200.85
3917.25,1208.28
3918.7,1198.22
3920.15,1197.82
3921.6,1197.24
3923.06,1167.95
3924.51,1187.7
3925.96,1216.72
3927.41,1215.29
3928.86,1198.31
3930.31,1221.08
3931.77,1210.98
3933.22,1188.66
3934.67,1236.23
3936.12,1234.17
3937.57,1247.91
3939.02,1232.21
3940.48,1228.14
3941.93,1239.02
3943.38,1241.51
3944.83,1271.9
3946.28,1256.31
3947.74,1270.55
3949.19,1255.27
3950.64,1248.8
3952.09,1259.5
3953.54,1291.29
3954.99,1273.6
3956.45,1307.44
3957.9,1283.28
3959.35,1256.68
3960.8,1287.48
3962.25,1275.36
3963.71,1293.79
3965.16,1270.21
3966.61,1298.65
3968.06,1295.03
3969.51,1349.67
3970.96,1298.57
3972.42,1309.91
3973.87,1302.29
3975.32,1280.64
3976.77,1340.9
3978.22,1270.54
3979.68,1312.86
3981.13,1318.72
3982.58,1328.77
3984.03,1336.56
3985.48,1361.23
3986.93,1340.05
3988.39,1341.6
3989.84,1344.47
3991.29,1382.36
3992.74,1329.2
3994.19,1347.33
3995.64,1366.43
3997.1,1348.93
3998.55,1363.93
4000,1384.49
