-20,63.1482
-18.5482,68.4669
-17.0964,70.1911
-15.6446,76.8784
-14.1928,75.8516
-12.7411,81.0973
-11.2893,88.9595
-9.83749,88.8841
-8.3857,99.0019
-6.93391,112.9
-5.48212,382.783
-4.03034,111.509
-2.57855,116.659
-1.12676,168.618
0.325027,433.627
1.77681,821.489
3.2286,850.531
4.68039,545.519
6.13218,172.988
7.58397,311.447
9.03575,94.9933
10.4875,82.0764
11.9393,72.3577
13.3911,69.0069
14.8429,65.5723
16.2947,62.1482
17.7465,57.5259
19.1983,63.1402
20.6501,58.3598
22.1018,50.1732
23.5536,50.9666
25.0054,49.0118
26.4572,51.5223
27.909,48.9981
29.3608,43.0415
30.8126,43.2201
32.2644,49.7999
33.7161,48.7491
35.1679,45.5975
36.6197,43.9077
38.0715,47.7598
39.5233,48.0642
40.9751,49.5799
42.4269,50.2717
43.8787,48.4999
45.3304,66.5218
46.7822,72.7949
48.234,103.774
49.6858,167.25
51.1376,256.648
52.5894,479.555
54.0412,757.202
55.493,1094.75
56.9447,1495.9
58.3965,1945.07
59.8483,2328.97
61.3001,2609.48
62.7519,2844.79
64.2037,3091.85
65.6555,3167.55
67.1073,3265.89
68.559,3340.16
70.0108,3369.71
71.4626,3394.53
72.9144,3451.87
74.3662,3526.9
75.818,3593.37
77.2698,3672.83
78.7216,3829.33
80.1733,3924.29
81.6251,4009.76
83.0769,4070.72
84.5287,4183.7
85.9805,4270.34
87.4323,4255.38
88.8841,4129.43
90.3359,3910.5
91.7877,3701.69
93.2394,3521.43
94.6912,3305.44
96.143,3149.24
97.5948,3004.66
99.0466,2818.77
100.498,2725.47
101.95,2662.24
103.402,2606.4
104.854,2565.03
106.306,2490.61
107.757,2413.61
109.209,2379.31
110.661,2366.39
112.113,2338.93
113.564,2297.38
115.016,2274.39
116.468,2270.71
117.92,2251.25
119.372,2222.87
120.823,2130.25
122.275,2116.2
123.727,2084.2
125.179,2049.54
126.631,2012.52
128.082,2000.22
129.534,1931.69
130.986,1862.38
132.438,1804.1
133.889,1770.48
135.341,1769.48
136.793,1710.62
138.245,1659.3
139.697,1639.46
141.148,1673.04
142.6,1599.61
144.052,1572.36
145.504,1551.19
146.956,1517.45
148.407,1519.97
149.859,1497.73
151.311,1476.36
152.763,1454.58
154.215,1429.64
155.666,1453.66
157.118,1440.07
158.57,1422.53
160.022,1401.6
161.473,1380.48
162.925,1364.46
164.377,1351.28
165.829,1329.11
167.281,1339.97
168.732,1365.27
170.184,1345.8
171.636,1316.34
173.088,1297.12
174.54,1294.56
175.991,1290.35
177.443,1303.11
178.895,1314.57
180.347,1304.7
181.798,1272.23
183.25,1245.03
184.702,1232.66
186.154,1256.37
187.606,1252.63
189.057,1229.92
190.509,1220.2
191.961,1170.92
193.413,1202.31
194.865,1215.96
196.316,1211.01
197.768,1195.72
199.22,1187.37
200.672,1203.94
202.124,1209.55
203.575,1198.69
205.027,1167.37
206.479,1157.89
207.931,1171.32
209.382,1164.63
210.834,1164.4
212.286,1174.46
213.738,1183.79
215.19,1165.79
216.641,1168.57
218.093,1184.55
219.545,1195.68
220.997,1169.28
222.449,1166.25
223.9,1187.34
225.352,1187.5
226.804,1156.68
228.256,1163.72
229.707,1172.86
231.159,1185.75
232.611,1172.67
234.063,1159.91
235.515,1180.36
236.966,1158.66
238.418,1154.34
239.87,1165.04
241.322,1166.43
242.774,1150.45
244.225,1146.88
245.677,1144.49
247.129,1123.3
248.581,1104.6
250.033,1124.66
251.484,1123.28
252.936,1114.99
254.388,1118.86
255.84,1135.5
257.291,1131.36
258.743,1118.15
260.195,1106.18
261.647,1098.88
263.099,1079.84
264.55,1063
266.002,1082.5
267.454,1092.85
268.906,1093.27
270.358,1083.52
271.809,1067.26
273.261,1099.38
274.713,1061.25
276.165,1059.25
277.616,1056.86
279.068,1049.91
280.52,1031.56
281.972,1018.81
283.424,1006.23
284.875,994.684
286.327,994.181
287.779,1001.84
289.231,1014.57
290.683,1008
292.134,991.991
293.586,979.468
295.038,986.733
296.49,1012.55
297.941,963.184
299.393,947.814
300.845,946.985
302.297,919.734
303.749,929.459
305.2,947.115
306.652,921.623
308.104,900.362
309.556,908.842
311.008,908.548
312.459,890.618
313.911,853.84
315.363,858.124
316.815,890.942
318.267,877.065
319.718,850.164
321.17,861.919
322.622,874.713
324.074,871.512
325.525,864.931
326.977,847.954
328.429,844.297
329.881,868.463
331.333,887.47
332.784,880.594
334.236,869.272
335.688,845.862
337.14,840.761
338.592,845.018
340.043,843.084
341.495,810.012
342.947,827.852
344.399,843.093
345.85,838.76
347.302,831.395
348.754,852.216
350.206,821.908
351.658,830.6
353.109,824.094
354.561,810.294
356.013,810.623
357.465,825.3
358.917,823.14
360.368,794.047
361.82,787.134
363.272,807.787
364.724,781.722
366.176,782.684
367.627,784.024
369.079,785.183
370.531,788.081
371.983,796.039
373.434,799.285
374.886,781.746
376.338,791.004
377.79,805.402
379.242,803.555
380.693,790.561
382.145,788.421
383.597,796.469
385.049,777.647
386.501,758.403
387.952,784.316
389.404,753.734
390.856,763.264
392.308,774.822
393.759,776.359
395.211,764.175
396.663,768.781
398.115,785.987
399.567,774.398
401.018,766.107
402.47,770.993
403.922,786.525
405.374,766.129
406.826,770.526
408.277,765.336
409.729,759.231
411.181,777.266
412.633,798.596
414.085,804.292
415.536,778.745
416.988,759.203
418.44,767.765
419.892,781.876
421.343,756.059
422.795,758.895
424.247,778.024
425.699,774.379
427.151,741.109
428.602,753.384
430.054,752.82
431.506,751.477
432.958,769.489
434.41,774.081
435.861,749.207
437.313,746.824
438.765,771.749
440.217,765.424
441.668,752.926
443.12,754.102
444.572,755.237
446.024,748.149
447.476,760.766
448.927,764.174
450.379,751.825
451.831,736.9
453.283,752.445
454.735,755.882
456.186,742.913
457.638,746.973
459.09,756.506
460.542,734.064
461.993,765.516
463.445,756.651
464.897,747.833
466.349,755.54
467.801,765.558
469.252,746.651
470.704,755.552
472.156,756.01
473.608,745.249
475.06,748.098
476.511,762.214
477.963,753.773
479.415,752.957
480.867,733.499
482.319,729.57
483.77,740.181
485.222,733.684
486.674,715.881
488.126,744.996
489.577,759.674
491.029,746.358
492.481,737.706
493.933,745.262
495.385,758.061
496.836,748.203
498.288,717.017
499.74,704.261
501.192,722.013
502.644,745.919
504.095,724.525
505.547,709.896
506.999,700.998
508.451,701.751
509.902,730.504
511.354,723.372
512.806,730.562
514.258,730.445
515.71,721.408
517.161,715.998
518.613,730.22
520.065,749.576
521.517,700.073
522.969,704.235
524.42,728.768
525.872,733.199
527.324,716.869
528.776,724.545
530.228,701.057
531.679,698.936
533.131,714.588
534.583,726.683
536.035,711.05
537.486,725.792
538.938,732.988
540.39,720.431
541.842,711.064
543.294,708.666
544.745,702.566
546.197,719.492
547.649,723.878
549.101,720.025
550.553,726.491
552.004,730.994
553.456,704.227
554.908,715.27
556.36,713.171
557.811,703.023
559.263,694.849
560.715,697.482
562.167,709.897
563.619,701.592
565.07,707.354
566.522,707.68
567.974,711.014
569.426,700.39
570.878,677.589
572.329,704.761
573.781,670.063
575.233,679.477
576.685,691.519
578.137,691.006
579.588,692.854
581.04,689.732
582.492,699.013
583.944,707.997
585.395,688.063
586.847,669.907
588.299,695.028
589.751,669.547
591.203,683.572
592.654,696.638
594.106,689.712
595.558,672.743
597.01,662.38
598.462,673.851
599.913,662.482
601.365,672.731
602.817,670.76
604.269,681.122
605.72,695.639
607.172,693.6
608.624,711.337
610.076,717.93
611.528,713.249
612.979,702.19
614.431,684.137
615.883,694.042
617.335,674.025
618.787,698.752
620.238,702.751
621.69,689.429
623.142,688.67
624.594,697.345
626.046,674.555
627.497,669.48
628.949,691.254
630.401,698.356
631.853,690.673
633.304,682.114
634.756,679.588
636.208,693.479
637.66,693.01
639.112,703.019
640.563,717.783
642.015,728.597
643.467,703.61
644.919,711.543
646.371,701.166
647.822,693.793
649.274,697.069
650.726,691.157
652.178,681.356
653.629,727.873
655.081,726.153
656.533,736.964
657.985,724.108
659.437,697.362
660.888,714.267
662.34,721.211
663.792,720.076
665.244,723.231
666.696,720.128
668.147,711.909
669.599,694.983
671.051,685.144
672.503,702.299
673.954,710.257
675.406,725.03
676.858,730.73
678.31,718.495
679.762,740.26
681.213,719.495
682.665,720.622
684.117,742.405
685.569,739.76
687.021,722.43
688.472,712.655
689.924,720.064
691.376,704.102
692.828,737.801
694.28,749.745
695.731,724.824
697.183,691.387
698.635,683.977
700.087,717.09
701.538,724.775
702.99,719.509
704.442,722.258
705.894,722.302
707.346,748.95
708.797,737.927
710.249,713.987
711.701,722.001
713.153,727.805
714.605,735.617
716.056,736.892
717.508,739.015
718.96,725.655
720.412,726.233
721.863,735.389
723.315,739.404
724.767,730.529
726.219,706.173
727.671,744.04
729.122,747.68
730.574,755.207
732.026,752.279
733.478,736.006
734.93,727.404
736.381,719.948
737.833,721.813
739.285,737.053
740.737,716.476
742.189,709.835
743.64,715.336
745.092,721.507
746.544,713.074
747.996,733.82
749.447,730.415
750.899,733.23
752.351,743.729
753.803,751.064
755.255,740.92
756.706,734.059
758.158,753.849
759.61,731.462
761.062,724.982
762.514,734.29
763.965,725.955
765.417,722.583
766.869,731.209
768.321,754.725
769.772,724.312
771.224,726.209
772.676,736.384
774.128,726.098
775.58,704.281
777.031,749.642
778.483,735.233
779.935,704.255
781.387,717.604
782.839,737.646
784.29,753.413
785.742,738.479
787.194,736.905
788.646,722.044
790.098,729.682
791.549,737.41
793.001,737.291
794.453,745.198
795.905,745.935
797.356,756.49
798.808,721.678
800.26,725.359
801.712,759.698
803.164,779.061
804.615,756.829
806.067,747.955
807.519,716.118
808.971,737.235
810.423,746.821
811.874,742.034
813.326,757.619
814.778,773.303
816.23,734.371
817.681,760.006
819.133,772.067
820.585,780.013
822.037,759.53
823.489,742.223
824.94,778.282
826.392,744.178
827.844,734.931
829.296,747.804
830.748,768.251
832.199,765.565
833.651,745.883
835.103,765.138
836.555,789.53
838.007,774.603
839.458,786.034
840.91,793.248
842.362,803.423
843.814,814.523
845.265,788.114
846.717,759.385
848.169,748.818
849.621,775.002
851.073,771.055
852.524,785.166
853.976,814.195
855.428,841.29
856.88,816.194
858.332,761.916
859.783,790.292
861.235,786.711
862.687,796.871
864.139,792.564
865.59,787.148
867.042,769.804
868.494,783.471
869.946,798.866
871.398,769.349
872.849,790.93
874.301,785.965
875.753,752.578
877.205,785.995
878.657,779.292
880.108,762.933
881.56,766.389
883.012,770.826
884.464,766.514
885.915,775.187
887.367,795.75
888.819,803.259
890.271,797.264
891.723,794.922
893.174,784.683
894.626,797.2
896.078,817.697
897.53,798.194
898.982,786.637
900.433,789.378
901.885,789.534
903.337,781.751
904.789,777.561
906.241,793.849
907.692,835.662
909.144,820.319
910.596,810.439
912.048,835.426
913.499,816.563
914.951,836.38
916.403,846.466
917.855,844.991
919.307,830.221
920.758,796.109
922.21,840.001
923.662,828.36
925.114,821.832
926.566,821.331
928.017,824.369
929.469,828.995
930.921,858.176
932.373,805.81
933.824,854.403
935.276,837.045
936.728,839.248
938.18,837.154
939.632,828.018
941.083,825.211
942.535,825.799
943.987,823.188
945.439,840.451
946.891,829.673
948.342,844.686
949.794,844.723
951.246,834.889
952.698,847.553
954.15,851.409
955.601,860.585
957.053,868.139
958.505,862.249
959.957,842.827
961.408,829.61
962.86,838.18
964.312,835.715
965.764,851.787
967.216,806.986
968.667,823.97
970.119,835.409
971.571,832.678
973.023,837.931
974.475,836.896
975.926,832.408
977.378,882.02
978.83,880.858
980.282,879.741
981.733,873.444
983.185,868.356
984.637,852.771
986.089,824.769
987.541,830.038
988.992,879.634
990.444,916.17
991.896,902.289
993.348,883.966
994.8,882.266
996.251,906.333
997.703,917.086
999.155,874.742
1000.61,886.527
1002.06,911.752
1003.51,888.916
1004.96,912.069
1006.41,928.381
1007.87,914.831
1009.32,905.913
1010.77,914.545
1012.22,936.369
1013.67,943.04
1015.12,947.119
1016.58,964.166
1018.03,952.335
1019.48,948.57
1020.93,964.465
1022.38,958.311
1023.84,943.393
1025.29,988.329
1026.74,995.791
1028.19,993.945
1029.64,993.492
1031.09,989.939
1032.55,963.435
1034,995.867
1035.45,1040.08
1036.9,1070.72
1038.35,1066.03
1039.8,1069.93
1041.26,1071.54
1042.71,1075.96
1044.16,1065.2
1045.61,1097.48
1047.06,1091.57
1048.52,1087.37
1049.97,1097.24
1051.42,1151.42
1052.87,1144.28
1054.32,1127.85
1055.77,1141.43
1057.23,1174.25
1058.68,1160.6
1060.13,1159.08
1061.58,1183.74
1063.03,1182.64
1064.49,1208.14
1065.94,1237.43
1067.39,1230.54
1068.84,1220.68
1070.29,1246.35
1071.74,1252.41
1073.2,1286
1074.65,1316.59
1076.1,1311.64
1077.55,1307.04
1079,1305.64
1080.46,1290.52
1081.91,1323.01
1083.36,1344.59
1084.81,1325.3
1086.26,1308.17
1087.71,1308.68
1089.17,1329.16
1090.62,1341.76
1092.07,1318.65
1093.52,1309.95
1094.97,1338.72
1096.42,1335.22
1097.88,1314.11
1099.33,1331.01
1100.78,1314.79
1102.23,1295.77
1103.68,1280.36
1105.14,1268.93
1106.59,1276.31
1108.04,1258.44
1109.49,1236.67
1110.94,1258.47
1112.39,1224.89
1113.85,1254.82
1115.3,1252.1
1116.75,1228.52
1118.2,1224.44
1119.65,1232.25
1121.11,1224.12
1122.56,1202.16
1124.01,1203.05
1125.46,1206.05
1126.91,1189.95
1128.36,1194.23
1129.82,1219.54
1131.27,1214.12
1132.72,1190.98
1134.17,1173.56
1135.62,1178.3
1137.07,1183.73
1138.53,1164.06
1139.98,1158.43
1141.43,1183.49
1142.88,1162.75
1144.33,1153.48
1145.79,1160.88
1147.24,1129.71
1148.69,1152.46
1150.14,1152.05
1151.59,1093.23
1153.04,1098.78
1154.5,1131.77
1155.95,1138.5
1157.4,1136.11
1158.85,1139.97
1160.3,1120.72
1161.76,1101.8
1163.21,1123.09
1164.66,1172.42
1166.11,1149.17
1167.56,1172.86
1169.01,1155.22
1170.47,1124.95
1171.92,1144.73
1173.37,1150.13
1174.82,1139.98
1176.27,1175.94
1177.72,1173.77
1179.18,1150.51
1180.63,1161.01
1182.08,1164.78
1183.53,1162.22
1184.98,1162.38
1186.44,1162.6
1187.89,1148.87
1189.34,1154.35
1190.79,1162.8
1192.24,1164.72
1193.69,1182.3
1195.15,1166.71
1196.6,1171.12
1198.05,1187.69
1199.5,1172.31
1200.95,1157.36
1202.41,1194.09
1203.86,1147.02
1205.31,1174.5
1206.76,1175.71
1208.21,1197.38
1209.66,1207.84
1211.12,1222.64
1212.57,1223.42
1214.02,1212.53
1215.47,1205.91
1216.92,1205
1218.37,1185.7
1219.83,1202.33
1221.28,1216.5
1222.73,1209.32
1224.18,1213.97
1225.63,1206.97
1227.09,1196.66
1228.54,1210.13
1229.99,1226.16
1231.44,1217.04
1232.89,1190.91
1234.34,1176.84
1235.8,1205.35
1237.25,1217.69
1238.7,1231.27
1240.15,1214.96
1241.6,1222.71
1243.06,1259.6
1244.51,1245.33
1245.96,1238.78
1247.41,1228.39
1248.86,1254.72
1250.31,1293.51
1251.77,1297.35
1253.22,1275.64
1254.67,1280.69
1256.12,1296.6
1257.57,1302.43
1259.02,1314.16
1260.48,1341.3
1261.93,1378.61
1263.38,1331.7
1264.83,1378.52
1266.28,1368.65
1267.74,1383.48
1269.19,1398.66
1270.64,1414.39
1272.09,1424.96
1273.54,1413.74
1274.99,1433.92
1276.45,1450.08
1277.9,1500.69
1279.35,1508.89
1280.8,1514.47
1282.25,1575.62
1283.71,1592.15
1285.16,1589.9
1286.61,1648.35
1288.06,1723.17
1289.51,1718.53
1290.96,1748.82
1292.42,1777.78
1293.87,1836.65
1295.32,1815.9
1296.77,1887.23
1298.22,1931.8
1299.67,1989.1
1301.13,2043.08
1302.58,2117.69
1304.03,2177.1
1305.48,2215.84
1306.93,2310.66
1308.39,2368.86
1309.84,2465.73
1311.29,2557.02
1312.74,2694.36
1314.19,2789.85
1315.64,2902.62
1317.1,3022.82
1318.55,3117.9
1320,3237.71
1321.45,3398.64
1322.9,3498.65
1324.36,3533.56
1325.81,3723.06
1327.26,3840.32
1328.71,3895.06
1330.16,3998.46
1331.61,4034.26
1333.07,4085.6
1334.52,4154.75
1335.97,4098.48
1337.42,4045.35
1338.87,3999.37
1340.33,3904.3
1341.78,3784.19
1343.23,3750.7
1344.68,3679.32
1346.13,3550.22
1347.58,3435.7
1349.04,3329.07
1350.49,3182.46
1351.94,3021.26
1353.39,2923.96
1354.84,2895.71
1356.29,2779.72
1357.75,2624.83
1359.2,2568.96
1360.65,2494.45
1362.1,2408.78
1363.55,2324.31
1365.01,2241
1366.46,2163.21
1367.91,2105.14
1369.36,2060.79
1370.81,1985.39
1372.26,1972.42
1373.72,1984.41
1375.17,1929.37
1376.62,1908.77
1378.07,1893.49
1379.52,1866.76
1380.98,1801.12
1382.43,1766.89
1383.88,1758.85
1385.33,1747.87
1386.78,1732.46
1388.23,1733.93
1389.69,1677.89
1391.14,1673.83
1392.59,1674.19
1394.04,1678.99
1395.49,1679.15
1396.94,1693.71
1398.4,1679.28
1399.85,1689.46
1401.3,1701.12
1402.75,1678.82
1404.2,1681.45
1405.66,1660.78
1407.11,1674.22
1408.56,1693.82
1410.01,1669.62
1411.46,1669.79
1412.91,1680.55
1414.37,1693.64
1415.82,1673.03
1417.27,1691.85
1418.72,1704.12
1420.17,1669.15
1421.63,1685.09
1423.08,1721.18
1424.53,1707.63
1425.98,1724.62
1427.43,1747.46
1428.88,1748.32
1430.34,1765.63
1431.79,1789.33
1433.24,1785.89
1434.69,1776.29
1436.14,1801.94
1437.59,1839.55
1439.05,1824.17
1440.5,1834.37
1441.95,1856.85
1443.4,1871.17
1444.85,1860.35
1446.31,1901.17
1447.76,1864.29
1449.21,1942.23
1450.66,1962.97
1452.11,1965.18
1453.56,2000.24
1455.02,2043.05
1456.47,2032.37
1457.92,2000.87
1459.37,2041.33
1460.82,2071.44
1462.28,2154.48
1463.73,2124.41
1465.18,2218.36
1466.63,2196.41
1468.08,2185.11
1469.53,2250.46
1470.99,2275.01
1472.44,2308.87
1473.89,2346.45
1475.34,2368.76
1476.79,2415.82
1478.24,2448.14
1479.7,2460.82
1481.15,2506.78
1482.6,2539.67
1484.05,2615.55
1485.5,2675.64
1486.96,2719.31
1488.41,2749.58
1489.86,2822.33
1491.31,2877.31
1492.76,2904.33
1494.21,2978.72
1495.67,3061.33
1497.12,3144.32
1498.57,3240.74
1500.02,3326.84
1501.47,3439.87
1502.93,3486.68
1504.38,3609.26
1505.83,3690.7
1507.28,3861.77
1508.73,3977.46
1510.18,4145.88
1511.64,4275.71
1513.09,4427.12
1514.54,4586.32
1515.99,4796.56
1517.44,5056.59
1518.89,5254.51
1520.35,5502.61
1521.8,5764.99
1523.25,6125.71
1524.7,6528.49
1526.15,6960.14
1527.61,7320.79
1529.06,7871.32
1530.51,8486.2
1531.96,9193.7
1533.41,9927.27
1534.86,10768.9
1536.32,11729
1537.77,12713.6
1539.22,13897.8
1540.67,15182.1
1542.12,16550.3
1543.58,18189.8
1545.03,19743.1
1546.48,21544.4
1547.93,23515.1
1549.38,25416.7
1550.83,27411.9
1552.29,29607.7
1553.74,31596.6
1555.19,33580.4
1556.64,35544.6
1558.09,37337.2
1559.54,38775.4
1561,39849.5
1562.45,40723.1
1563.9,40963
1565.35,41076.1
1566.8,40358.8
1568.26,39098.9
1569.71,37856.1
1571.16,36171
1572.61,33969.4
1574.06,31722.2
1575.51,29351
1576.97,27029.9
1578.42,24822.6
1579.87,22650.7
1581.32,20701.5
1582.77,18838.3
1584.23,17163.3
1585.68,15701.5
1587.13,14326.5
1588.58,13100.5
1590.03,12237.5
1591.48,11326.3
1592.94,10477.5
1594.39,9822.27
1595.84,9229.61
1597.29,8735.69
1598.74,8314.74
1600.2,7932.42
1601.65,7521.22
1603.1,7158.67
1604.55,6833.72
1606,6512.35
1607.45,6225.06
1608.91,5934.96
1610.36,5623.57
1611.81,5310.18
1613.26,5072.94
1614.71,4734.27
1616.16,4567.06
1617.62,4400.91
1619.07,4225.36
1620.52,4061.89
1621.97,3897.26
1623.42,3735.91
1624.88,3583.94
1626.33,3497.15
1627.78,3398.78
1629.23,3282.68
1630.68,3191.67
1632.13,3071.63
1633.59,3001.07
1635.04,2925.68
1636.49,2874.29
1637.94,2826.09
1639.39,2714.6
1640.85,2705.67
1642.3,2657.6
1643.75,2640.39
1645.2,2545.97
1646.65,2499.85
1648.1,2450.98
1649.56,2386.34
1651.01,2323.17
1652.46,2295.12
1653.91,2298.36
1655.36,2258.46
1656.81,2229.09
1658.27,2218.54
1659.72,2187.99
1661.17,2132.67
1662.62,2045.88
1664.07,2050.06
1665.53,2007.72
1666.98,1964.46
1668.43,1977.26
1669.88,1953.15
1671.33,1886.64
1672.78,1888.38
1674.24,1912.88
1675.69,1851.65
1677.14,1817.06
1678.59,1817.41
1680.04,1809.41
1681.5,1771.73
1682.95,1757.22
1684.4,1781.98
1685.85,1743.68
1687.3,1755.33
1688.75,1741.01
1690.21,1725.21
1691.66,1756.51
1693.11,1712.66
1694.56,1687.41
1696.01,1691.58
1697.46,1644.19
1698.92,1639.99
1700.37,1582.57
1701.82,1568.55
1703.27,1592.38
1704.72,1628.98
1706.18,1611.5
1707.63,1577.65
1709.08,1575.94
1710.53,1600.32
1711.98,1563.58
1713.43,1534.37
1714.89,1541.76
1716.34,1537.36
1717.79,1529.34
1719.24,1551.6
1720.69,1566.33
1722.15,1514.47
1723.6,1553.8
1725.05,1515.36
1726.5,1508.12
1727.95,1561.51
1729.4,1533.87
1730.86,1521.42
1732.31,1500.33
1733.76,1454.6
1735.21,1470.2
1736.66,1474.38
1738.11,1474.46
1739.57,1498.06
1741.02,1474.84
1742.47,1462.85
1743.92,1479.62
1745.37,1483.52
1746.83,1473.72
1748.28,1493.73
1749.73,1463.38
1751.18,1434.32
1752.63,1454.61
1754.08,1392.66
1755.54,1429.74
1756.99,1438.79
1758.44,1441.03
1759.89,1421.43
1761.34,1401.63
1762.8,1409.45
1764.25,1414.32
1765.7,1400.31
1767.15,1386.82
1768.6,1381.84
1770.05,1370.21
1771.51,1362.29
1772.96,1378.08
1774.41,1371.43
1775.86,1381.83
1777.31,1379.11
1778.76,1335.73
1780.22,1352.94
1781.67,1329.23
1783.12,1338.06
1784.57,1351.09
1786.02,1330.26
1787.48,1302.17
1788.93,1296.51
1790.38,1325.61
1791.83,1336.55
1793.28,1331.95
1794.73,1324.24
1796.19,1308.62
1797.64,1331.29
1799.09,1274.9
1800.54,1290.55
1801.99,1303.63
1803.45,1300.36
1804.9,1305.84
1806.35,1281.68
1807.8,1307.62
1809.25,1303.59
1810.7,1276.14
1812.16,1279.18
1813.61,1290.48
1815.06,1270.3
1816.51,1261.3
1817.96,1284.06
1819.41,1319.22
1820.87,1322.29
1822.32,1320.38
1823.77,1289.94
1825.22,1274.39
1826.67,1298.21
1828.13,1263.38
1829.58,1270.71
1831.03,1300.94
1832.48,1315.26
1833.93,1304.31
1835.38,1300.01
1836.84,1329.07
1838.29,1317.56
1839.74,1355.13
1841.19,1332.31
1842.64,1351.5
1844.1,1344.11
1845.55,1337.45
1847,1353.98
1848.45,1397.56
1849.9,1395.57
1851.35,1381.11
1852.81,1397.22
1854.26,1401.99
1855.71,1384.19
1857.16,1394.42
1858.61,1412.44
1860.07,1394.64
1861.52,1396.75
1862.97,1413.52
1864.42,1391.73
1865.87,1374.77
1867.32,1375.81
1868.78,1412.62
1870.23,1433.67
1871.68,1347.46
1873.13,1341.21
1874.58,1400.13
1876.03,1412.79
1877.49,1390.06
1878.94,1322.44
1880.39,1343.71
1881.84,1328.72
1883.29,1349.47
1884.75,1322.33
1886.2,1313.68
1887.65,1311.99
1889.1,1301.54
1890.55,1281.04
1892,1320.22
1893.46,1276.57
1894.91,1266.16
1896.36,1251.59
1897.81,1254.49
1899.26,1251.39
1900.72,1245.55
1902.17,1239.62
1903.62,1252.24
1905.07,1257.57
1906.52,1242.58
1907.97,1221.48
1909.43,1215.61
1910.88,1218.84
1912.33,1204.69
1913.78,1202.78
1915.23,1203.93
1916.68,1217.29
1918.14,1203.65
1919.59,1174.27
1921.04,1182.99
1922.49,1197.84
1923.94,1175.86
1925.4,1142.43
1926.85,1199.62
1928.3,1194.42
1929.75,1179.31
1931.2,1176.1
1932.65,1186.86
1934.11,1169.15
1935.56,1175.47
1937.01,1176.7
1938.46,1211.45
1939.91,1161.06
1941.37,1188.86
1942.82,1210.71
1944.27,1206.35
1945.72,1197.34
1947.17,1194.69
1948.62,1187.77
1950.08,1185.02
1951.53,1223.7
1952.98,1183.85
1954.43,1176.25
1955.88,1172.75
1957.33,1199.91
1958.79,1220.45
1960.24,1201.73
1961.69,1196.47
1963.14,1224.54
1964.59,1239.69
1966.05,1229.2
1967.5,1233.45
1968.95,1225.58
1970.4,1223.93
1971.85,1238.61
1973.3,1254.71
1974.76,1264.04
1976.21,1261.45
1977.66,1234.56
1979.11,1239.91
1980.56,1248.44
1982.02,1248.52
1983.47,1263.58
1984.92,1278.51
1986.37,1281.8
1987.82,1261.43
1989.27,1268.5
1990.73,1270.16
1992.18,1251.85
1993.63,1272.76
1995.08,1293.27
1996.53,1280.86
1997.98,1255.81
1999.44,1287.82
2000.89,1305.43
2002.34,1317.68
2003.79,1276.88
2005.24,1300.99
2006.7,1313.49
2008.15,1283.98
2009.6,1286.62
2011.05,1286.51
2012.5,1239.71
2013.95,1250.48
2015.41,1267.84
2016.86,1265.71
2018.31,1253.59
2019.76,1255.3
2021.21,1238.95
2022.67,1239.27
2024.12,1278.08
2025.57,1250.55
2027.02,1242.68
2028.47,1201.48
2029.92,1227.25
2031.38,1233.52
2032.83,1225.52
2034.28,1217.13
2035.73,1166.52
2037.18,1200.79
2038.63,1194.91
2040.09,1197.17
2041.54,1217.84
2042.99,1207.6
2044.44,1172.89
2045.89,1160.64
2047.35,1157.84
2048.8,1160.4
2050.25,1149.6
2051.7,1138.93
2053.15,1123.97
2054.6,1101.73
2056.06,1141.79
2057.51,1129.27
2058.96,1123.06
2060.41,1150.92
2061.86,1149.37
2063.32,1134.2
2064.77,1120.29
2066.22,1130.37
2067.67,1102.87
2069.12,1103.35
2070.57,1099.73
2072.03,1096.81
2073.48,1114.07
2074.93,1119.33
2076.38,1099.54
2077.83,1113.94
2079.28,1111.57
2080.74,1110.03
2082.19,1128.22
2083.64,1092
2085.09,1086.64
2086.54,1107.43
2088,1092.13
2089.45,1090.86
2090.9,1087.41
2092.35,1101.44
2093.8,1132.01
2095.25,1125.59
2096.71,1082.2
2098.16,1074.07
2099.61,1089.05
2101.06,1093.45
2102.51,1116.77
2103.97,1088.91
2105.42,1076.66
2106.87,1088.31
2108.32,1088.71
2109.77,1087.12
2111.22,1093.75
2112.68,1099.46
2114.13,1108.07
2115.58,1080.01
2117.03,1092.35
2118.48,1087.45
2119.94,1119.37
2121.39,1114.71
2122.84,1121.79
2124.29,1126.84
2125.74,1113.5
2127.19,1099
2128.65,1090.62
2130.1,1102.3
2131.55,1123.97
2133,1086.97
2134.45,1079.39
2135.9,1120.74
2137.36,1146.37
2138.81,1131.01
2140.26,1127.64
2141.71,1153
2143.16,1132.97
2144.62,1118.3
2146.07,1141.71
2147.52,1113.5
2148.97,1087.55
2150.42,1129.82
2151.87,1134.97
2153.33,1131.89
2154.78,1153.62
2156.23,1148.84
2157.68,1148.23
2159.13,1152.09
2160.58,1170.47
2162.04,1171.19
2163.49,1177.26
2164.94,1167.37
2166.39,1153.97
2167.84,1174.7
2169.3,1175.69
2170.75,1174.41
2172.2,1145.13
2173.65,1180.56
2175.1,1179.02
2176.55,1214.36
2178.01,1179.97
2179.46,1165.78
2180.91,1159.87
2182.36,1190.28
2183.81,1223.62
2185.27,1201.4
2186.72,1227.21
2188.17,1186.95
2189.62,1214.32
2191.07,1222.44
2192.52,1185.06
2193.98,1228.23
2195.43,1232.82
2196.88,1218.4
2198.33,1232.63
2199.78,1225.74
2201.24,1194.23
2202.69,1220.39
2204.14,1264.45
2205.59,1236.91
2207.04,1204.64
2208.49,1194.28
2209.95,1224.65
2211.4,1228.61
2212.85,1198.47
2214.3,1255.08
2215.75,1217.86
2217.2,1238.86
2218.66,1197.48
2220.11,1236.67
2221.56,1257.25
2223.01,1205.81
2224.46,1218.97
2225.92,1231.34
2227.37,1206.29
2228.82,1251.12
2230.27,1245.53
2231.72,1195.4
2233.17,1251.68
2234.63,1229.11
2236.08,1243.51
2237.53,1251.74
2238.98,1236.97
2240.43,1255.34
2241.89,1253.97
2243.34,1258.74
2244.79,1252.75
2246.24,1268.88
2247.69,1288.54
2249.14,1298.46
2250.6,1276.47
2252.05,1256.83
2253.5,1293.25
2254.95,1305.97
2256.4,1292.59
2257.85,1311.9
2259.31,1321.9
2260.76,1305.7
2262.21,1282.93
2263.66,1278.25
2265.11,1321.01
2266.57,1311.23
2268.02,1335.19
2269.47,1354.66
2270.92,1330.16
2272.37,1322.36
2273.82,1348.33
2275.28,1352.22
2276.73,1327.71
2278.18,1355
2279.63,1334.13
2281.08,1347.9
2282.54,1365.32
2283.99,1342.85
2285.44,1377.86
2286.89,1374.75
2288.34,1348.62
2289.79,1352.69
2291.25,1395.34
2292.7,1356.77
2294.15,1391.47
2295.6,1404.56
2297.05,1358.42
2298.5,1390.68
2299.96,1387.01
2301.41,1419.32
2302.86,1402.3
2304.31,1410.54
2305.76,1433.53
2307.22,1422.14
2308.67,1404.31
2310.12,1441.03
2311.57,1410.78
2313.02,1468.68
2314.47,1471.08
2315.93,1472.17
2317.38,1485.97
2318.83,1486.61
2320.28,1497.84
2321.73,1481.43
2323.19,1473.27
2324.64,1515.33
2326.09,1495.08
2327.54,1496.73
2328.99,1516.73
2330.44,1511.57
2331.9,1529.19
2333.35,1548.26
2334.8,1575.46
2336.25,1531.78
2337.7,1535.19
2339.16,1575.11
2340.61,1607.53
2342.06,1606.33
2343.51,1631.2
2344.96,1628.86
2346.41,1617.5
2347.87,1608.5
2349.32,1684.05
2350.77,1682.68
2352.22,1678.36
2353.67,1629.95
2355.12,1653.44
2356.58,1653.18
2358.03,1683.84
2359.48,1683.31
2360.93,1776.35
2362.38,1760.66
2363.84,1732.92
2365.29,1758.35
2366.74,1827.08
2368.19,1814.76
2369.64,1814.96
2371.09,1829.81
2372.55,1828.07
2374,1853.86
2375.45,1920.29
2376.9,1935.58
2378.35,1942.05
2379.8,1968.02
2381.26,2002.89
2382.71,2069.15
2384.16,2091.13
2385.61,2130.65
2387.06,2153.83
2388.52,2244.46
2389.97,2197.8
2391.42,2226.7
2392.87,2261.89
2394.32,2303.17
2395.77,2369.32
2397.23,2448.12
2398.68,2489.82
2400.13,2499.3
2401.58,2597.26
2403.03,2608.78
2404.49,2643.03
2405.94,2748.09
2407.39,2758.04
2408.84,2801.98
2410.29,2813.17
2411.74,2819.25
2413.2,2857.21
2414.65,2922.66
2416.1,2945.29
2417.55,2955.15
2419,2991.61
2420.46,3017.46
2421.91,3054.27
2423.36,3050.58
2424.81,3062.53
2426.26,3105.75
2427.71,3086.55
2429.17,3117.95
2430.62,3096.53
2432.07,3172.78
2433.52,3054.45
2434.97,3079
2436.42,3070.61
2437.88,3041.15
2439.33,3054.77
2440.78,3092.83
2442.23,3088.16
2443.68,3024.56
2445.14,2948.21
2446.59,2936.33
2448.04,2907.71
2449.49,2926.4
2450.94,2877.85
2452.39,2881.75
2453.85,2853.07
2455.3,2833.1
2456.75,2797.48
2458.2,2767.08
2459.65,2774.39
2461.1,2780.1
2462.56,2790.52
2464.01,2758.12
2465.46,2744.74
2466.91,2714.48
2468.36,2737.31
2469.82,2750.63
2471.27,2682.87
2472.72,2671.21
2474.17,2663.25
2475.62,2607.97
2477.07,2672.35
2478.53,2617.77
2479.98,2686.77
2481.43,2605.37
2482.88,2637.44
2484.33,2625.71
2485.79,2560.42
2487.24,2618.99
2488.69,2601.82
2490.14,2591.15
2491.59,2620.02
2493.04,2637.85
2494.5,2589.89
2495.95,2621.48
2497.4,2678.14
2498.85,2638.67
2500.3,2655.52
2501.76,2689.98
2503.21,2639.24
2504.66,2700.19
2506.11,2770.34
2507.56,2729.29
2509.01,2716.68
2510.47,2728.78
2511.92,2722.75
2513.37,2784.16
2514.82,2791.47
2516.27,2772.06
2517.72,2739.27
2519.18,2779.14
2520.63,2807.11
2522.08,2840.65
2523.53,2842.54
2524.98,2919.16
2526.44,2940.78
2527.89,2998.01
2529.34,2972.59
2530.79,3057.11
2532.24,3084.47
2533.69,3043.94
2535.15,3107.89
2536.6,3176.21
2538.05,3218.75
2539.5,3252.68
2540.95,3308.33
2542.41,3333.37
2543.86,3330.58
2545.31,3372.21
2546.76,3440.02
2548.21,3499.87
2549.66,3569.73
2551.12,3581.52
2552.57,3639.83
2554.02,3690.64
2555.47,3730.59
2556.92,3874.61
2558.37,3916.1
2559.83,4012.25
2561.28,4072.93
2562.73,4109.5
2564.18,4173.65
2565.63,4267.2
2567.09,4328
2568.54,4435.19
2569.99,4467.84
2571.44,4568.67
2572.89,4706.83
2574.34,4872.49
2575.8,4957.23
2577.25,5044.76
2578.7,5215.88
2580.15,5346.43
2581.6,5453.14
2583.06,5651.43
2584.51,5756.53
2585.96,5920.47
2587.41,5995.26
2588.86,6232.9
2590.31,6438.07
2591.77,6619.62
2593.22,6854.39
2594.67,7077.77
2596.12,7323.72
2597.57,7582.92
2599.02,7868.79
2600.48,8155.29
2601.93,8360.7
2603.38,8679.49
2604.83,9077.64
2606.28,9330.6
2607.74,9769.03
2609.19,10116.3
2610.64,10535.5
2612.09,10981.1
2613.54,11358
2614.99,11785.2
2616.45,12221.2
2617.9,12744.6
2619.35,13275.8
2620.8,13802.4
2622.25,14428.2
2623.71,15037.9
2625.16,15698.4
2626.61,16365.9
2628.06,16928.9
2629.51,17544.2
2630.96,18144.4
2632.42,18953.9
2633.87,19732.9
2635.32,20228.8
2636.77,20825.4
2638.22,21619.1
2639.68,22339.5
2641.13,22933.6
2642.58,23575.3
2644.03,24226.7
2645.48,24811.6
2646.93,25229
2648.39,25754.8
2649.84,26305.8
2651.29,26465.7
2652.74,26925.8
2654.19,27029.8
2655.64,27250.6
2657.1,27261.3
2658.55,27403
2660,27366.2
2661.45,27202.6
2662.9,26882.6
2664.36,26665.6
2665.81,26311.9
2667.26,26037.1
2668.71,25553
2670.16,25003.2
2671.61,24384.1
2673.07,23800.1
2674.52,23127.9
2675.97,22580.5
2677.42,21878.6
2678.87,21263.5
2680.32,20592.7
2681.78,19841.9
2683.23,19083.3
2684.68,18382.7
2686.13,17702.7
2687.58,16991.7
2689.04,16270.9
2690.49,15695
2691.94,15011.7
2693.39,14440
2694.84,13775
2696.29,13198
2697.75,12699.2
2699.2,12183.1
2700.65,11636.3
2702.1,11183.5
2703.55,10621.5
2705.01,10197
2706.46,9809.86
2707.91,9293.18
2709.36,8979.51
2710.81,8508.07
2712.26,8310.88
2713.72,8029.31
2715.17,7688.14
2716.62,7400.65
2718.07,7147.51
2719.52,6852.26
2720.98,6656.28
2722.43,6375.92
2723.88,6120.59
2725.33,5918.85
2726.78,5695.54
2728.23,5515.72
2729.69,5370.26
2731.14,5228.62
2732.59,5043.2
2734.04,4930.46
2735.49,4790.9
2736.94,4703.48
2738.4,4568.75
2739.85,4511.98
2741.3,4375.81
2742.75,4242.45
2744.2,4133.39
2745.66,4051
2747.11,3943
2748.56,3853.33
2750.01,3741.6
2751.46,3685.71
2752.91,3628.45
2754.37,3552.92
2755.82,3525.94
2757.27,3454.35
2758.72,3349.19
2760.17,3334.28
2761.63,3308.67
2763.08,3163.75
2764.53,3147.36
2765.98,3106.19
2767.43,3022.46
2768.88,2975.7
2770.34,2966.65
2771.79,2949.62
2773.24,2908.82
2774.69,2830.44
2776.14,2830.47
2777.59,2797.69
2779.05,2752.46
2780.5,2653.34
2781.95,2647.44
2783.4,2622.38
2784.85,2662.51
2786.31,2613.9
2787.76,2584.7
2789.21,2570.77
2790.66,2508.24
2792.11,2506.67
2793.56,2478.28
2795.02,2401.65
2796.47,2419.21
2797.92,2436.79
2799.37,2379.78
2800.82,2359.63
2802.28,2346.72
2803.73,2325.09
2805.18,2324.11
2806.63,2286.94
2808.08,2304.36
2809.53,2277.77
2810.99,2219.23
2812.44,2172.97
2813.89,2176.29
2815.34,2192.68
2816.79,2162.4
2818.24,2175.52
2819.7,2171.03
2821.15,2142.03
2822.6,2108.93
2824.05,2111.82
2825.5,2096.43
2826.96,2065.15
2828.41,2093.83
2829.86,2110.45
2831.31,2060.48
2832.76,2049.52
2834.21,2032.75
2835.67,1990.06
2837.12,1972.18
2838.57,1983.15
2840.02,1966.57
2841.47,2017.61
2842.93,1963.79
2844.38,1981.01
2845.83,1949.95
2847.28,1945.58
2848.73,1974.77
2850.18,1981.33
2851.64,1950.87
2853.09,1922.73
2854.54,1946.97
2855.99,1926.25
2857.44,1911.66
2858.9,1935.56
2860.35,1895.88
2861.8,1920.73
2863.25,1906.81
2864.7,1883.47
2866.15,1914.41
2867.61,1873.61
2869.06,1883.86
2870.51,1888.31
2871.96,1926.99
2873.41,1845.57
2874.86,1854.37
2876.32,1853.56
2877.77,1865.32
2879.22,1853.23
2880.67,1879.69
2882.12,1912.17
2883.58,1899
2885.03,1879.82
2886.48,1850.98
2887.93,1858.1
2889.38,1902.88
2890.83,1865.51
2892.29,1900.54
2893.74,1890.08
2895.19,1833.76
2896.64,1824.04
2898.09,1840.37
2899.54,1861.47
2901,1904.75
2902.45,1831.71
2903.9,1867.72
2905.35,1837.03
2906.8,1828.74
2908.26,1809.61
2909.71,1804.98
2911.16,1811.02
2912.61,1782.14
2914.06,1827.13
2915.51,1817.5
2916.97,1773.71
2918.42,1809.82
2919.87,1808.38
2921.32,1754.6
2922.77,1740.95
2924.23,1721.37
2925.68,1710.92
2927.13,1716.37
2928.58,1707.2
2930.03,1691.77
2931.48,1742.28
2932.94,1733.62
2934.39,1704.8
2935.84,1642.83
2937.29,1622.33
2938.74,1586.08
2940.2,1571.46
2941.65,1544.69
2943.1,1600.98
2944.55,1587.31
2946,1576.27
2947.45,1542.92
2948.91,1547.16
2950.36,1519.75
2951.81,1535.95
2953.26,1500.14
2954.71,1466.98
2956.16,1481.69
2957.62,1456.55
2959.07,1416.1
2960.52,1465.4
2961.97,1466.35
2963.42,1424.13
2964.88,1453.75
2966.33,1455.39
2967.78,1440.47
2969.23,1379.81
2970.68,1393.41
2972.13,1398.64
2973.59,1393.31
2975.04,1372.52
2976.49,1356.54
2977.94,1330.64
2979.39,1390.91
2980.84,1415.09
2982.3,1336.3
2983.75,1337.85
2985.2,1322.95
2986.65,1307.33
2988.1,1327.55
2989.56,1285.17
2991.01,1322.36
2992.46,1299.22
2993.91,1294.52
2995.36,1332.93
2996.81,1273.51
2998.27,1284.14
2999.72,1279.71
3001.17,1246.13
3002.62,1245.72
3004.07,1262.55
3005.53,1318.92
3006.98,1301.78
3008.43,1278.56
3009.88,1274.73
3011.33,1280.86
3012.78,1268.85
3014.24,1275.94
3015.69,1291.84
3017.14,1260.43
3018.59,1296.33
3020.04,1261.18
3021.5,1260
3022.95,1282.69
3024.4,1257.89
3025.85,1238.65
3027.3,1276.86
3028.75,1272.77
3030.21,1273.66
3031.66,1302.3
3033.11,1230.29
3034.56,1275.48
3036.01,1267.95
3037.46,1246.16
3038.92,1280.39
3040.37,1238.09
3041.82,1274.06
3043.27,1265.67
3044.72,1284.75
3046.18,1262.48
3047.63,1253.38
3049.08,1248.3
3050.53,1224.68
3051.98,1277.89
3053.43,1254.75
3054.89,1292.8
3056.34,1306.49
3057.79,1261.62
3059.24,1292.86
3060.69,1282.25
3062.15,1240.89
3063.6,1266.11
3065.05,1305.9
3066.5,1285.33
3067.95,1326.42
3069.4,1303.96
3070.86,1279.03
3072.31,1329.73
3073.76,1345.35
3075.21,1360.51
3076.66,1343.45
3078.11,1319.69
3079.57,1349.52
3081.02,1355.52
3082.47,1336.33
3083.92,1380.98
3085.37,1367.68
3086.83,1428.14
3088.28,1479.19
3089.73,1441.98
3091.18,1465.32
3092.63,1471.26
3094.08,1491.41
3095.54,1505.82
3096.99,1508.21
3098.44,1507.41
3099.89,1567.44
3101.34,1598.3
3102.8,1641.26
3104.25,1623.66
3105.7,1640.21
3107.15,1665.01
3108.6,1702.77
3110.05,1747.47
3111.51,1748.13
3112.96,1746.73
3114.41,1768.78
3115.86,1852.35
3117.31,1855.96
3118.76,1889.36
3120.22,1857.4
3121.67,1935.46
3123.12,1962.4
3124.57,1933.77
3126.02,1944.88
3127.48,1994.74
3128.93,2039.73
3130.38,2022.86
3131.83,2042.13
3133.28,2078.71
3134.73,2120.28
3136.19,2093.56
3137.64,2133.24
3139.09,2123.41
3140.54,2127.47
3141.99,2136.33
3143.45,2151.11
3144.9,2152.24
3146.35,2152.38
3147.8,2143.88
3149.25,2123.46
3150.7,2157.8
3152.16,2139.83
3153.61,2138.42
3155.06,2172.47
3156.51,2172.51
3157.96,2129.71
3159.42,2138.08
3160.87,2225.4
3162.32,2212.84
3163.77,2221.4
3165.22,2209.12
3166.67,2229.41
3168.13,2266.81
3169.58,2243.71
3171.03,2259.2
3172.48,2347.27
3173.93,2276.98
3175.38,2289.66
3176.84,2362.57
3178.29,2418.61
3179.74,2378.69
3181.19,2414.37
3182.64,2489.53
3184.1,2514.17
3185.55,2551.07
3187,2557.04
3188.45,2552.68
3189.9,2613.53
3191.35,2633.75
3192.81,2654.28
3194.26,2680.9
3195.71,2679.3
3197.16,2697.45
3198.61,2673.1
3200.06,2721.18
3201.52,2717.25
3202.97,2680.43
3204.42,2694.67
3205.87,2627.46
3207.32,2613.96
3208.78,2600.42
3210.23,2548.27
3211.68,2508.22
3213.13,2496.37
3214.58,2437.62
3216.03,2360.85
3217.49,2283.14
3218.94,2216.78
3220.39,2208.12
3221.84,2161.76
3223.29,2051.5
3224.75,2012.23
3226.2,1974.62
3227.65,1908.95
3229.1,1809.86
3230.55,1814.18
3232,1770.25
3233.46,1683.99
3234.91,1650.8
3236.36,1604.01
3237.81,1545.79
3239.26,1516.33
3240.72,1484.01
3242.17,1475.51
3243.62,1407.08
3245.07,1370.21
3246.52,1383.47
3247.97,1314.66
3249.43,1299.79
3250.88,1265.02
3252.33,1240.37
3253.78,1245.83
3255.23,1239.3
3256.68,1214.12
3258.14,1215.38
3259.59,1240.9
3261.04,1169.42
3262.49,1138.79
3263.94,1140.49
3265.4,1160.91
3266.85,1186.44
3268.3,1133.03
3269.75,1147.68
3271.2,1104.8
3272.65,1110.87
3274.11,1076.32
3275.56,1102.59
3277.01,1070.13
3278.46,1128.09
3279.91,1124.78
3281.37,1090.59
3282.82,1099.13
3284.27,1099.84
3285.72,1092.07
3287.17,1078.28
3288.62,1067.09
3290.08,1061.7
3291.53,1092.47
3292.98,1053.85
3294.43,1032.33
3295.88,1076.48
3297.33,1039.79
3298.79,1044.33
3300.24,1065.19
3301.69,1049.35
3303.14,1004.46
3304.59,1038.02
3306.05,1045.16
3307.5,1022.84
3308.95,1051.69
3310.4,1028.09
3311.85,1032.1
3313.3,1044.5
3314.76,1067.64
3316.21,1031.88
3317.66,1020.79
3319.11,1044.36
3320.56,1009.19
3322.02,1023.42
3323.47,1023.72
3324.92,1019.19
3326.37,1010.11
3327.82,1013.81
3329.27,1019.67
3330.73,1042.56
3332.18,1005.1
3333.63,1032.32
3335.08,1019.81
3336.53,1013.71
3337.98,1006.21
3339.44,1007.13
3340.89,1008.95
3342.34,1009.68
3343.79,1008.1
3345.24,1033.03
3346.7,988.851
3348.15,1038.7
3349.6,986.323
3351.05,987.372
3352.5,1007.61
3353.95,1001.21
3355.41,1027.23
3356.86,990.377
3358.31,981.002
3359.76,1026.9
3361.21,1020.4
3362.67,1018.94
3364.12,983.173
3365.57,963.692
3367.02,1010.84
3368.47,1013.13
3369.92,1004.13
3371.38,962.329
3372.83,1005.72
3374.28,987.035
3375.73,994.476
3377.18,986.61
3378.63,994.927
3380.09,984.412
3381.54,980.758
3382.99,960.943
3384.44,987.449
3385.89,988.296
3387.35,989.522
3388.8,989.169
3390.25,1022.11
3391.7,1026.15
3393.15,990.466
3394.6,988.29
3396.06,1013.81
3397.51,991.888
3398.96,995.838
3400.41,974.234
3401.86,995.011
3403.32,1005.32
3404.77,1043.22
3406.22,1010.53
3407.67,981.217
3409.12,1008.63
3410.57,1013.23
3412.03,990.262
3413.48,1044.57
3414.93,983.805
3416.38,1007.14
3417.83,998.878
3419.28,943.492
3420.74,997.441
3422.19,990.859
3423.64,990.236
3425.09,1000.56
3426.54,1030.79
3428,970.929
3429.45,985.327
3430.9,991.094
3432.35,1022.38
3433.8,1016.76
3435.25,996.314
3436.71,985.942
3438.16,965.998
3439.61,1008.1
3441.06,985.895
3442.51,995.995
3443.97,987.109
3445.42,945.599
3446.87,968.805
3448.32,1005.73
3449.77,988.827
3451.22,977.024
3452.68,977.04
3454.13,985.158
3455.58,993.504
3457.03,970.033
3458.48,962.661
3459.94,966.382
3461.39,961.9
3462.84,970.264
3464.29,1004.79
3465.74,1003.84
3467.19,985.633
3468.65,955.273
3470.1,995.88
3471.55,976.912
3473,983.976
3474.45,983.42
3475.9,997.082
3477.36,1006.45
3478.81,970.104
3480.26,942.305
3481.71,990.784
3483.16,986.882
3484.62,985.241
3486.07,1008.79
3487.52,1012.33
3488.97,1004.3
3490.42,960.313
3491.87,1015.77
3493.33,1012.88
3494.78,993.681
3496.23,983.006
3497.68,1031.05
3499.13,1012.1
3500.58,1005.91
3502.04,1004.36
3503.49,986.875
3504.94,1021.37
3506.39,1004.09
3507.84,988.809
3509.3,989.607
3510.75,1027.98
3512.2,996.268
3513.65,1018.02
3515.1,1016.6
3516.55,1008.33
3518.01,998.177
3519.46,970.993
3520.91,1003.74
3522.36,997.666
3523.81,1014.74
3525.27,1019.04
3526.72,1009.8
3528.17,1041.99
3529.62,995.877
3531.07,1012.53
3532.52,1022.73
3533.98,1029.78
3535.43,968.634
3536.88,1004.24
3538.33,1020.98
3539.78,1012.91
3541.24,966.109
3542.69,989.217
3544.14,993.888
3545.59,1017.62
3547.04,1031.83
3548.49,986.291
3549.95,978.015
3551.4,1009.68
3552.85,994.418
3554.3,1000.44
3555.75,960.176
3557.2,1009.58
3558.66,978.884
3560.11,1009.93
3561.56,1001.46
3563.01,967.971
3564.46,993.891
3565.92,997.011
3567.37,979.278
3568.82,997.181
3570.27,985.312
3571.72,1003.02
3573.17,1003.74
3574.63,972.074
3576.08,1003.74
3577.53,983.44
3578.98,984.962
3580.43,997.573
3581.89,1012.64
3583.34,999.891
3584.79,994.3
3586.24,980.025
3587.69,979.771
3589.14,983.344
3590.6,991.075
3592.05,1003.61
3593.5,994.636
3594.95,965.843
3596.4,1005.09
3597.85,1006.75
3599.31,979.453
3600.76,988.422
3602.21,966.672
3603.66,968.384
3605.11,1002.9
3606.57,987.329
3608.02,1027.66
3609.47,1030.59
3610.92,997.675
3612.37,1034.48
3613.82,971.748
3615.28,973.914
3616.73,1002.77
3618.18,1006.71
3619.63,988.63
3621.08,1021.17
3622.54,1008.52
3623.99,985.279
3625.44,993.147
3626.89,992.016
3628.34,1018.34
3629.79,1000.97
3631.25,1021.61
3632.7,940.109
3634.15,997.577
3635.6,1002.53
3637.05,1018.26
3638.5,1018.21
3639.96,1031.95
3641.41,1011.75
3642.86,1006.67
3644.31,1040.43
3645.76,992.18
3647.22,1028.73
3648.67,992.277
3650.12,1024.59
3651.57,994.356
3653.02,1035.52
3654.47,1005.91
3655.93,1029.73
3657.38,1041.87
3658.83,1025.72
3660.28,1043.4
3661.73,996.029
3663.19,1012.05
3664.64,1039.23
3666.09,1018
3667.54,1061.67
3668.99,1027.65
3670.44,1048.76
3671.9,994.454
3673.35,1031.61
3674.8,1036.97
3676.25,1045.85
3677.7,1031.24
3679.16,1031.41
3680.61,1017.56
3682.06,1037.96
3683.51,1014.6
3684.96,998.799
3686.41,1016.22
3687.87,1058.49
3689.32,1058.67
3690.77,1029.21
3692.22,1067.74
3693.67,1040.99
3695.12,1063.46
3696.58,1026.38
3698.03,1070.82
3699.48,1022.4
3700.93,1023.58
3702.38,1026.5
3703.84,1064.81
3705.29,1038.19
3706.74,1055.04
3708.19,1044.54
3709.64,1048.31
3711.09,1019.34
3712.55,1021.22
3714,1035.02
3715.45,1032.2
3716.9,1062.17
3718.35,1029.45
3719.8,1045.39
3721.26,1051.8
3722.71,1039.44
3724.16,1068.76
3725.61,1044.63
3727.06,1031.82
3728.52,1058.51
3729.97,1043.43
3731.42,1057.8
3732.87,1091.89
3734.32,1092.79
3735.77,1042.05
3737.23,1036.96
3738.68,1070.66
3740.13,1033.31
3741.58,1040.41
3743.03,1070.8
3744.49,1070.27
3745.94,1060.36
3747.39,1064.61
3748.84,1065.58
3750.29,1019.18
3751.74,1071.28
3753.2,1096.93
3754.65,1061.54
3756.1,1050.8
3757.55,1074.84
3759,1044.7
3760.46,1034.71
3761.91,1071.38
3763.36,1053.26
3764.81,1073.74
3766.26,1079.07
3767.71,1092.35
3769.17,1095.6
3770.62,1056.62
3772.07,1028.78
3773.52,1077.06
3774.97,1109.11
3776.42,1117.23
3777.88,1106.97
3779.33,1067.25
3780.78,1092.01
3782.23,1060.54
3783.68,1054.76
3785.14,1073.17
3786.59,1078.88
3788.04,1055.27
3789.49,1086.05
3790.94,1054.09
3792.39,1082.9
3793.85,1095.9
3795.3,1090.45
3796.75,1092.42
3798.2,1095.28
3799.65,1108.87
3801.1,1105.09
3802.56,1051.62
3804.01,1099.14
3805.46,1103.48
3806.91,1095.57
3808.36,1086.23
3809.82,1086.02
3811.27,1073.03
3812.72,1081.26
3814.17,1064.04
3815.62,1103.33
3817.07,1127.14
3818.53,1113.49
3819.98,1127.6
3821.43,1119.02
3822.88,1100.69
3824.33,1084.42
3825.79,1103.08
3827.24,1102.89
3828.69,1127.84
3830.14,1115.71
3831.59,1142.41
3833.04,1128.35
3834.5,1103.95
3835.95,1121.02
3837.4,1120.35
3838.85,1120.8
3840.3,1120.05
3841.76,1139.14
3843.21,1151.24
3844.66,1142.66
3846.11,1088.66
3847.56,1107.79
3849.01,1118.2
3850.47,1120.63
3851.92,1132.85
3853.37,1139.75
3854.82,1145.94
3856.27,1122.27
3857.72,1093.17
3859.18,1159.79
3860.63,1131.12
3862.08,1148.99
3863.53,1146.96
3864.98,1139.74
3866.44,1134.62
3867.89,1155.84
3869.34,1160.49
3870.79,1172.76
3872.24,1127.76
3873.69,1157.93
3875.15,1136.57
3876.6,1174.29
3878.05,1155.64
3879.5,1149.96
3880.95,1183.75
3882.41,1179.25
3883.86,1215.08
3885.31,1178.07
3886.76,1174.44
3888.21,1184.87
3889.66,1204.93
3891.12,1167.06
3892.57,1207.47
3894.02,1181.56
3895.47,1203.79
3896.92,1211.72
3898.37,1204.15
3899.83,1215.01
3901.28,1214.93
3902.73,1186.63
3904.18,1204.31
3905.63,1207.32
3907.09,1226.74
3908.54,1219.86
3909.99,1215.4
3911.44,1205.37
3912.89,1263.27
3914.34,1243.92
3915.8,1226.03
3917.25,1265.89
3918.7,1224.89
3920.15,1261.3
3921.6,1233.97
3923.06,1222.9
3924.51,1268.49
3925.96,1291.87
3927.41,1231.69
3928.86,1275.76
3930.31,1268.19
3931.77,1288.99
3933.22,1269.04
3934.67,1295.13
3936.12,1284
3937.57,1283.76
3939.02,1321.31
3940.48,1269.11
3941.93,1296.27
3943.38,1300.55
3944.83,1314.58
3946.28,1301.43
3947.74,1321.43
3949.19,1341.84
3950.64,1334.34
3952.09,1336.28
3953.54,1326.56
3954.99,1329.33
3956.45,1352.82
3957.9,1352.3
3959.35,1391.3
3960.8,1344.61
3962.25,1358.32
3963.71,1376.78
3965.16,1371.2
3966.61,1396.05
3968.06,1348.36
3969.51,1379.78
3970.96,1356.31
3972.42,1338.1
3973.87,1366.41
3975.32,1430.51
3976.77,1390.33
3978.22,1402.3
3979.68,1413.68
3981.13,1438.74
3982.58,1413.2
3984.03,1396.93
3985.48,1441.76
3986.93,1480.11
3988.39,1461.82
3989.84,1413.01
3991.29,1412.68
3992.74,1455.27
3994.19,1411.21
3995.64,1440.49
3997.1,1502.99
3998.55,1451.71
4000,1446.3
