0.01,85.6739
1.45033,83.7076
2.90065,81.741
4.35098,79.7746
5.80131,77.8083
7.25163,75.8417
8.70196,157.753
10.1523,99.001
11.6026,83.2507
13.0529,68.3087
14.5033,59.4814
15.9536,56.8682
17.4039,56.9474
18.8542,52.5635
20.3046,45.2088
21.7549,41.0359
23.2052,41.2265
24.6555,29.024
26.1059,33.9417
27.5562,30.7027
29.0065,22.788
30.4569,22.3018
31.9072,19.8232
33.3575,18.4981
34.8078,13.4291
36.2582,4.48658
37.7085,-1.57995
39.1588,6.53995
40.6091,11.8699
42.0595,11.785
43.5098,5.97848
44.9601,-2.14293
46.4104,4.51479
47.8608,5.89914
49.3111,7.96086
50.7614,30.1267
52.2117,61.0132
53.6621,131.065
55.1124,236.76
56.5627,376.128
58.0131,553.417
59.4634,749.386
60.9137,884.644
62.364,1029.77
63.8144,1238.54
65.2647,1277.7
66.715,1329.49
68.1653,1371.41
69.6157,1412.4
71.066,1478.13
72.5163,1507.54
73.9666,1520.32
75.417,1519.22
76.8673,1519.81
78.3176,1565.2
79.7679,1596.8
81.2183,1595.6
82.6686,1604.83
84.1189,1653.41
85.5693,1671.01
87.0196,1718.73
88.4699,1676.8
89.9202,1593.06
91.3706,1568.42
92.8209,1497.89
94.2712,1428.55
95.7215,1382.55
97.1719,1341.62
98.6222,1245.76
100.073,1253.75
101.523,1226.1
102.973,1200.44
104.423,1197.34
105.874,1191.24
107.324,1184.68
108.774,1161.51
110.225,1143.8
111.675,1142.12
113.125,1071.96
114.576,1088.69
116.026,1085.67
117.476,1061.88
118.927,1049.61
120.377,1047.64
121.827,1031
123.278,1010.96
124.728,984.26
126.178,937.282
127.629,913.511
129.079,884.871
130.529,863.689
131.98,858.663
133.43,875.335
134.88,833.655
136.331,812.46
137.781,794.088
139.231,775.662
140.682,814.112
142.132,819.42
143.582,799.862
145.033,762.632
146.483,722.092
147.933,726.349
149.384,727.934
150.834,732.808
152.284,757.24
153.735,810.02
155.185,805.457
156.635,752.333
158.086,703.135
159.536,662.946
160.986,620.162
162.437,636.894
163.887,639.329
165.337,622.196
166.788,600.305
168.238,603.315
169.688,627.892
171.139,630.781
172.589,619.451
174.039,592.987
175.489,542.071
176.94,555.956
178.39,542.482
179.84,528.051
181.291,530.653
182.741,556.795
184.191,531.194
185.642,534.776
187.092,529.471
188.542,506.774
189.993,517.848
191.443,486.496
192.893,495.311
194.344,504.996
195.794,485.589
197.244,439.83
198.695,492.673
200.145,488.361
201.595,473.956
203.046,476.981
204.496,431.711
205.946,446.519
207.397,458.445
208.847,460.73
210.297,453.367
211.748,437.304
213.198,410.701
214.648,427.548
216.099,450.674
217.549,448.754
218.999,436.337
220.45,396.22
221.9,404.41
223.35,435.727
224.801,452.025
226.251,411.883
227.701,424.808
229.152,435.424
230.602,435.15
232.052,422.253
233.503,396.707
234.953,417.45
236.403,413.674
237.854,405.113
239.304,408.259
240.754,408.39
242.204,394.863
243.655,402.888
245.105,409.927
246.555,402.488
248.006,396.328
249.456,388.183
250.906,363.794
252.357,350.728
253.807,360.536
255.257,373.278
256.708,355.197
258.158,348.333
259.608,353.557
261.059,356.648
262.509,325.247
263.959,361.067
265.41,354.062
266.86,349.073
268.31,345.59
269.761,295.151
271.211,343.694
272.661,331.319
274.112,305.1
275.562,289.526
277.012,290.086
278.463,288.119
279.913,294.136
281.363,297.486
282.814,295.271
284.264,291.223
285.714,314.024
287.165,295.564
288.615,287.879
290.065,284.006
291.516,264.194
292.966,253.262
294.416,240.489
295.867,263.815
297.317,267.175
298.767,220.619
300.218,247.647
301.668,234.158
303.118,241.158
304.569,243.359
306.019,227.666
307.469,224.643
308.919,212.467
310.37,200.325
311.82,189.353
313.27,184.078
314.721,192.663
316.171,199.684
317.621,188.228
319.072,190.889
320.522,194.458
321.972,163.647
323.423,150.569
324.873,159.538
326.323,168.172
327.774,163.823
329.224,145.579
330.674,149.967
332.125,150.102
333.575,159.136
335.025,157.113
336.476,143.099
337.926,170.279
339.376,155.886
340.827,138.456
342.277,130.462
343.727,137.652
345.178,157.311
346.628,109.727
348.078,116.369
349.529,121.758
350.979,115.19
352.429,108.874
353.88,101.6
355.33,96.621
356.78,80.2118
358.231,76.4933
359.681,97.3082
361.131,97.4669
362.582,104.134
364.032,102.878
365.482,107.22
366.933,113.024
368.383,94.9245
369.833,91.8932
371.284,84.2125
372.734,88.5747
374.184,92.88
375.635,79.3874
377.085,84.8719
378.535,79.5822
379.986,79.7673
381.436,68.5231
382.886,45.6361
384.336,59.1151
385.787,26.609
387.237,40.9977
388.687,57.4764
390.138,55.206
391.588,44.2081
393.038,88.6228
394.489,43.744
395.939,37.3004
397.389,55.9653
398.84,54.1261
400.29,30.8183
401.74,41.9874
403.191,59.2958
404.641,54.4885
406.091,31.0703
407.542,25.1564
408.992,14.1114
410.442,16.1284
411.893,29.9687
413.343,34.3365
414.793,14.4036
416.244,8.16154
417.694,16.2243
419.144,5.26241
420.595,-14.1042
422.045,-23.0389
423.495,-2.88763
424.946,7.45024
426.396,4.31356
427.846,-6.37122
429.297,-9.03311
430.747,4.38151
432.197,-4.98407
433.648,-11.8517
435.098,-15.1142
436.548,-18.5471
437.999,-13.661
439.449,15.0234
440.899,-17.92
442.35,8.31665
443.8,20.1211
445.25,11.8877
446.701,-0.308876
448.151,-8.08036
449.601,-18.4075
451.051,11.9107
452.502,2.06044
453.952,-28.6524
455.402,5.64313
456.853,1.08856
458.303,28.2158
459.753,13.7142
461.204,2.68838
462.654,17.4226
464.104,-8.57717
465.555,2.45247
467.005,-2.56669
468.455,-7.36346
469.906,-2.59458
471.356,12.8351
472.806,25.5006
474.257,-16.046
475.707,-10.1206
477.157,4.81628
478.608,6.49618
480.058,5.87775
481.508,0.239219
482.959,2.86841
484.409,-1.35031
485.859,-3.10471
487.31,10.1464
488.76,43.1674
490.21,-17.4343
491.661,8.25285
493.111,19.1346
494.561,4.71466
496.012,0.184595
497.462,25.8096
498.912,0.683602
500.363,-15.436
501.813,-10.4949
503.263,2.10959
504.714,-2.10027
506.164,-2.8972
507.614,-31.0089
509.065,-10.2777
510.515,15.4337
511.965,14.2427
513.416,2.10754
514.866,11.5848
516.316,-11.1674
517.766,-9.74473
519.217,0.115772
520.667,6.24835
522.117,45.6217
523.568,0.96906
525.018,-11.7316
526.468,9.22943
527.919,13.7997
529.369,-22.6943
530.819,7.38775
532.27,13.8465
533.72,2.63593
535.17,0.555033
536.621,2.10299
538.071,-5.25794
539.521,22.651
540.972,4.35385
542.422,4.37158
543.872,13.9654
545.323,16.8907
546.773,5.75232
548.223,19.0632
549.674,17.0253
551.124,-7.64172
552.574,-21.3093
554.025,-10.8635
555.475,8.7567
556.925,11.2128
558.376,9.30097
559.826,-5.89036
561.276,-5.86557
562.727,11.8199
564.177,17.0649
565.627,4.69011
567.078,23.9325
568.528,22.4678
569.978,10.1328
571.429,8.38119
572.879,27.9041
574.329,3.09323
575.78,8.72592
577.23,4.83539
578.68,-1.96745
580.131,-4.16394
581.581,-4.70836
583.031,5.87684
584.482,0.780204
585.932,-4.05275
587.382,-3.24865
588.832,8.57395
590.283,30.4148
591.733,-23.3515
593.183,-17.7759
594.634,-7.60875
596.084,-3.91715
597.534,-8.56982
598.985,-17.7853
600.435,11.9306
601.885,4.77747
603.336,-16.8222
604.786,-16.6058
606.236,0.632028
607.687,-5.97683
609.137,-19.9526
610.587,-33.9301
612.038,-13.7855
613.488,1.24998
614.938,0.464022
616.389,7.41455
617.839,34.9993
619.289,-6.44522
620.74,-13.9628
622.19,-7.75084
623.64,0.405061
625.091,9.45336
626.541,-2.91979
627.991,-14.7573
629.442,6.47367
630.892,-4.24199
632.342,-20.5053
633.793,1.94026
635.243,3.8191
636.693,-2.99517
638.144,-1.56724
639.594,-1.36875
641.044,-1.04843
642.495,0.390402
643.945,-4.73723
645.395,10.3125
646.846,12.9064
648.296,28.4929
649.746,15.9777
651.197,-17.3496
652.647,6.44289
654.097,3.93279
655.547,-4.4347
656.998,6.43403
658.448,0.68634
659.898,-14.6832
661.349,-0.354117
662.799,5.37953
664.249,17.8615
665.7,-13.6429
667.15,-25.3759
668.6,-23.7052
670.051,-33.0728
671.501,1.27843
672.951,18.5764
674.402,42.155
675.852,53.3586
677.302,33.5194
678.753,7.68583
680.203,45.9789
681.653,39.0473
683.104,-0.431674
684.554,-7.48915
686.004,-0.394348
687.455,4.27216
688.905,5.67471
690.355,-6.21781
691.806,-7.07204
693.256,-11.6292
694.706,-9.39468
696.157,-1.86835
697.607,9.76379
699.057,37.3179
700.508,22.6355
701.958,24.8386
703.408,12.4049
704.859,3.08732
706.309,2.83708
707.759,-5.35323
709.21,-6.21906
710.66,18.701
712.11,11.4577
713.561,-5.65552
715.011,-5.93734
716.461,10.3825
717.912,-5.39221
719.362,-6.06693
720.812,-3.47057
722.263,-3.57521
723.713,0.793761
725.163,8.39787
726.613,6.78279
728.064,-5.51955
729.514,14.026
730.964,4.23446
732.415,7.34486
733.865,21.4798
735.315,22.2531
736.766,4.57956
738.216,13.3394
739.666,-19.3279
741.117,-17.7101
742.567,-15.7502
744.017,-19.921
745.468,-7.22526
746.918,-21.2321
748.368,-6.95045
749.819,-9.89453
751.269,5.70973
752.719,19.3129
754.17,9.70378
755.62,-10.9155
757.07,-36.0596
758.521,-0.795756
759.971,16.4894
761.421,11.5689
762.872,9.26193
764.322,15.9222
765.772,-16.3312
767.223,2.48086
768.673,5.78404
770.123,-5.99701
771.574,-21.9301
773.024,-21.2257
774.474,1.39371
775.925,-8.20082
777.375,-25.0399
778.825,-15.5805
780.276,-35.3173
781.726,-30.9127
783.176,-3.08784
784.627,-19.7476
786.077,-3.68504
787.527,-0.0135634
788.978,1.88655
790.428,-8.7026
791.878,-0.012457
793.328,22.1229
794.779,-7.42483
796.229,-58.3694
797.68,-15.4808
799.13,-6.7517
800.58,-36.6025
802.03,-43.8073
803.481,-14.0138
804.931,-31.4932
806.381,-32.168
807.832,-4.0237
809.282,-14.5625
810.732,-21.4579
812.183,-20.8356
813.633,-15.7308
815.083,20.9647
816.534,15.8115
817.984,19.3124
819.434,-2.90839
820.885,-14.1149
822.335,-9.16673
823.785,-9.83967
825.236,-30.584
826.686,-15.0056
828.136,-14.6883
829.587,14.8393
831.037,26.0509
832.487,14.4633
833.938,6.91803
835.388,16.1179
836.838,3.09906
838.289,33.1611
839.739,-11.7599
841.189,-11.3101
842.64,13.8142
844.09,-3.13384
845.54,-26.9382
846.991,42.6019
848.441,10.9945
849.891,7.63887
851.342,-1.50265
852.792,-2.63773
854.242,12.9669
855.693,11.0874
857.143,35.1562
858.593,11.6369
860.044,22.9406
861.494,19.1476
862.944,21.6867
864.394,27.5456
865.845,-7.23695
867.295,3.34804
868.745,-9.27584
870.196,10.4703
871.646,0.948717
873.096,-5.90657
874.547,8.63184
875.997,9.03836
877.447,-52.5104
878.898,-6.9601
880.348,5.10994
881.798,-28.6645
883.249,-50.3984
884.699,-31.6257
886.149,-2.59914
887.6,-24.1215
889.05,-14.0609
890.5,-9.66351
891.951,5.64844
893.401,-6.82564
894.851,-24.5291
896.302,-17.4389
897.752,-5.35275
899.202,-26.9324
900.653,-3.14691
902.103,-4.41028
903.553,-23.3406
905.004,-28.8776
906.454,-9.01219
907.904,15.8305
909.355,13.9162
910.805,8.71037
912.255,15.4279
913.706,14.8129
915.156,14.92
916.606,5.32242
918.057,-5.351
919.507,24.9044
920.957,-14.3276
922.408,-13.6166
923.858,28.0414
925.308,45.1291
926.759,21.8443
928.209,-4.78519
929.659,10.5177
931.109,46.6389
932.56,32.9052
934.01,23.6896
935.46,7.18458
936.911,15.3936
938.361,31.5329
939.811,12.4788
941.262,-39.1726
942.712,29.4201
944.162,0.100718
945.613,-34.6257
947.063,-30.1648
948.513,-8.77725
949.964,-9.72506
951.414,-27.5707
952.864,8.74679
954.315,-10.6881
955.765,17.2731
957.215,3.93572
958.666,8.39275
960.116,11.9452
961.566,-0.33516
963.017,-1.15317
964.467,5.89389
965.917,37.7038
967.368,20.9407
968.818,-1.52624
970.268,-13.0373
971.719,-22.4816
973.169,-27.4271
974.619,-6.88244
976.07,11.0666
977.52,1.27244
978.97,9.63726
980.421,27.0731
981.871,37.1864
983.321,21.7874
984.772,-5.06534
986.222,-2.81637
987.672,-33.197
989.123,21.2248
990.573,-3.6067
992.023,-4.27878
993.474,6.20267
994.924,17.3396
996.374,38.464
997.825,57.1116
999.275,3.81081
1000.73,22.5159
1002.18,11.1995
1003.63,7.89962
1005.08,6.20873
1006.53,18.6877
1007.98,45.1965
1009.43,40.1081
1010.88,24.5414
1012.33,39.5232
1013.78,51.9817
1015.23,38.8415
1016.68,49.8673
1018.13,71.8031
1019.58,73.5736
1021.03,70.4317
1022.48,18.4109
1023.93,51.0066
1025.38,55.366
1026.83,71.4729
1028.28,65.9003
1029.73,41.5816
1031.18,49.9672
1032.63,112.558
1034.08,89.4567
1035.53,46.2788
1036.98,80.3912
1038.43,76.354
1039.88,85.0131
1041.33,90.4686
1042.78,85.2704
1044.23,104.271
1045.69,119.678
1047.14,46.5337
1048.59,95.3881
1050.04,145.629
1051.49,103.047
1052.94,91.5232
1054.39,127.208
1055.84,135.471
1057.29,166.953
1058.74,104.66
1060.19,100.483
1061.64,146.657
1063.09,145.001
1064.54,147.986
1065.99,162.361
1067.44,151.511
1068.89,129.486
1070.34,197.12
1071.79,173.376
1073.24,201.897
1074.69,193.905
1076.14,181.743
1077.59,180.89
1079.04,192.42
1080.49,207.221
1081.94,198.721
1083.39,164.554
1084.84,230.468
1086.29,240.783
1087.74,254.356
1089.2,210.043
1090.65,183.198
1092.1,217.238
1093.55,215.204
1095,186.947
1096.45,212.875
1097.9,236.109
1099.35,225.7
1100.8,234.746
1102.25,241.803
1103.7,213.797
1105.15,186.452
1106.6,225.103
1108.05,193.253
1109.5,204.756
1110.95,205.811
1112.4,181.551
1113.85,179.664
1115.3,185.969
1116.75,190.587
1118.2,202.585
1119.65,208.195
1121.1,205.897
1122.55,216.823
1124,219.057
1125.45,190.283
1126.9,165.044
1128.35,160.982
1129.8,160.295
1131.25,151.576
1132.7,162.444
1134.16,140.844
1135.61,122.161
1137.06,129.993
1138.51,152.91
1139.96,149.576
1141.41,158.208
1142.86,179.523
1144.31,165.238
1145.76,132.83
1147.21,150.68
1148.66,101.082
1150.11,158.416
1151.56,172.405
1153.01,175.92
1154.46,173.719
1155.91,155.844
1157.36,135.966
1158.81,132.785
1160.26,106.487
1161.71,187.47
1163.16,151.079
1164.61,130.78
1166.06,149.078
1167.51,156.262
1168.96,146.579
1170.41,149.137
1171.86,155.361
1173.31,127.23
1174.76,155.146
1176.21,150.988
1177.66,133.915
1179.12,167.615
1180.57,158.15
1182.02,138.194
1183.47,161.773
1184.92,186.293
1186.37,184.037
1187.82,178.682
1189.27,174.5
1190.72,168.251
1192.17,165.303
1193.62,165.731
1195.07,163.364
1196.52,169.044
1197.97,169.108
1199.42,134.343
1200.87,176.142
1202.32,179.569
1203.77,165.201
1205.22,177.704
1206.67,153.323
1208.12,160.914
1209.57,206.423
1211.02,207.243
1212.47,153.237
1213.92,183.906
1215.37,194.831
1216.82,201.2
1218.27,161.883
1219.72,224.307
1221.17,261.917
1222.63,226.576
1224.08,188.122
1225.53,195.972
1226.98,211.036
1228.43,211.808
1229.88,234.747
1231.33,217.61
1232.78,229.037
1234.23,232.539
1235.68,248.543
1237.13,212.209
1238.58,194.583
1240.03,237.571
1241.48,239.803
1242.93,220.67
1244.38,217.157
1245.83,222.96
1247.28,247.344
1248.73,270.504
1250.18,294.013
1251.63,287.73
1253.08,272.143
1254.53,280.199
1255.98,304.266
1257.43,326.008
1258.88,310.722
1260.33,300.019
1261.78,323.519
1263.23,342.319
1264.68,346.877
1266.13,331.407
1267.59,334.54
1269.04,363.46
1270.49,387.932
1271.94,413.789
1273.39,417.633
1274.84,400.394
1276.29,409.182
1277.74,417.638
1279.19,454.886
1280.64,455.637
1282.09,480.273
1283.54,533.103
1284.99,556.751
1286.44,570.403
1287.89,605.203
1289.34,603.265
1290.79,652.905
1292.24,631.252
1293.69,673.332
1295.14,713.678
1296.59,711.061
1298.04,738.482
1299.49,825.952
1300.94,883.355
1302.39,875.874
1303.84,988.368
1305.29,1005.48
1306.74,1065.51
1308.19,1147.9
1309.64,1198.79
1311.09,1227.67
1312.55,1282.99
1314,1400.22
1315.45,1536.12
1316.9,1617.91
1318.35,1669.45
1319.8,1751.92
1321.25,1776.2
1322.7,2027.82
1324.15,2065.45
1325.6,2186.44
1327.05,2293.87
1328.5,2383.5
1329.95,2460.61
1331.4,2541.01
1332.85,2627.45
1334.3,2646.31
1335.75,2744.81
1337.2,2725.69
1338.65,2669.21
1340.1,2670.76
1341.55,2581.79
1343,2598.73
1344.45,2565.14
1345.9,2447.46
1347.35,2386.28
1348.8,2379.72
1350.25,2263.89
1351.7,2108.9
1353.15,1999.22
1354.6,1854.84
1356.06,1812.93
1357.51,1687.75
1358.96,1564.47
1360.41,1487.29
1361.86,1424.93
1363.31,1351.98
1364.76,1240.39
1366.21,1112.13
1367.66,1110.05
1369.11,1049.6
1370.56,1041.75
1372.01,927.142
1373.46,908.914
1374.91,843.728
1376.36,788.947
1377.81,773.238
1379.26,753.177
1380.71,708.961
1382.16,691.031
1383.61,713.299
1385.06,667.064
1386.51,654.463
1387.96,643.016
1389.41,607.525
1390.86,611.275
1392.31,588.5
1393.76,585.082
1395.21,568.585
1396.66,554.494
1398.11,545.946
1399.56,515.701
1401.02,497.698
1402.47,520.259
1403.92,534.3
1405.37,543.232
1406.82,509.878
1408.27,504.954
1409.72,502.86
1411.17,490.296
1412.62,446.568
1414.07,449.351
1415.52,487.2
1416.97,492.824
1418.42,498.681
1419.87,518.3
1421.32,526.751
1422.77,485.772
1424.22,456.813
1425.67,480.124
1427.12,474.445
1428.57,484.057
1430.02,473.822
1431.47,492.971
1432.92,514.964
1434.37,528.94
1435.82,552.405
1437.27,528.116
1438.72,524.955
1440.17,433.596
1441.62,525.177
1443.07,537.273
1444.53,530.232
1445.98,525.988
1447.43,574.531
1448.88,613.991
1450.33,591.935
1451.78,579
1453.23,596.305
1454.68,589.551
1456.13,608.513
1457.58,655.096
1459.03,620.983
1460.48,636.622
1461.93,675.442
1463.38,632.368
1464.83,654.189
1466.28,690.427
1467.73,679.479
1469.18,673.305
1470.63,694.067
1472.08,706.014
1473.53,726.849
1474.98,785.234
1476.43,787.203
1477.88,805.431
1479.33,883.504
1480.78,798.536
1482.23,893.053
1483.68,922.323
1485.13,933.06
1486.58,939.952
1488.03,911.048
1489.49,942.648
1490.94,1017.2
1492.39,1057.32
1493.84,1080.84
1495.29,1111.08
1496.74,1185.42
1498.19,1182.65
1499.64,1249.29
1501.09,1221.9
1502.54,1283.85
1503.99,1342.09
1505.44,1416.05
1506.89,1449.23
1508.34,1516.21
1509.79,1603.56
1511.24,1692.35
1512.69,1777.46
1514.14,1845.66
1515.59,1940.7
1517.04,2073.62
1518.49,2183.77
1519.94,2392.1
1521.39,2398.74
1522.84,2594.82
1524.29,2714.4
1525.74,2969.91
1527.19,3195.21
1528.64,3420.52
1530.09,3726.56
1531.54,4042.03
1532.99,4333.61
1534.45,4730.33
1535.9,5172.28
1537.35,5478.63
1538.8,6138.06
1540.25,6772.96
1541.7,7245.61
1543.15,7981.57
1544.6,8669.94
1546.05,9495.77
1547.5,10242.2
1548.95,11120.3
1550.4,12043.7
1551.85,12873.5
1553.3,13817.7
1554.75,14874.9
1556.2,15854
1557.65,16810.1
1559.1,17777.6
1560.55,18683.9
1562,19618.7
1563.45,20230.9
1564.9,20888.3
1566.35,21220.5
1567.8,22873.4
1569.25,21216
1570.7,21006.2
1572.15,20434.6
1573.6,19770.5
1575.05,18878.7
1576.5,17703.1
1577.96,16513.5
1579.41,15396.1
1580.86,14238.8
1582.31,13156.4
1583.76,12038
1585.21,10995.5
1586.66,10040.8
1588.11,9189.42
1589.56,8465.41
1591.01,7683.38
1592.46,7083.15
1593.91,6587.51
1595.36,6148.33
1596.81,5709.2
1598.26,5356.39
1599.71,5026.09
1601.16,4734.04
1602.61,4468.01
1604.06,4199.99
1605.51,4001.82
1606.96,3820.93
1608.41,3623.09
1609.86,3420.6
1611.31,3243.5
1612.76,3029.06
1614.21,2797.73
1615.66,2692.07
1617.11,2454.27
1618.56,2286.91
1620.01,2160.04
1621.46,2007.63
1622.92,1848.98
1624.37,1765.33
1625.82,1649.55
1627.27,1566.24
1628.72,1481.03
1630.17,1386.26
1631.62,1307.32
1633.07,1289.54
1634.52,1207.92
1635.97,1165.24
1637.42,1134.27
1638.87,1087.91
1640.32,1039.05
1641.77,1015.92
1643.22,976.97
1644.67,926.138
1646.12,883.151
1647.57,849.101
1649.02,827.926
1650.47,827.738
1651.92,782.486
1653.37,758.451
1654.82,708.681
1656.27,734.055
1657.72,701.247
1659.17,649.346
1660.62,671.603
1662.07,650.089
1663.52,603.561
1664.97,594.231
1666.42,596.571
1667.88,578.297
1669.33,542.291
1670.78,551.558
1672.23,559.473
1673.68,534.198
1675.13,525.839
1676.58,492.22
1678.03,461.052
1679.48,471.14
1680.93,463.591
1682.38,435.092
1683.83,476.089
1685.28,425.166
1686.73,411.76
1688.18,397.177
1689.63,423.291
1691.08,410.244
1692.53,403.639
1693.98,414.553
1695.43,390.149
1696.88,353.019
1698.33,374.918
1699.78,381.975
1701.23,352.274
1702.68,341.006
1704.13,348.537
1705.58,328.644
1707.03,349.452
1708.48,366.545
1709.93,339.521
1711.39,316.422
1712.84,348.43
1714.29,300.412
1715.74,327.237
1717.19,320.24
1718.64,337.299
1720.09,328.547
1721.54,307.553
1722.99,325.765
1724.44,345.373
1725.89,340.763
1727.34,335.651
1728.79,320.106
1730.24,298.77
1731.69,302.532
1733.14,288.799
1734.59,304.023
1736.04,333.452
1737.49,290.313
1738.94,308.29
1740.39,349.915
1741.84,307.296
1743.29,253.752
1744.74,197.306
1746.19,205.916
1747.64,206.507
1749.09,251.709
1750.54,269.667
1751.99,275.328
1753.44,278.134
1754.89,268.948
1756.35,254.546
1757.8,265.151
1759.25,256.274
1760.7,194.76
1762.15,191.841
1763.6,209.906
1765.05,217.048
1766.5,183.086
1767.95,226.467
1769.4,204.306
1770.85,205.433
1772.3,202.881
1773.75,178.381
1775.2,192.268
1776.65,191.959
1778.1,214.082
1779.55,149.496
1781,170.032
1782.45,163.841
1783.9,216.84
1785.35,228.934
1786.8,195.35
1788.25,181.022
1789.7,178.183
1791.15,176.036
1792.6,173.989
1794.05,172.944
1795.5,170.519
1796.95,167.657
1798.4,191.743
1799.85,144.564
1801.31,129.765
1802.76,145.513
1804.21,148.657
1805.66,115.506
1807.11,153.119
1808.56,136.087
1810.01,98.4163
1811.46,153.464
1812.91,170.976
1814.36,147.048
1815.81,108.278
1817.26,122.828
1818.71,151.679
1820.16,142.158
1821.61,120.017
1823.06,100.27
1824.51,91.9884
1825.96,90.3758
1827.41,101.465
1828.86,132.538
1830.31,149.241
1831.76,136.833
1833.21,124.573
1834.66,115.269
1836.11,82.7121
1837.56,144.244
1839.01,153.729
1840.46,162.95
1841.91,140.45
1843.36,91.4766
1844.82,147.934
1846.27,183.202
1847.72,192.67
1849.17,158.194
1850.62,169.955
1852.07,142.565
1853.52,142.067
1854.97,109.567
1856.42,123.056
1857.87,195.359
1859.32,199.07
1860.77,170.102
1862.22,150.222
1863.67,160.112
1865.12,158.008
1866.57,160.448
1868.02,150.213
1869.47,150.871
1870.92,187.707
1872.37,189.211
1873.82,178.55
1875.27,159.02
1876.72,147.568
1878.17,121.436
1879.62,137.667
1881.07,133.336
1882.52,128.232
1883.97,33.2364
1885.42,148.588
1886.87,122.729
1888.32,137.538
1889.78,84.1853
1891.23,90.4924
1892.68,106.128
1894.13,105.68
1895.58,131.799
1897.03,79.0441
1898.48,90.3533
1899.93,66.3495
1901.38,112.009
1902.83,89.6439
1904.28,71.5231
1905.73,62.9529
1907.18,56.6297
1908.63,40.2117
1910.08,21.5261
1911.53,73.7841
1912.98,68.0721
1914.43,32.9384
1915.88,57.1464
1917.33,62.8485
1918.78,57.8561
1920.23,80.0934
1921.68,79.8596
1923.13,64.4344
1924.58,68.6081
1926.03,68.81
1927.48,54.4608
1928.93,71.8722
1930.38,74.7469
1931.83,43.1761
1933.29,72.7895
1934.74,43.824
1936.19,67.3167
1937.64,23.6892
1939.09,19.3959
1940.54,4.36222
1941.99,27.7012
1943.44,35.6167
1944.89,16.2432
1946.34,38.7714
1947.79,21.6994
1949.24,15.2284
1950.69,28.4281
1952.14,46.911
1953.59,23.9797
1955.04,73.787
1956.49,48.8701
1957.94,62.4615
1959.39,36.4827
1960.84,65.2847
1962.29,50.6991
1963.74,36.1234
1965.19,25.353
1966.64,54.8166
1968.09,81.8563
1969.54,33.1162
1970.99,12.4281
1972.44,30.4266
1973.89,61.3806
1975.34,77.2398
1976.79,85.1833
1978.25,80.905
1979.7,88.4524
1981.15,106.038
1982.6,89.3801
1984.05,74.5435
1985.5,77.4148
1986.95,62.1747
1988.4,76.0057
1989.85,90.7197
1991.3,58.1149
1992.75,90.1742
1994.2,88.4579
1995.65,57.1652
1997.1,68.3867
1998.55,89.5511
2000,73.4379
2001.45,71.4449
2002.9,70.6296
2004.35,45.4319
2005.8,70.5284
2007.25,65.8955
2008.7,54.7693
2010.15,85.1975
2011.6,100.234
2013.05,74.8533
2014.5,87.824
2015.95,88.8854
2017.4,48.4326
2018.85,44.6997
2020.3,20.0295
2021.75,98.0641
2023.21,70.8799
2024.66,31.8124
2026.11,100.022
2027.56,29.3161
2029.01,32.8644
2030.46,11.1917
2031.91,71.1466
2033.36,28.9401
2034.81,53.7644
2036.26,34.6061
2037.71,1.5965
2039.16,34.3268
2040.61,22.1488
2042.06,27.6654
2043.51,11.6412
2044.96,26.9285
2046.41,-12.4073
2047.86,22.5674
2049.31,13.5384
2050.76,-3.91142
2052.21,30.2467
2053.66,-45.2407
2055.11,-8.9821
2056.56,-14.7472
2058.01,-4.75336
2059.46,3.67894
2060.91,-2.79349
2062.36,-8.02171
2063.81,-16.329
2065.26,14.9633
2066.72,-11.4031
2068.17,-32.3838
2069.62,4.44108
2071.07,19.9156
2072.52,15.8761
2073.97,1.34163
2075.42,-2.55696
2076.87,-28.2793
2078.32,-34.2638
2079.77,-25.1533
2081.22,-10.097
2082.67,10.3629
2084.12,-4.99641
2085.57,-40.4381
2087.02,-26.3948
2088.47,-8.42321
2089.92,-11.1036
2091.37,-8.71559
2092.82,-30.8136
2094.27,-9.28418
2095.72,31.7306
2097.17,-6.34342
2098.62,-37.5297
2100.07,-24.7992
2101.52,-20.28
2102.97,-41.7353
2104.42,-47.5459
2105.87,-13.1008
2107.32,-13.125
2108.77,-36.5967
2110.22,-37.458
2111.68,-29.9047
2113.13,-18.4
2114.58,-1.529
2116.03,-19.5361
2117.48,-32.6173
2118.93,-13.079
2120.38,15.195
2121.83,-4.6665
2123.28,-15.0368
2124.73,-27.265
2126.18,-29.1234
2127.63,-9.79925
2129.08,-15.9315
2130.53,-22.1556
2131.98,-40.1233
2133.43,-44.1161
2134.88,-24.0726
2136.33,-15.7014
2137.78,-12.3037
2139.23,4.75449
2140.68,13.0867
2142.13,11.8349
2143.58,15.2479
2145.03,11.7188
2146.48,11.2807
2147.93,11.3275
2149.38,9.85016
2150.83,20.9025
2152.28,18.9443
2153.73,4.268
2155.18,-17.7546
2156.64,2.492
2158.09,-1.38546
2159.54,4.58215
2160.99,7.4391
2162.44,21.9714
2163.89,27.1047
2165.34,3.8226
2166.79,-4.91768
2168.24,43.9893
2169.69,42.1997
2171.14,42.4735
2172.59,22.4476
2174.04,17.5612
2175.49,6.43233
2176.94,25.6682
2178.39,48.7534
2179.84,27.0943
2181.29,39.4814
2182.74,23.9711
2184.19,26.2128
2185.64,22.7011
2187.09,14.1793
2188.54,23.1415
2189.99,28.0696
2191.44,42.1929
2192.89,23.9232
2194.34,59.1329
2195.79,79.2339
2197.24,82.2582
2198.69,75.5991
2200.15,59.0547
2201.6,72.5753
2203.05,69.0877
2204.5,55.4178
2205.95,101.452
2207.4,94.2575
2208.85,113.07
2210.3,79.6329
2211.75,92.7728
2213.2,93.313
2214.65,50.1534
2216.1,52.4542
2217.55,32.2399
2219,72.5261
2220.45,39.0413
2221.9,116.808
2223.35,40.2514
2224.8,139.008
2226.25,124.883
2227.7,88.979
2229.15,94.5446
2230.6,125.218
2232.05,87.4268
2233.5,127.207
2234.95,91.1213
2236.4,167.412
2237.85,129.411
2239.3,146.361
2240.75,98.4244
2242.2,73.3106
2243.65,90.3891
2245.11,76.7666
2246.56,131.684
2248.01,102.752
2249.46,129.153
2250.91,117.049
2252.36,123.789
2253.81,133.226
2255.26,124.218
2256.71,135.996
2258.16,97.395
2259.61,92.293
2261.06,95.5678
2262.51,123.51
2263.96,109.697
2265.41,109.406
2266.86,148.897
2268.31,142.429
2269.76,106.068
2271.21,126.391
2272.66,126.662
2274.11,116.325
2275.56,100.356
2277.01,114.987
2278.46,153.632
2279.91,160.393
2281.36,163.272
2282.81,145.122
2284.26,124.735
2285.71,126.341
2287.16,125.997
2288.61,130.502
2290.07,150.167
2291.52,178.35
2292.97,163.189
2294.42,181.847
2295.87,185.05
2297.32,182.592
2298.77,148.032
2300.22,162.188
2301.67,137.178
2303.12,183.578
2304.57,218.8
2306.02,186.522
2307.47,170.138
2308.92,182.976
2310.37,150.123
2311.82,217.188
2313.27,234.655
2314.72,133.129
2316.17,188.418
2317.62,200.691
2319.07,219.56
2320.52,238.749
2321.97,207.134
2323.42,215.719
2324.87,217.989
2326.32,218.713
2327.77,224.977
2329.22,236.469
2330.67,240.84
2332.12,200.178
2333.57,197.36
2335.03,232.526
2336.48,242.622
2337.93,251.269
2339.38,266.317
2340.83,266.077
2342.28,255.489
2343.73,233.1
2345.18,252.911
2346.63,299.716
2348.08,311.289
2349.53,324.034
2350.98,330.419
2352.43,338.7
2353.88,370.883
2355.33,349.052
2356.78,327.538
2358.23,309.061
2359.68,367.256
2361.13,369.727
2362.58,395.76
2364.03,396.516
2365.48,417.387
2366.93,442.395
2368.38,350.88
2369.83,365.381
2371.28,449.803
2372.73,418.569
2374.18,503.202
2375.63,481.251
2377.08,508.952
2378.54,480.516
2379.99,503.702
2381.44,502.122
2382.89,520.86
2384.34,583.254
2385.79,610.895
2387.24,572.989
2388.69,618.178
2390.14,662.242
2391.59,665.892
2393.04,683.778
2394.49,699.017
2395.94,737.224
2397.39,765.03
2398.84,859.22
2400.29,848.549
2401.74,828.925
2403.19,885.776
2404.64,925.918
2406.09,866.79
2407.54,967.258
2408.99,980.811
2410.44,1014.11
2411.89,1055.59
2413.34,1083.37
2414.79,1030.04
2416.24,1078.69
2417.69,1114.75
2419.14,1154.84
2420.59,1203.87
2422.04,1233.69
2423.5,1198.79
2424.95,1236.9
2426.4,1268.1
2427.85,1266.96
2429.3,1251.89
2430.75,1239.62
2432.2,1201.79
2433.65,1188.8
2435.1,1244.16
2436.55,1256.27
2438,1227.04
2439.45,1196.53
2440.9,1185.74
2442.35,1247.91
2443.8,1252.76
2445.25,1134.42
2446.7,1156.6
2448.15,1181.79
2449.6,1148.79
2451.05,1154.88
2452.5,1177.26
2453.95,1154.85
2455.4,1125.43
2456.85,1084.6
2458.3,1097.27
2459.75,1064.8
2461.2,1051.19
2462.65,1064.4
2464.1,1045.6
2465.55,1040.39
2467.01,1034.61
2468.46,1027.48
2469.91,1021.56
2471.36,1002.94
2472.81,985.167
2474.26,1020.22
2475.71,955.181
2477.16,924.457
2478.61,948.704
2480.06,941.62
2481.51,980.317
2482.96,956.112
2484.41,939.356
2485.86,911.631
2487.31,882.249
2488.76,950.396
2490.21,995.804
2491.66,966.181
2493.11,944.766
2494.56,950.926
2496.01,924.669
2497.46,940.572
2498.91,946.494
2500.36,979.927
2501.81,926.222
2503.26,960.538
2504.71,968.506
2506.16,947.088
2507.61,977.456
2509.06,991.074
2510.51,949.831
2511.97,963.945
2513.42,995.388
2514.87,958.606
2516.32,948.516
2517.77,1018.32
2519.22,1001.65
2520.67,997.763
2522.12,1030.09
2523.57,977.176
2525.02,1023.91
2526.47,1089.94
2527.92,1097.6
2529.37,1107.83
2530.82,1163.84
2532.27,1143.32
2533.72,1205.46
2535.17,1160.68
2536.62,1189.29
2538.07,1176.83
2539.52,1223.61
2540.97,1253.92
2542.42,1251.81
2543.87,1306.05
2545.32,1281.25
2546.77,1319.54
2548.22,1339.82
2549.67,1382.74
2551.12,1411.62
2552.57,1399.97
2554.02,1453.6
2555.48,1501.78
2556.93,1571.27
2558.38,1627.74
2559.83,1592.37
2561.28,1593.16
2562.73,1707.64
2564.18,1773.52
2565.63,1774.21
2567.08,1869.07
2568.53,1805.18
2569.98,1952.57
2571.43,2007.87
2572.88,2065.21
2574.33,2179.78
2575.78,2243.17
2577.23,2309.88
2578.68,2356.13
2580.13,2372.9
2581.58,2467.15
2583.03,2560.35
2584.48,2724.38
2585.93,2784.94
2587.38,2874.11
2588.83,2990.91
2590.28,3017.97
2591.73,3230.61
2593.18,3360.56
2594.63,3393.54
2596.08,3518.84
2597.53,3673.37
2598.98,3821.37
2600.44,3974.42
2601.89,4110.62
2603.34,4307.96
2604.79,4489.14
2606.24,4664.67
2607.69,4899.27
2609.14,5141.95
2610.59,5309.24
2612.04,5560.92
2613.49,5639
2614.94,5934.83
2616.39,6317.96
2617.84,6515.89
2619.29,6799.16
2620.74,7034.54
2622.19,7378.91
2623.64,7812.08
2625.09,8046.39
2626.54,8309.07
2627.99,8757.93
2629.44,9044.77
2630.89,9433.07
2632.34,9882.92
2633.79,10009.8
2635.24,10436.2
2636.69,10958.6
2638.14,11261
2639.59,11694.5
2641.04,12072
2642.49,12392
2643.94,12692.3
2645.4,12988
2646.85,13336.5
2648.3,13666.3
2649.75,13920.4
2651.2,14304.1
2652.65,14657.9
2654.1,14873.4
2655.55,14895.2
2657,15048.8
2658.45,15118.3
2659.9,15261.6
2661.35,15363.5
2662.8,15389
2664.25,15205.9
2665.7,15124.5
2667.15,15101.6
2668.6,15041.1
2670.05,14763.9
2671.5,14652.8
2672.95,14367.5
2674.4,14197.9
2675.85,13956
2677.3,13624.6
2678.75,13081.7
2680.2,12603.5
2681.65,12358.4
2683.1,11988.7
2684.55,11595.4
2686,11223.4
2687.45,10799.6
2688.91,10336
2690.36,10011.9
2691.81,9645.44
2693.26,9160.82
2694.71,8976.5
2696.16,8501.73
2697.61,8216.95
2699.06,7828.21
2700.51,7510.17
2701.96,7145.09
2703.41,6839.24
2704.86,6476.62
2706.31,6124.8
2707.76,5908.35
2709.21,5567.82
2710.66,5354.17
2712.11,5053.28
2713.56,4842.42
2715.01,4534.35
2716.46,4382.35
2717.91,4203.92
2719.36,4045.35
2720.81,3820.25
2722.26,3643.25
2723.71,3539.26
2725.16,3376.25
2726.61,3195.52
2728.06,3022.11
2729.51,2963.27
2730.96,2865.92
2732.41,2734.01
2733.87,2642.33
2735.32,2503.71
2736.77,2337.21
2738.22,2342.08
2739.67,2219.16
2741.12,2138
2742.57,2042.68
2744.02,2002.93
2745.47,1978.33
2746.92,1833.13
2748.37,1832.22
2749.82,1753.2
2751.27,1721.06
2752.72,1612.49
2754.17,1590.5
2755.62,1518.61
2757.07,1479.83
2758.52,1502.6
2759.97,1461.14
2761.42,1411.16
2762.87,1329.55
2764.32,1349.61
2765.77,1295.76
2767.22,1300.7
2768.67,1105.97
2770.12,1168.47
2771.57,1127.75
2773.02,1077.99
2774.47,1090.04
2775.92,1060.15
2777.38,1057.03
2778.83,1061.48
2780.28,1006.59
2781.73,998.032
2783.18,1025.57
2784.63,908.941
2786.08,942.434
2787.53,933.483
2788.98,838.32
2790.43,821.823
2791.88,867.41
2793.33,828.078
2794.78,822.15
2796.23,791.819
2797.68,777.126
2799.13,808.438
2800.58,783.569
2802.03,718.494
2803.48,763.338
2804.93,713.947
2806.38,685.046
2807.83,708.529
2809.28,686.379
2810.73,660.676
2812.18,682.162
2813.63,639.878
2815.08,662.496
2816.53,657.941
2817.98,631.361
2819.43,582.561
2820.88,609.792
2822.33,603.862
2823.79,571.626
2825.24,566.993
2826.69,611.29
2828.14,622.913
2829.59,573.24
2831.04,591.773
2832.49,558.96
2833.94,527.279
2835.39,512.163
2836.84,532.321
2838.29,547.798
2839.74,539.237
2841.19,463.742
2842.64,506.667
2844.09,487.187
2845.54,499.411
2846.99,479.204
2848.44,498.807
2849.89,467.003
2851.34,450.423
2852.79,494.017
2854.24,537.454
2855.69,505.051
2857.14,487.082
2858.59,537.919
2860.04,492.076
2861.49,488.965
2862.94,455.14
2864.39,463.74
2865.84,470.245
2867.3,471.341
2868.75,458.991
2870.2,483.665
2871.65,511.175
2873.1,482.47
2874.55,536.052
2876,499.536
2877.45,446.736
2878.9,482.723
2880.35,486.959
2881.8,468.041
2883.25,509.713
2884.7,519.119
2886.15,518.219
2887.6,537.597
2889.05,513.11
2890.5,526.641
2891.95,518.23
2893.4,499.798
2894.85,516.603
2896.3,537.14
2897.75,530.098
2899.2,512.924
2900.65,516.666
2902.1,514.757
2903.55,525.075
2905,521.38
2906.45,535.859
2907.9,509.48
2909.35,490.173
2910.8,473.001
2912.26,503.289
2913.71,470.345
2915.16,472.79
2916.61,477.159
2918.06,483.471
2919.51,483.968
2920.96,472.057
2922.41,486.998
2923.86,484.561
2925.31,465.254
2926.76,413.277
2928.21,431.18
2929.66,425.585
2931.11,437.006
2932.56,419.782
2934.01,355.118
2935.46,398.563
2936.91,364.605
2938.36,345.41
2939.81,350.004
2941.26,362.388
2942.71,327.647
2944.16,344.612
2945.61,322.768
2947.06,323.945
2948.51,286.208
2949.96,262.222
2951.41,266.317
2952.86,260.74
2954.31,283.91
2955.77,256.384
2957.22,275.333
2958.67,228.299
2960.12,252.19
2961.57,209.108
2963.02,216.185
2964.47,219.637
2965.92,197.317
2967.37,161.817
2968.82,159.517
2970.27,204.406
2971.72,194.755
2973.17,175.273
2974.62,159.538
2976.07,134.84
2977.52,118.489
2978.97,107.675
2980.42,102.16
2981.87,76.7917
2983.32,86.616
2984.77,126.501
2986.22,89.4136
2987.67,60.5295
2989.12,84.738
2990.57,91.7501
2992.02,77.7505
2993.47,47.8853
2994.92,60.4863
2996.37,99.0235
2997.82,41.114
2999.27,41.335
3000.73,127.794
3002.18,93.3412
3003.63,65.2057
3005.08,94.3435
3006.53,74.7699
3007.98,40.8034
3009.43,35.8157
3010.88,42.9703
3012.33,7.26964
3013.78,28.5659
3015.23,44.7431
3016.68,19.4988
3018.13,22.307
3019.58,13.626
3021.03,17.4621
3022.48,15.4
3023.93,-8.47059
3025.38,2.76363
3026.83,44.7515
3028.28,-8.92054
3029.73,0.707196
3031.18,20.2091
3032.63,51.2715
3034.08,6.71577
3035.53,10.9118
3036.98,-19.8655
3038.43,-7.71601
3039.88,16.3488
3041.33,8.60033
3042.78,-13.2419
3044.23,2.6206
3045.69,27.19
3047.14,-24.7626
3048.59,8.94805
3050.04,18.8237
3051.49,18.6588
3052.94,-16.2418
3054.39,35.3123
3055.84,12.8305
3057.29,-3.80466
3058.74,2.29192
3060.19,19.0579
3061.64,3.28596
3063.09,21.615
3064.54,41.2278
3065.99,34.8707
3067.44,58.7509
3068.89,33.608
3070.34,70.7099
3071.79,72.8828
3073.24,70.1341
3074.69,9.73236
3076.14,51.1408
3077.59,82.3084
3079.04,67.4932
3080.49,43.4789
3081.94,75.5256
3083.39,101.062
3084.84,66.9164
3086.29,78.4604
3087.74,48.5372
3089.2,69.7223
3090.65,100.084
3092.1,74.1651
3093.55,114.831
3095,175.964
3096.45,122.694
3097.9,163.389
3099.35,170.455
3100.8,153.813
3102.25,146.575
3103.7,180.3
3105.15,224.77
3106.6,197
3108.05,211.715
3109.5,220.52
3110.95,264.152
3112.4,281.138
3113.85,263.015
3115.3,219.641
3116.75,319.879
3118.2,327.561
3119.65,310.272
3121.1,329.917
3122.55,318.817
3124,326.23
3125.45,389.001
3126.9,450.334
3128.35,412.55
3129.8,427.062
3131.25,387.139
3132.7,417.1
3134.16,469.121
3135.61,474.421
3137.06,509.125
3138.51,500.718
3139.96,427.731
3141.41,451.074
3142.86,480.32
3144.31,498.862
3145.76,482.938
3147.21,498.922
3148.66,552.768
3150.11,542.735
3151.56,521.582
3153.01,520.847
3154.46,503.411
3155.91,536.928
3157.36,513.395
3158.81,544.474
3160.26,552.468
3161.71,596.956
3163.16,565.68
3164.61,560.642
3166.06,588.042
3167.51,512.678
3168.96,603.367
3170.41,597.861
3171.86,589.287
3173.31,551.241
3174.76,568.219
3176.21,599.469
3177.67,615.947
3179.12,625.117
3180.57,675.8
3182.02,697.108
3183.47,675.07
3184.92,691.554
3186.37,706.197
3187.82,724.341
3189.27,707.313
3190.72,772.257
3192.17,762.698
3193.62,820.947
3195.07,862.039
3196.52,866.842
3197.97,865.049
3199.42,889.816
3200.87,907.618
3202.32,936.31
3203.77,926.572
3205.22,919.449
3206.67,901.928
3208.12,912.609
3209.57,911.393
3211.02,909.924
3212.47,833.305
3213.92,848.369
3215.37,819.232
3216.82,846.026
3218.27,801.833
3219.72,849.661
3221.17,794.101
3222.63,734.698
3224.08,701.762
3225.53,658.262
3226.98,600.175
3228.43,596.762
3229.88,562.864
3231.33,521.446
3232.78,466.927
3234.23,456.107
3235.68,423.848
3237.13,392.842
3238.58,346.981
3240.03,320.428
3241.48,272.961
3242.93,273.364
3244.38,219.471
3245.83,192.538
3247.28,169.781
3248.73,204.964
3250.18,158.433
3251.63,159.778
3253.08,154.017
3254.53,80.0016
3255.98,99.4931
3257.43,38.6941
3258.88,66.647
3260.33,77.7129
3261.78,77.5236
3263.23,59.8671
3264.68,25.9283
3266.13,54.3292
3267.59,-6.62757
3269.04,26.895
3270.49,33.7241
3271.94,13.211
3273.39,-29.6931
3274.84,2.07854
3276.29,-19.5345
3277.74,-30.8878
3279.19,-5.72751
3280.64,-11.3538
3282.09,3.67272
3283.54,2.71204
3284.99,-21.5587
3286.44,9.90316
3287.89,21.0907
3289.34,-21.0579
3290.79,-20.7094
3292.24,-1.2973
3293.69,-13.9798
3295.14,-59.294
3296.59,12.1505
3298.04,-3.88604
3299.49,26.3143
3300.94,15.2792
3302.39,-3.93723
3303.84,-15.9408
3305.29,-15.0554
3306.74,-42.1474
3308.19,-26.4735
3309.64,-16.3505
3311.09,-43.5416
3312.55,-58.4269
3314,-37.9606
3315.45,-65.0993
3316.9,-43.8998
3318.35,-32.9938
3319.8,-9.34032
3321.25,-56.6263
3322.7,-37.8678
3324.15,-23.1481
3325.6,-42.0669
3327.05,-69.7218
3328.5,-63.292
3329.95,-35.0613
3331.4,-30.9527
3332.85,-50.1286
3334.3,-37.24
3335.75,-38.5403
3337.2,-5.37778
3338.65,-45.0357
3340.1,-42.2904
3341.55,-20.0058
3343,-23.0244
3344.45,-31.6995
3345.9,-43.4425
3347.35,-63.6005
3348.8,-51.2033
3350.25,-11.9414
3351.7,-24.4909
3353.15,-43.6585
3354.6,-53.0924
3356.06,-25.3595
3357.51,-23.9302
3358.96,-35.3649
3360.41,-13.0833
3361.86,13.4823
3363.31,-17.0847
3364.76,-10.6363
3366.21,-52.7875
3367.66,-7.90119
3369.11,-0.202828
3370.56,-9.67904
3372.01,3.11046
3373.46,-28.905
3374.91,-6.49032
3376.36,-12.0313
3377.81,-34.4277
3379.26,-9.81551
3380.71,19.9834
3382.16,-26.0553
3383.61,-14.0545
3385.06,-35.8133
3386.51,-34.1134
3387.96,-27.6722
3389.41,-74.5267
3390.86,-9.84375
3392.31,12.0355
3393.76,-7.68513
3395.21,-17.9715
3396.66,-54.159
3398.11,-26.4024
3399.56,-8.29657
3401.02,-1.59501
3402.47,6.30221
3403.92,7.8057
3405.37,-16.012
3406.82,-32.3124
3408.27,-44.3161
3409.72,-41.3313
3411.17,-20.4833
3412.62,-18.0574
3414.07,1.75203
3415.52,-24.7193
3416.97,41.3159
3418.42,14.3934
3419.87,6.14444
3421.32,51.664
3422.77,-22.5908
3424.22,-39.4291
3425.67,-3.96615
3427.12,-6.49485
3428.57,-23.4295
3430.02,14.0038
3431.47,38.2433
3432.92,8.19622
3434.37,-3.97575
3435.82,-29.5862
3437.27,9.36087
3438.72,-16.0656
3440.17,10.3768
3441.62,19.5377
3443.07,-14.759
3444.52,-11.7958
3445.98,-12.4907
3447.43,6.60365
3448.88,1.78806
3450.33,8.71996
3451.78,-6.65832
3453.23,-8.80871
3454.68,53.6431
3456.13,12.8254
3457.58,7.97584
3459.03,5.85809
3460.48,14.2776
3461.93,-15.2484
3463.38,-49.7999
3464.83,-26.9842
3466.28,-13.1746
3467.73,12.2016
3469.18,6.27578
3470.63,-13.9432
3472.08,-11.5875
3473.53,-15.9245
3474.98,-16.7945
3476.43,6.16423
3477.88,45.451
3479.33,29.2996
3480.78,-21.1996
3482.23,-27.2739
3483.68,-26.5028
3485.13,36.1721
3486.58,17.6798
3488.03,-9.59477
3489.49,-13.0882
3490.94,-25.5575
3492.39,-11.3309
3493.84,10.054
3495.29,3.02535
3496.74,27.2799
3498.19,22.4576
3499.64,-15.5473
3501.09,-31.3054
3502.54,-36.8451
3503.99,-15.4537
3505.44,11.7159
3506.89,-26.3553
3508.34,2.51862
3509.79,-11.0784
3511.24,16.4669
3512.69,43.5327
3514.14,18.9121
3515.59,-26.7374
3517.04,-5.16397
3518.49,-26.2492
3519.94,-58.799
3521.39,-40.3728
3522.84,-11.6786
3524.29,-6.12655
3525.74,-7.39311
3527.19,-14.9961
3528.64,-33.209
3530.09,-15.0078
3531.54,-19.4303
3532.99,-24.7576
3534.45,7.32685
3535.9,-11.1797
3537.35,54.8773
3538.8,-15.6504
3540.25,-18.8931
3541.7,-17.0219
3543.15,-22.5202
3544.6,-25.31
3546.05,-8.72046
3547.5,-22.6341
3548.95,-13.014
3550.4,-31.6906
3551.85,-12.8536
3553.3,-17.6981
3554.75,-46.5194
3556.2,5.45852
3557.65,-40.6714
3559.1,-40.0378
3560.55,-2.85047
3562,-14.3202
3563.45,24.1274
3564.9,10.8045
3566.35,-32.1019
3567.8,-17.4307
3569.25,27.1359
3570.7,-13.2783
3572.15,-41.1755
3573.6,-66.6389
3575.05,-18.8278
3576.5,4.62017
3577.96,10.8761
3579.41,-3.23874
3580.86,-41.2749
3582.31,-26.5347
3583.76,-40.2598
3585.21,-24.7389
3586.66,0.426058
3588.11,16.1426
3589.56,-36.2707
3591.01,-44.8592
3592.46,-39.1409
3593.91,-45.2729
3595.36,-72.2526
3596.81,-72.3337
3598.26,-23.9861
3599.71,-50.6269
3601.16,-32.6207
3602.61,-19.6445
3604.06,-24.84
3605.51,-24.1678
3606.96,-37.314
3608.41,-11.6403
3609.86,-51.8572
3611.31,-31.9704
3612.76,-18.8386
3614.21,-31.5287
3615.66,-11.9347
3617.11,-31.5494
3618.56,-29.1061
3620.01,-18.472
3621.46,-7.49346
3622.92,-19.7775
3624.37,-1.79695
3625.82,29.7959
3627.27,-41.1768
3628.72,-12.3358
3630.17,-2.97007
3631.62,0.961035
3633.07,-31.6684
3634.52,-38.5128
3635.97,-39.911
3637.42,-15.5519
3638.87,-18.9774
3640.32,-3.29543
3641.77,-8.81647
3643.22,-2.43495
3644.67,-30.6366
3646.12,-18.1215
3647.57,-15.9351
3649.02,-29.906
3650.47,-26.5786
3651.92,-28.6859
3653.37,9.43872
3654.82,-35.5218
3656.27,-13.1992
3657.72,-13.1126
3659.17,2.99585
3660.62,-37.5519
3662.07,3.4958
3663.52,-2.44074
3664.97,-19.6907
3666.43,-32.7522
3667.88,-16.1336
3669.33,-25.8442
3670.78,-2.78358
3672.23,-20.3739
3673.68,7.36552
3675.13,10.1268
3676.58,-23.3619
3678.03,-29.1377
3679.48,-22.07
3680.93,-6.08874
3682.38,6.9351
3683.83,17.2477
3685.28,-5.89475
3686.73,-8.28023
3688.18,-46.14
3689.63,-36.5473
3691.08,-22.4056
3692.53,-39.9403
3693.98,7.35088
3695.43,-30.3727
3696.88,-4.94307
3698.33,-8.46965
3699.78,5.90814
3701.23,-35.3628
3702.68,45.0844
3704.13,-6.69778
3705.58,-9.06883
3707.03,-40.3395
3708.48,-6.88521
3709.93,-6.38108
3711.39,-13.6749
3712.84,-29.4805
3714.29,6.94634
3715.74,-23.6484
3717.19,4.94707
3718.64,-18.208
3720.09,-14.7171
3721.54,-3.8072
3722.99,-38.5147
3724.44,-53.1484
3725.89,-18.0888
3727.34,13.2788
3728.79,-6.31375
3730.24,-8.70482
3731.69,1.48239
3733.14,-38.1714
3734.59,-30.202
3736.04,-3.23035
3737.49,11.2817
3738.94,-23.2856
3740.39,-15.3227
3741.84,17.0629
3743.29,9.18208
3744.74,-8.31888
3746.19,-21.6105
3747.64,19.4498
3749.09,10.6673
3750.54,2.38424
3751.99,-6.52084
3753.44,7.84058
3754.89,2.34977
3756.35,-12.8514
3757.8,12.5536
3759.25,-8.05682
3760.7,7.85577
3762.15,49.3316
3763.6,4.14657
3765.05,13.7991
3766.5,-7.75021
3767.95,25.6915
3769.4,-5.34096
3770.85,0.406818
3772.3,43.4255
3773.75,7.54097
3775.2,-3.01123
3776.65,-0.457488
3778.1,25.3627
3779.55,-8.24705
3781,-6.59622
3782.45,-9.40295
3783.9,11.8261
3785.35,24.1972
3786.8,14.4847
3788.25,20.5503
3789.7,-10.3219
3791.15,16.8702
3792.6,-39.5812
3794.05,33.5434
3795.5,29.7572
3796.95,15.9506
3798.4,6.8246
3799.85,8.65415
3801.31,37.5969
3802.76,14.4315
3804.21,-19.4068
3805.66,39.0549
3807.11,10.4606
3808.56,1.47583
3810.01,19.5708
3811.46,18.4776
3812.91,-2.44358
3814.36,1.98858
3815.81,45.6018
3817.26,40.4781
3818.71,22.2095
3820.16,15.563
3821.61,19.371
3823.06,26.5546
3824.51,32.9067
3825.96,38.4522
3827.41,20.4733
3828.86,61.6099
3830.31,20.5974
3831.76,12.2422
3833.21,46.6966
3834.66,22.6791
3836.11,15.9744
3837.56,-31.597
3839.01,43.5986
3840.46,5.39331
3841.91,22.78
3843.36,-5.4279
3844.82,0.315559
3846.27,47.4884
3847.72,72.0592
3849.17,54.5559
3850.62,32.2041
3852.07,33.0228
3853.52,40.7221
3854.97,20.8399
3856.42,48.504
3857.87,9.71026
3859.32,21.7697
3860.77,38.4679
3862.22,3.94931
3863.67,24.72
3865.12,26.1242
3866.57,31.2701
3868.02,6.83315
3869.47,65.8103
3870.92,15.7201
3872.37,68.9339
3873.82,-9.93069
3875.27,21.9374
3876.72,26.1052
3878.17,60.6319
3879.62,19.9302
3881.07,64.9045
3882.52,73.3121
3883.97,59.8823
3885.42,22.2605
3886.87,31.1284
3888.32,55.9462
3889.78,34.706
3891.23,76.1474
3892.68,61.0001
3894.13,93.7737
3895.58,116.168
3897.03,62.0092
3898.48,69.2046
3899.93,91.3106
3901.38,70.5771
3902.83,59.8221
3904.28,88.6728
3905.73,52.9886
3907.18,54.8373
3908.63,64.544
3910.08,61.9247
3911.53,36.6171
3912.98,130.047
3914.43,100.989
3915.88,105.857
3917.33,95.7801
3918.78,87.0613
3920.23,109.281
3921.68,102.974
3923.13,111.048
3924.58,73.2674
3926.03,78.4317
3927.48,106.494
3928.93,114.69
3930.38,117.217
3931.83,135.443
3933.28,92.3291
3934.74,56.1248
3936.19,108.633
3937.64,173.742
3939.09,141.331
3940.54,125.08
3941.99,114.461
3943.44,129.883
3944.89,121.102
3946.34,129.738
3947.79,114.624
3949.24,115.289
3950.69,147.077
3952.14,131.239
3953.59,139.618
3955.04,160.539
3956.49,125.778
3957.94,132.915
3959.39,127.394
3960.84,140.352
3962.29,113.876
3963.74,153.625
3965.19,157.111
3966.64,183.874
3968.09,172.942
3969.54,166.189
3970.99,146.391
3972.44,187.248
3973.89,167.254
3975.34,161.111
3976.79,146.705
3978.25,182.833
3979.7,196.803
3981.15,169.883
3982.6,163.664
3984.05,193.47
3985.5,209.765
3986.95,181.944
3988.4,198.526
3989.85,207.81
3991.3,206.165
3992.75,215.029
3994.2,224.089
3995.65,181.971
3997.1,207.141
3998.55,201.162
4000,210.558
