0,113.882
1.45033,111.269
2.90065,108.655
4.35098,106.041
5.80131,103.427
7.25163,100.813
8.70196,209.693
10.1523,131.598
11.6026,110.661
13.0529,90.7997
14.5033,79.066
15.9536,75.5923
17.4039,75.6977
18.8542,69.8702
20.3046,60.094
21.7549,54.5471
23.2052,54.8005
24.6555,38.5803
26.1059,45.1171
27.5562,40.8117
29.0065,30.2911
30.4569,29.6447
31.9072,26.35
33.3575,24.5887
34.8078,17.8507
36.2582,5.9638
37.7085,-2.10015
39.1588,8.69326
40.6091,15.7781
42.0595,15.6653
43.5098,7.94692
44.9601,-2.84851
46.4104,6.00131
47.8608,7.84146
49.3111,10.582
50.7614,40.046
52.2117,81.1021
53.6621,174.219
55.1124,314.714
56.5627,499.97
58.0131,735.632
59.4634,996.124
60.9137,1175.92
62.364,1368.82
63.8144,1646.33
65.2647,1698.38
66.715,1767.23
68.1653,1822.96
69.6157,1877.44
71.066,1964.81
72.5163,2003.91
73.9666,2020.9
75.417,2019.44
76.8673,2020.21
78.3176,2080.55
79.7679,2122.55
81.2183,2120.96
82.6686,2133.22
84.1189,2197.8
85.5693,2221.2
87.0196,2284.63
88.4699,2228.9
89.9202,2117.59
91.3706,2084.84
92.8209,1991.08
94.2712,1898.9
95.7215,1837.77
97.1719,1783.35
98.6222,1655.94
100.073,1666.56
101.523,1629.8
102.973,1595.7
104.423,1591.57
105.874,1583.46
107.324,1574.74
108.774,1543.95
110.225,1520.41
111.675,1518.17
113.125,1424.9
114.576,1447.15
116.026,1443.13
117.476,1411.51
118.927,1395.2
120.377,1392.58
121.827,1370.46
123.278,1343.82
124.728,1308.33
126.178,1245.89
127.629,1214.29
129.079,1176.22
130.529,1148.06
131.98,1141.38
133.43,1163.54
134.88,1108.14
136.331,1079.97
137.781,1055.55
139.231,1031.05
140.682,1082.16
142.132,1089.22
143.582,1063.22
145.033,1013.73
146.483,959.845
147.933,965.503
149.384,967.609
150.834,974.088
152.284,1006.57
153.735,1076.72
155.185,1070.66
156.635,1000.04
158.086,934.646
159.536,881.224
160.986,824.354
162.437,846.595
163.887,849.831
165.337,827.058
166.788,797.959
168.238,801.959
169.688,834.628
171.139,838.469
172.589,823.408
174.039,788.23
175.489,720.551
176.94,739.007
178.39,721.096
179.84,701.914
181.291,705.372
182.741,740.123
184.191,706.092
185.642,710.853
187.092,703.801
188.542,673.632
189.993,688.352
191.443,646.678
192.893,658.394
194.344,671.268
195.794,645.472
197.244,584.646
198.695,654.887
200.145,649.156
201.595,630.008
203.046,634.029
204.496,573.854
205.946,593.537
207.397,609.39
208.847,612.428
210.297,602.64
211.748,581.289
213.198,545.926
214.648,568.321
216.099,599.06
217.549,596.509
218.999,580.003
220.45,526.678
221.9,537.564
223.35,579.193
224.801,600.857
226.251,547.498
227.701,564.678
229.152,578.789
230.602,578.425
232.052,561.282
233.503,527.324
234.953,554.897
236.403,549.878
237.854,538.499
239.304,542.68
240.754,542.854
242.204,524.874
243.655,535.541
245.105,544.898
246.555,535.009
248.006,526.82
249.456,515.993
250.906,483.575
252.357,466.207
253.807,479.245
255.257,496.182
256.708,472.147
258.158,463.023
259.608,469.968
261.059,474.076
262.509,432.336
263.959,479.95
265.41,470.639
266.86,464.007
268.31,459.377
269.761,392.33
271.211,456.857
272.661,440.407
274.112,405.556
275.562,384.854
277.012,385.598
278.463,382.984
279.913,390.982
281.363,395.434
282.814,392.49
284.264,387.11
285.714,417.418
287.165,392.88
288.615,382.664
290.065,377.517
291.516,351.181
292.966,336.649
294.416,319.671
295.867,350.677
297.317,355.143
298.767,293.259
300.218,329.185
301.668,311.255
303.118,320.561
304.569,323.487
306.019,302.626
307.469,298.608
308.919,282.423
310.37,266.283
311.82,251.698
313.27,244.686
314.721,256.098
316.171,265.431
317.621,250.203
319.072,253.74
320.522,258.484
321.972,217.528
323.423,200.145
324.873,212.066
326.323,223.544
327.774,217.763
329.224,193.511
330.674,199.344
332.125,199.524
333.575,211.533
335.025,208.844
336.476,190.215
337.926,226.344
339.376,207.212
340.827,184.044
342.277,173.418
343.727,182.975
345.178,209.106
346.628,145.855
348.078,154.684
349.529,161.848
350.979,153.116
352.429,144.722
353.88,135.052
355.33,128.434
356.78,106.622
358.231,101.679
359.681,129.347
361.131,129.558
362.582,138.42
364.032,136.751
365.482,142.523
366.933,150.237
368.383,126.179
369.833,122.149
371.284,111.94
372.734,117.738
374.184,123.461
375.635,105.526
377.085,112.816
378.535,105.785
379.986,106.031
381.436,91.0847
382.886,60.662
384.336,78.579
385.787,35.3701
387.237,54.4964
388.687,76.4008
390.138,73.3828
391.588,58.7639
393.038,117.802
394.489,58.1469
395.939,49.5817
397.389,74.3922
398.84,71.9473
400.29,40.9653
401.74,55.8119
403.191,78.8192
404.641,72.4291
406.091,41.3004
407.542,33.4393
408.992,18.7576
410.442,21.4388
411.893,39.8361
413.343,45.6419
414.793,19.146
416.244,10.8488
417.694,21.5662
419.144,6.99509
420.595,-18.7481
422.045,-30.6245
423.495,-3.83839
424.946,9.90327
426.396,5.73381
427.846,-8.46897
429.297,-12.0073
430.747,5.82415
432.197,-6.6251
433.648,-15.754
435.098,-20.0906
436.548,-24.6539
437.999,-18.159
439.449,19.9699
440.899,-23.8202
442.35,11.055
443.8,26.746
445.25,15.8018
446.701,-0.410574
448.151,-10.7409
449.601,-24.4683
451.051,15.8324
452.502,2.73885
453.952,-38.0864
455.402,7.50115
456.853,1.44697
458.303,37.5059
459.753,18.2297
461.204,3.57354
462.654,23.1591
464.104,-11.4012
465.555,3.25996
467.005,-3.41178
468.455,-9.78791
469.906,-3.44886
471.356,17.0612
472.806,33.8967
474.257,-21.3292
475.707,-13.4528
477.157,6.40206
478.608,8.63508
480.058,7.81303
481.508,0.317982
482.959,3.81284
484.409,-1.79491
485.859,-4.12695
487.31,13.4871
488.76,57.3805
490.21,-23.1747
491.661,10.9701
493.111,25.4348
494.561,6.26699
496.012,0.245374
497.462,34.3075
498.912,0.908682
500.363,-20.5183
501.813,-13.9503
503.263,2.80418
504.714,-2.79179
506.164,-3.85111
507.614,-41.2187
509.065,-13.6617
510.515,20.5153
511.965,18.9322
513.416,2.80146
514.866,15.3991
516.316,-14.8443
517.766,-12.9532
519.217,0.15389
520.667,8.30565
522.117,60.6429
523.568,1.28813
525.018,-15.5942
526.468,12.2683
527.919,18.3433
529.369,-30.1664
530.819,9.8202
532.27,18.4055
533.72,3.50382
535.17,0.73778
536.621,2.79541
538.071,-6.98914
539.521,30.1089
540.972,5.78737
542.422,5.81094
543.872,18.5635
545.323,22.4521
546.773,7.6463
548.223,25.3398
549.674,22.631
551.124,-10.1578
552.574,-28.3255
554.025,-14.4404
555.475,11.6399
556.925,14.9047
558.376,12.3634
559.826,-7.82978
561.276,-7.79683
562.727,15.7116
564.177,22.6836
565.627,6.23435
567.078,31.8123
568.528,29.8654
569.978,13.469
571.429,11.1407
572.879,37.0916
574.329,4.11169
575.78,11.599
577.23,6.42747
578.68,-2.61524
580.131,-5.53493
581.581,-6.25861
583.031,7.81182
584.482,1.03709
585.932,-5.38714
587.382,-4.31829
588.832,11.397
590.283,40.429
591.733,-31.0401
593.183,-23.6287
594.634,-10.114
596.084,-5.20689
597.534,-11.3915
598.985,-23.6411
600.435,15.8589
601.885,6.35048
603.336,-22.361
604.786,-22.0734
606.236,0.840127
607.687,-7.94473
609.137,-26.5221
610.587,-45.1018
612.038,-18.3244
613.488,1.66154
614.938,0.616804
616.389,9.85582
617.839,46.523
619.289,-8.56734
620.74,-18.5601
622.19,-10.3028
623.64,0.538429
625.091,12.5659
626.541,-3.88114
627.991,-19.6162
629.442,8.60515
630.892,-5.63868
632.342,-27.2568
633.793,2.5791
635.243,5.07655
636.693,-3.98135
638.144,-2.08326
639.594,-1.81941
641.044,-1.39363
642.495,0.518944
643.945,-6.29699
645.395,13.7079
646.846,17.1559
648.296,37.8744
649.746,21.2384
651.197,-23.062
652.647,8.56424
654.097,5.22768
655.547,-5.89484
656.998,8.55246
658.448,0.912321
659.898,-19.5177
661.349,-0.470712
662.799,7.15076
664.249,23.7425
665.7,-18.1349
667.15,-33.731
668.6,-31.5103
670.051,-43.9621
671.501,1.69936
672.951,24.6928
674.402,56.0347
675.852,70.9272
677.302,44.5558
678.753,10.2164
680.203,61.1176
681.653,51.9038
683.104,-0.573805
684.554,-9.95499
686.004,-0.524189
687.455,5.67879
688.905,7.54314
690.355,-8.26505
691.806,-9.40054
693.256,-15.4582
694.706,-12.4879
696.157,-2.48351
697.607,12.9786
699.057,49.605
700.508,30.0883
701.958,33.0168
703.408,16.4893
704.859,4.10383
706.309,3.77121
707.759,-7.1158
709.21,-8.26672
710.66,24.8584
712.11,15.2302
713.561,-7.51763
715.011,-7.89224
716.461,13.801
717.912,-7.16762
719.362,-8.0645
720.812,-4.61327
722.263,-4.75237
723.713,1.05511
725.163,11.1629
726.613,9.01605
728.064,-7.33689
729.514,18.6441
730.964,5.62867
732.415,9.7632
733.865,28.5522
735.315,29.58
736.766,6.0874
738.216,17.7315
739.666,-25.6916
741.117,-23.5412
742.567,-20.9361
744.017,-26.4801
745.468,-9.60422
746.918,-28.2229
748.368,-9.23892
749.819,-13.1523
751.269,7.58968
752.719,25.6717
754.17,12.8988
755.62,-14.5094
757.07,-47.9324
758.521,-1.05776
759.971,21.9186
761.421,15.378
762.872,12.3115
764.322,21.1646
765.772,-21.7084
767.223,3.29769
768.673,7.68846
770.123,-7.97156
771.574,-29.1507
773.024,-28.2144
774.474,1.8526
775.925,-10.901
777.375,-33.2844
778.825,-20.7104
780.276,-46.9457
781.726,-41.0908
783.176,-4.10453
784.627,-26.2496
786.077,-4.89835
787.527,-0.0180292
788.978,2.50771
790.428,-11.568
791.878,-0.0165585
793.328,29.407
794.779,-9.86948
796.229,-77.5878
797.68,-20.5779
799.13,-8.97473
800.58,-48.654
802.03,-58.231
803.481,-18.6279
804.931,-41.8624
806.381,-42.7595
807.832,-5.34853
809.282,-19.3573
810.732,-28.523
812.183,-27.6959
813.633,-20.9103
815.083,27.8675
816.534,21.0175
817.984,25.671
819.434,-3.86599
820.885,-18.7623
822.335,-12.1849
823.785,-13.0794
825.236,-40.6539
826.686,-19.9463
828.136,-19.5244
829.587,19.7252
831.037,34.6283
832.487,19.2254
833.938,9.19582
835.388,21.4248
836.838,4.11944
838.289,44.0796
839.739,-15.6319
841.189,-15.034
842.64,18.3626
844.09,-4.16567
845.54,-35.8077
846.991,56.6287
848.441,14.6145
849.891,10.154
851.342,-1.9974
852.792,-3.50622
854.242,17.2363
855.693,14.7379
857.143,46.7316
858.593,15.4684
860.044,30.4939
861.494,25.4521
862.944,28.8272
864.394,36.6151
865.845,-9.61975
867.295,4.4504
868.745,-12.33
870.196,13.9177
871.646,1.26109
873.096,-7.85133
874.547,11.4739
875.997,12.0143
877.447,-69.7997
878.898,-9.25174
880.348,6.79242
881.798,-38.1024
883.249,-66.9923
884.699,-42.0387
886.149,-3.45491
887.6,-32.0636
889.05,-18.6905
890.5,-12.8453
891.951,7.50821
893.401,-9.07302
894.851,-32.6055
896.302,-23.1807
897.752,-7.11517
899.202,-35.8001
900.653,-4.18305
902.103,-5.86238
903.553,-31.0255
905.004,-38.3857
906.454,-11.9795
907.904,21.0428
909.355,18.4982
910.805,11.5783
912.255,20.5076
913.706,19.6901
915.156,19.8325
916.606,7.07486
918.057,-7.11284
919.507,33.1043
920.957,-19.045
922.408,-18.1
923.858,37.2741
925.308,59.988
926.759,29.0366
928.209,-6.36073
929.659,13.9807
931.109,61.9949
932.56,43.7393
934.01,31.4895
935.46,9.55013
936.911,20.4621
938.361,41.9153
939.811,16.5876
941.262,-52.0703
942.712,39.1069
944.162,0.13388
945.613,-46.0264
947.063,-40.0968
948.513,-11.6672
949.964,-12.9271
951.414,-36.6485
952.864,11.6267
954.315,-14.2072
955.765,22.9604
957.215,5.23157
958.666,11.1561
960.116,15.8782
961.566,-0.445513
963.017,-1.53285
964.467,7.83448
965.917,50.118
967.368,27.8355
968.818,-2.02876
970.268,-17.3299
971.719,-29.8837
973.169,-36.4577
974.619,-9.14851
976.07,14.7103
977.52,1.6914
978.97,12.8104
980.421,35.987
981.871,49.4301
983.321,28.961
984.772,-6.73312
986.222,-3.74368
987.672,-44.1272
989.123,28.2131
990.573,-4.79422
992.023,-5.68759
993.474,8.24493
994.924,23.0487
996.374,51.1284
997.825,75.9159
999.275,5.06553
1000.73,29.9293
1002.18,14.887
1003.63,10.5006
1005.08,8.25299
1006.53,24.8407
1007.98,60.0777
1009.43,53.3139
1010.88,32.6218
1012.33,52.5364
1013.78,69.0969
1015.23,51.6303
1016.68,66.2864
1018.13,95.4447
1019.58,97.7981
1021.03,93.6217
1022.48,24.4727
1023.93,67.8008
1025.38,73.5955
1026.83,95.0057
1028.28,87.5982
1029.73,55.2725
1031.18,66.4192
1032.63,149.619
1034.08,118.911
1035.53,61.5163
1036.98,106.86
1038.43,101.494
1039.88,113.004
1041.33,120.256
1042.78,113.346
1044.23,138.602
1045.69,159.082
1047.14,61.8552
1048.59,126.795
1050.04,193.579
1051.49,136.975
1052.94,121.658
1054.39,169.092
1055.84,180.075
1057.29,221.923
1058.74,139.119
1060.19,133.567
1061.64,194.945
1063.09,192.743
1064.54,196.711
1065.99,215.819
1067.44,201.397
1068.89,172.12
1070.34,262.023
1071.79,230.461
1073.24,268.373
1074.69,257.75
1076.14,241.583
1077.59,240.449
1079.04,255.775
1080.49,275.45
1081.94,264.151
1083.39,218.734
1084.84,306.35
1086.29,320.062
1087.74,338.104
1089.2,279.2
1090.65,243.517
1092.1,288.765
1093.55,286.062
1095,248.5
1096.45,282.965
1097.9,313.849
1099.35,300.013
1100.8,312.037
1102.25,321.418
1103.7,284.191
1105.15,247.842
1106.6,299.219
1108.05,256.883
1109.5,272.173
1110.95,273.575
1112.4,241.327
1113.85,238.819
1115.3,247.2
1116.75,253.338
1118.2,269.288
1119.65,276.745
1121.1,273.69
1122.55,288.213
1124,291.182
1125.45,252.934
1126.9,219.385
1128.35,213.987
1129.8,213.073
1131.25,201.483
1132.7,215.93
1134.16,187.218
1135.61,162.383
1137.06,172.794
1138.51,203.256
1139.96,198.824
1141.41,210.299
1142.86,238.632
1144.31,219.644
1145.76,176.564
1147.21,200.292
1148.66,134.363
1150.11,210.575
1151.56,229.17
1153.01,233.842
1154.46,230.917
1155.91,207.156
1157.36,180.734
1158.81,176.505
1160.26,141.549
1161.71,249.195
1163.16,200.823
1164.61,173.84
1166.06,198.162
1167.51,207.712
1168.96,194.84
1170.41,198.241
1171.86,206.514
1173.31,169.121
1174.76,206.228
1176.21,200.701
1177.66,178.007
1179.12,222.803
1180.57,210.222
1182.02,183.695
1183.47,215.037
1184.92,247.631
1186.37,244.632
1187.82,237.514
1189.27,231.955
1190.72,223.649
1192.17,219.73
1193.62,220.299
1195.07,217.152
1196.52,224.703
1197.97,224.787
1199.42,178.576
1200.87,234.137
1202.32,238.693
1203.77,219.595
1205.22,236.214
1206.67,203.805
1208.12,213.895
1209.57,274.389
1211.02,275.479
1212.47,203.692
1213.92,244.457
1215.37,258.98
1216.82,267.446
1218.27,215.183
1219.72,298.161
1221.17,348.154
1222.63,301.178
1224.08,250.062
1225.53,260.497
1226.98,280.521
1228.43,281.546
1229.88,312.039
1231.33,289.259
1232.78,304.449
1234.23,309.103
1235.68,330.377
1237.13,282.08
1238.58,258.65
1240.03,315.793
1241.48,318.759
1242.93,293.327
1244.38,288.658
1245.83,296.371
1247.28,328.783
1248.73,359.568
1250.18,390.818
1251.63,382.466
1253.08,361.747
1254.53,372.456
1255.98,404.447
1257.43,433.347
1258.88,413.028
1260.33,398.802
1261.78,430.039
1263.23,455.029
1264.68,461.087
1266.13,440.525
1267.59,444.689
1269.04,483.131
1270.49,515.66
1271.94,550.031
1273.39,555.141
1274.84,532.225
1276.29,543.907
1277.74,555.148
1279.19,604.66
1280.64,605.657
1282.09,638.405
1283.54,708.629
1284.99,740.064
1286.44,758.21
1287.89,804.469
1289.34,801.893
1290.79,867.877
1292.24,839.094
1293.69,895.029
1295.14,948.66
1296.59,945.181
1298.04,981.631
1299.49,1097.9
1300.94,1174.2
1302.39,1164.26
1303.84,1313.79
1305.29,1336.54
1306.74,1416.34
1308.19,1525.86
1309.64,1593.5
1311.09,1631.89
1312.55,1705.42
1314,1861.25
1315.45,2041.9
1316.9,2150.62
1318.35,2219.13
1319.8,2328.75
1321.25,2361.02
1322.7,2695.49
1324.15,2745.51
1325.6,2906.34
1327.05,3049.14
1328.5,3168.28
1329.95,3270.78
1331.4,3377.65
1332.85,3492.56
1334.3,3517.62
1335.75,3648.55
1337.2,3623.14
1338.65,3548.06
1340.1,3550.11
1341.55,3431.86
1343,3454.38
1344.45,3409.73
1345.9,3253.3
1347.35,3171.98
1348.8,3163.26
1350.25,3009.29
1351.7,2803.26
1353.15,2657.47
1354.6,2465.55
1356.06,2409.85
1357.51,2243.44
1358.96,2079.57
1360.41,1976.98
1361.86,1894.1
1363.31,1797.12
1364.76,1648.8
1366.21,1478.31
1367.66,1475.54
1369.11,1395.19
1370.56,1384.75
1372.01,1232.41
1373.46,1208.18
1374.91,1121.53
1376.36,1048.71
1377.81,1027.83
1379.26,1001.16
1380.71,942.39
1382.16,918.556
1383.61,948.156
1385.06,886.698
1386.51,869.948
1387.96,854.732
1389.41,807.555
1390.86,812.54
1392.31,782.266
1393.76,777.723
1395.21,755.795
1396.66,737.064
1398.11,725.702
1399.56,685.498
1401.02,661.568
1402.47,691.556
1403.92,710.221
1405.37,722.094
1406.82,677.758
1408.27,671.213
1409.72,668.429
1411.17,651.728
1412.62,593.603
1414.07,597.301
1415.52,647.613
1416.97,655.089
1418.42,662.875
1419.87,688.953
1421.32,700.186
1422.77,645.715
1424.22,607.221
1425.67,638.207
1427.12,630.658
1428.57,643.435
1430.02,629.831
1431.47,655.284
1432.92,684.518
1434.37,703.096
1435.82,734.287
1437.27,702.001
1438.72,697.799
1440.17,576.36
1441.62,698.094
1443.07,714.173
1444.53,704.813
1445.98,699.172
1447.43,763.699
1448.88,816.151
1450.33,786.833
1451.78,769.639
1453.23,792.641
1454.68,783.663
1456.13,808.869
1457.58,870.789
1459.03,825.445
1460.48,846.233
1461.93,897.834
1463.38,840.578
1464.83,869.583
1466.28,917.753
1467.73,903.201
1469.18,894.994
1470.63,922.592
1472.08,938.472
1473.53,966.167
1474.98,1043.78
1476.43,1046.39
1477.88,1070.62
1479.33,1174.4
1480.78,1061.46
1482.23,1187.1
1483.68,1226
1485.13,1240.27
1486.58,1249.44
1488.03,1211.02
1489.49,1253.02
1490.94,1352.12
1492.39,1405.44
1493.84,1436.71
1495.29,1476.91
1496.74,1575.73
1498.19,1572.05
1499.64,1660.62
1501.09,1624.21
1502.54,1706.57
1503.99,1783.98
1505.44,1882.29
1506.89,1926.39
1508.34,2015.44
1509.79,2131.54
1511.24,2249.56
1512.69,2362.7
1514.14,2453.35
1515.59,2579.69
1517.04,2756.37
1518.49,2902.79
1519.94,3179.71
1521.39,3188.53
1522.84,3449.18
1524.29,3608.12
1525.74,3947.77
1527.19,4247.24
1528.64,4546.75
1530.09,4953.55
1531.54,5372.89
1532.99,5760.47
1534.45,6287.81
1535.9,6875.28
1537.35,7282.5
1538.8,8159.04
1540.25,9002.98
1541.7,9631.26
1543.15,10609.5
1544.6,11524.6
1546.05,12622.3
1547.5,13614.5
1548.95,14781.7
1550.4,16009.2
1551.85,17112.1
1553.3,18367.2
1554.75,19772.5
1556.2,21074
1557.65,22345
1559.1,23631
1560.55,24835.6
1562,26078.3
1563.45,26892.1
1564.9,27765.9
1566.35,28207.5
1567.8,30404.6
1569.25,28201.5
1570.7,27922.7
1572.15,27162.8
1573.6,26280.1
1575.05,25094.6
1576.5,23531.9
1577.96,21950.7
1579.41,20465.3
1580.86,18927
1582.31,17488.2
1583.76,16001.5
1585.21,14615.8
1586.66,13346.8
1588.11,12215.1
1589.56,11252.7
1591.01,10213.2
1592.46,9415.31
1593.91,8756.49
1595.36,8172.7
1596.81,7588.99
1598.26,7120
1599.71,6680.95
1601.16,6292.75
1602.61,5939.12
1604.06,5582.86
1605.51,5319.44
1606.96,5078.99
1608.41,4816.01
1609.86,4546.85
1611.31,4311.44
1612.76,4026.39
1614.21,3718.9
1615.66,3578.44
1617.11,3262.35
1618.56,3039.88
1620.01,2871.24
1621.46,2668.65
1622.92,2457.76
1624.37,2346.57
1625.82,2192.68
1627.27,2081.93
1628.72,1968.67
1630.17,1842.7
1631.62,1737.76
1633.07,1714.13
1634.52,1605.64
1635.97,1548.9
1637.42,1507.73
1638.87,1446.11
1640.32,1381.16
1641.77,1350.41
1643.22,1298.64
1644.67,1231.07
1646.12,1173.93
1647.57,1128.67
1649.02,1100.53
1650.47,1100.27
1651.92,1040.12
1653.37,1008.17
1654.82,942.018
1656.27,975.746
1657.72,932.136
1659.17,863.146
1660.62,892.732
1662.07,864.133
1663.52,802.286
1664.97,789.885
1666.42,792.995
1667.88,768.704
1669.33,720.843
1670.78,733.161
1672.23,743.682
1673.68,710.085
1675.13,698.974
1676.58,654.286
1678.03,612.855
1679.48,626.265
1680.93,616.23
1682.38,578.348
1683.83,632.844
1685.28,565.154
1686.73,547.334
1688.18,527.95
1689.63,562.662
1691.08,545.318
1692.53,536.539
1693.98,551.046
1695.43,518.607
1696.88,469.252
1698.33,498.361
1699.78,507.742
1701.23,468.261
1702.68,453.284
1704.13,463.294
1705.58,436.851
1707.03,464.511
1708.48,487.232
1709.93,451.31
1711.39,420.605
1712.84,463.152
1714.29,399.324
1715.74,434.981
1717.19,425.68
1718.64,448.356
1720.09,436.722
1721.54,408.816
1722.99,433.024
1724.44,459.089
1725.89,452.961
1727.34,446.166
1728.79,425.503
1730.24,397.141
1731.69,402.142
1733.14,383.888
1734.59,404.124
1736.04,443.243
1737.49,385.9
1738.94,409.796
1740.39,465.126
1741.84,408.475
1743.29,337.301
1744.74,262.271
1746.19,273.714
1747.64,274.5
1749.09,334.586
1750.54,358.456
1751.99,365.981
1753.44,369.71
1754.89,357.5
1756.35,338.357
1757.8,352.453
1759.25,340.654
1760.7,258.885
1762.15,255.006
1763.6,279.019
1765.05,288.513
1766.5,243.368
1767.95,301.033
1769.4,271.575
1770.85,273.073
1772.3,269.68
1773.75,237.114
1775.2,255.573
1776.65,255.163
1778.1,284.57
1779.55,198.718
1781,226.015
1782.45,217.786
1783.9,288.236
1785.35,304.311
1786.8,259.67
1788.25,240.625
1789.7,236.851
1791.15,233.996
1792.6,231.276
1794.05,229.887
1795.5,226.663
1796.95,222.859
1798.4,254.875
1799.85,192.163
1801.31,172.491
1802.76,193.424
1804.21,197.603
1805.66,153.536
1807.11,203.534
1808.56,180.895
1810.01,130.82
1811.46,203.993
1812.91,227.27
1814.36,195.464
1815.81,143.928
1817.26,163.27
1818.71,201.62
1820.16,188.965
1821.61,159.534
1823.06,133.284
1824.51,122.276
1825.96,120.132
1827.41,134.873
1828.86,176.176
1830.31,198.38
1831.76,181.885
1833.21,165.59
1834.66,153.222
1836.11,109.945
1837.56,191.737
1839.01,204.345
1840.46,216.601
1841.91,186.694
1843.36,121.596
1844.82,196.641
1846.27,243.523
1847.72,256.107
1849.17,210.28
1850.62,225.913
1852.07,189.505
1853.52,188.843
1854.97,145.643
1856.42,163.573
1857.87,259.682
1859.32,264.615
1860.77,226.109
1862.22,199.683
1863.67,212.829
1865.12,210.033
1866.57,213.277
1868.02,199.671
1869.47,200.546
1870.92,249.51
1872.37,251.509
1873.82,237.339
1875.27,211.378
1876.72,196.155
1878.17,161.419
1879.62,182.995
1881.07,177.238
1882.52,170.453
1883.97,44.1797
1885.42,197.511
1886.87,163.138
1888.32,182.823
1889.78,111.904
1891.23,120.287
1892.68,141.071
1894.13,140.476
1895.58,175.194
1897.03,105.07
1898.48,120.103
1899.93,88.1953
1901.38,148.888
1902.83,119.16
1904.28,95.0724
1905.73,83.6804
1907.18,75.2754
1908.63,53.4516
1910.08,28.6137
1911.53,98.0779
1912.98,90.4852
1914.43,43.7835
1915.88,75.9622
1917.33,83.5417
1918.78,76.9055
1920.23,106.464
1921.68,106.154
1923.13,85.6497
1924.58,91.1977
1926.03,91.466
1927.48,72.3922
1928.93,95.5364
1930.38,99.3577
1931.83,57.392
1933.29,96.7557
1934.74,58.2533
1936.19,89.481
1937.64,31.4889
1939.09,25.7821
1940.54,5.7985
1941.99,36.8219
1943.44,47.3437
1944.89,21.5913
1946.34,51.5371
1947.79,28.844
1949.24,20.2424
1950.69,37.7882
1952.14,62.3567
1953.59,31.8752
1955.04,98.0817
1956.49,64.9608
1957.94,83.0273
1959.39,48.4948
1960.84,86.78
1962.29,67.392
1963.74,48.0173
1965.19,33.7006
1966.64,72.8653
1968.09,108.808
1969.54,44.0198
1970.99,16.5201
1972.44,40.4447
1973.89,81.5904
1975.34,102.671
1976.79,113.23
1978.25,107.543
1979.7,117.576
1981.15,140.951
1982.6,118.809
1984.05,99.0873
1985.5,102.904
1986.95,82.646
1988.4,101.031
1989.85,120.59
1991.3,77.2496
1992.75,119.864
1994.2,117.583
1995.65,75.9872
1997.1,90.9033
1998.55,119.036
2000,97.6177
2001.45,94.9685
2002.9,93.8848
2004.35,60.3905
2005.8,93.7503
2007.25,87.592
2008.7,72.8024
2010.15,113.249
2011.6,133.237
2013.05,99.4991
2014.5,116.74
2015.95,118.151
2017.4,64.3793
2018.85,59.4173
2020.3,26.6243
2021.75,130.352
2023.21,94.2174
2024.66,42.2868
2026.11,132.955
2027.56,38.9685
2029.01,43.6851
2030.46,14.8766
2031.91,94.5719
2033.36,38.4687
2034.81,71.4666
2036.26,46.0003
2037.71,2.12216
2039.16,45.6291
2040.61,29.4413
2042.06,36.7743
2043.51,15.4741
2044.96,35.7948
2046.41,-16.4925
2047.86,29.9978
2049.31,17.996
2050.76,-5.19928
2052.21,40.2055
2053.66,-60.1365
2055.11,-11.9395
2056.56,-19.6028
2058.01,-6.31843
2059.46,4.89025
2060.91,-3.71327
2062.36,-10.6629
2063.81,-21.7054
2065.26,19.89
2066.72,-15.1576
2068.17,-43.0463
2069.62,5.90333
2071.07,26.4729
2072.52,21.1034
2073.97,1.78337
2075.42,-3.39886
2076.87,-37.5904
2078.32,-45.5453
2079.77,-33.4352
2081.22,-13.4214
2082.67,13.775
2084.12,-6.6415
2085.57,-53.7526
2087.02,-35.0854
2088.47,-11.1966
2089.92,-14.7596
2091.37,-11.5852
2092.82,-40.9591
2094.27,-12.341
2095.72,42.178
2097.17,-8.43203
2098.62,-49.8865
2100.07,-32.9644
2101.52,-26.9573
2102.97,-55.4769
2104.42,-63.2006
2105.87,-17.4144
2107.32,-17.4465
2108.77,-48.6464
2110.22,-49.7913
2111.68,-39.7509
2113.13,-24.4583
2114.58,-2.03243
2116.03,-25.9685
2117.48,-43.3566
2118.93,-17.3853
2120.38,20.198
2121.83,-6.20297
2123.28,-19.9877
2124.73,-36.2422
2126.18,-38.7124
2127.63,-13.0257
2129.08,-21.177
2130.53,-29.4504
2131.98,-53.3341
2133.43,-58.6415
2134.88,-31.9986
2136.33,-20.8712
2137.78,-16.3548
2139.23,6.31993
2140.68,17.3955
2142.13,15.7316
2143.58,20.2684
2145.03,15.5772
2146.48,14.995
2147.93,15.0571
2149.38,13.0934
2150.83,27.7847
2152.28,25.1818
2153.73,5.67327
2155.18,-23.6004
2156.64,3.3125
2158.09,-1.84162
2159.54,6.09084
2160.99,9.88846
2162.44,29.2056
2163.89,36.0291
2165.34,5.08121
2166.79,-6.53685
2168.24,58.473
2169.69,56.0942
2171.14,56.4581
2172.59,29.8385
2174.04,23.3434
2175.49,8.5502
2176.94,34.1196
2178.39,64.8057
2179.84,36.0152
2181.29,52.4808
2182.74,31.8638
2184.19,34.8435
2185.64,30.1756
2187.09,18.8479
2188.54,30.761
2189.99,37.3117
2191.44,56.0851
2192.89,31.8
2194.34,78.6027
2195.79,105.322
2197.24,109.342
2198.69,100.49
2200.15,78.4987
2201.6,96.4711
2203.05,91.8351
2204.5,73.6643
2205.95,134.856
2207.4,125.292
2208.85,150.299
2210.3,105.852
2211.75,123.319
2213.2,124.037
2214.65,66.6666
2216.1,69.725
2217.55,42.8551
2219,96.4057
2220.45,51.8958
2221.9,155.267
2223.35,53.5044
2224.8,184.777
2226.25,166.001
2227.7,118.276
2229.15,125.674
2230.6,166.446
2232.05,116.213
2233.5,169.091
2234.95,121.123
2236.4,222.533
2237.85,172.021
2239.3,194.551
2240.75,130.831
2242.2,97.4485
2243.65,120.15
2245.11,102.042
2246.56,175.041
2248.01,136.584
2249.46,171.677
2250.91,155.587
2252.36,164.547
2253.81,177.091
2255.26,165.117
2256.71,180.774
2258.16,129.463
2259.61,122.681
2261.06,127.034
2262.51,164.176
2263.96,145.815
2265.41,145.429
2266.86,197.922
2268.31,189.324
2269.76,140.991
2271.21,168.006
2272.66,168.366
2274.11,154.625
2275.56,133.399
2277.01,152.847
2278.46,204.216
2279.91,213.204
2281.36,217.03
2282.81,192.904
2284.26,165.804
2285.71,167.939
2287.16,167.482
2288.61,173.47
2290.07,199.61
2291.52,237.073
2292.97,216.919
2294.42,241.721
2295.87,245.978
2297.32,242.711
2298.77,196.772
2300.22,215.589
2301.67,182.344
2303.12,244.022
2304.57,290.841
2306.02,247.935
2307.47,226.157
2308.92,243.222
2310.37,199.551
2311.82,288.698
2313.27,311.916
2314.72,176.962
2316.17,250.455
2317.62,266.769
2319.07,291.851
2320.52,317.359
2321.97,275.333
2323.42,286.745
2324.87,289.763
2326.32,290.725
2327.77,299.052
2329.22,314.328
2330.67,320.138
2332.12,266.087
2333.57,262.341
2335.03,309.087
2336.48,322.507
2337.93,334
2339.38,354.003
2340.83,353.684
2342.28,339.61
2343.73,309.849
2345.18,336.183
2346.63,398.399
2348.08,413.783
2349.53,430.723
2350.98,439.211
2352.43,450.219
2353.88,492.998
2355.33,463.979
2356.78,435.381
2358.23,410.821
2359.68,488.177
2361.13,491.462
2362.58,526.066
2364.03,527.071
2365.48,554.814
2366.93,588.056
2368.38,466.409
2369.83,485.685
2371.28,597.903
2372.73,556.385
2374.18,668.884
2375.63,639.705
2377.08,676.527
2378.54,638.729
2379.99,669.548
2381.44,667.449
2382.89,692.356
2384.34,775.294
2385.79,812.036
2387.24,761.648
2388.69,821.716
2390.14,880.289
2391.59,885.141
2393.04,908.915
2394.49,929.171
2395.94,979.959
2397.39,1016.92
2398.84,1142.12
2400.29,1127.94
2401.74,1101.85
2403.19,1177.42
2404.64,1230.78
2406.09,1152.18
2407.54,1285.73
2408.99,1303.75
2410.44,1348.01
2411.89,1403.15
2413.34,1440.08
2414.79,1369.18
2416.24,1433.85
2417.69,1481.79
2419.14,1535.08
2420.59,1600.25
2422.04,1639.89
2423.5,1593.5
2424.95,1644.16
2426.4,1685.63
2427.85,1684.11
2429.3,1664.08
2430.75,1647.78
2432.2,1597.49
2433.65,1580.22
2435.1,1653.81
2436.55,1669.91
2438,1631.05
2439.45,1590.49
2440.9,1576.15
2442.35,1658.79
2443.8,1665.24
2445.25,1507.93
2446.7,1537.42
2448.15,1570.9
2449.6,1527.03
2451.05,1535.13
2452.5,1564.88
2453.95,1535.09
2455.4,1495.98
2456.85,1441.71
2458.3,1458.55
2459.75,1415.39
2461.2,1397.29
2462.65,1414.86
2464.1,1389.86
2465.55,1382.95
2467.01,1375.26
2468.46,1365.78
2469.91,1357.92
2471.36,1333.16
2472.81,1309.54
2474.26,1356.13
2475.71,1269.68
2477.16,1228.84
2478.61,1261.07
2480.06,1251.65
2481.51,1303.09
2482.96,1270.92
2484.41,1248.64
2485.86,1211.79
2487.31,1172.73
2488.76,1263.32
2490.21,1323.68
2491.66,1284.3
2493.11,1255.83
2494.56,1264.02
2496.01,1229.12
2497.46,1250.26
2498.91,1258.13
2500.36,1302.57
2501.81,1231.18
2503.26,1276.8
2504.71,1287.39
2506.16,1258.92
2507.61,1299.29
2509.06,1317.39
2510.51,1262.57
2511.97,1281.33
2513.42,1323.12
2514.87,1274.23
2516.32,1260.82
2517.77,1353.61
2519.22,1331.45
2520.67,1326.28
2522.12,1369.25
2523.57,1298.92
2525.02,1361.03
2526.47,1448.8
2527.92,1458.99
2529.37,1472.58
2530.82,1547.04
2532.27,1519.77
2533.72,1602.36
2535.17,1542.83
2536.62,1580.86
2538.07,1564.3
2539.52,1626.49
2540.97,1666.78
2542.42,1663.97
2543.87,1736.08
2545.32,1703.11
2546.77,1754
2548.22,1780.97
2549.67,1838.01
2551.12,1876.4
2552.57,1860.92
2554.02,1932.21
2555.48,1996.24
2556.93,2088.62
2558.38,2163.68
2559.83,2116.67
2561.28,2117.72
2562.73,2269.89
2564.18,2357.46
2565.63,2358.37
2567.08,2484.46
2568.53,2399.54
2569.98,2595.47
2571.43,2668.97
2572.88,2745.19
2574.33,2897.48
2575.78,2981.74
2577.23,3070.42
2578.68,3131.89
2580.13,3154.19
2581.58,3279.47
2583.03,3403.35
2584.48,3621.4
2585.93,3701.9
2587.38,3820.42
2588.83,3975.68
2590.28,4011.66
2591.73,4294.3
2593.18,4467.05
2594.63,4510.88
2596.08,4677.43
2597.53,4882.85
2598.98,5079.58
2600.44,5283.01
2601.89,5464.06
2603.34,5726.38
2604.79,5967.21
2606.24,6200.53
2607.69,6512.38
2609.14,6834.96
2610.59,7057.34
2612.04,7391.88
2613.49,7495.66
2614.94,7888.91
2616.39,8398.17
2617.84,8661.28
2619.29,9037.81
2620.74,9350.7
2622.19,9808.45
2623.64,10384.2
2625.09,10695.7
2626.54,11044.9
2627.99,11641.5
2629.44,12022.8
2630.89,12539
2632.34,13136.9
2633.79,13305.5
2635.24,13872.4
2636.69,14566.8
2638.14,14968.7
2639.59,15545
2641.04,16046.7
2642.49,16472.1
2643.94,16871.3
2645.4,17264.4
2646.85,17727.6
2648.3,18166
2649.75,18503.8
2651.2,19013.8
2652.65,19484.1
2654.1,19770.6
2655.55,19799.5
2657,20003.7
2658.45,20096.1
2659.9,20286.6
2661.35,20422
2662.8,20455.9
2664.25,20212.6
2665.7,20104.3
2667.15,20073.9
2668.6,19993.4
2670.05,19624.9
2671.5,19477.3
2672.95,19098
2674.4,18872.6
2675.85,18551
2677.3,18110.6
2678.75,17388.9
2680.2,16753.2
2681.65,16427.5
2683.1,15936.1
2684.55,15413.2
2686,14918.7
2687.45,14355.4
2688.91,13739.2
2690.36,13308.3
2691.81,12821.3
2693.26,12177.1
2694.71,11932.1
2696.16,11301
2697.61,10922.4
2699.06,10405.7
2700.51,9982.93
2701.96,9497.65
2703.41,9091.09
2704.86,8609.08
2706.31,8141.42
2707.76,7853.7
2709.21,7401.05
2710.66,7117.05
2712.11,6717.1
2713.56,6436.81
2715.01,6027.3
2716.46,5825.26
2717.91,5588.08
2719.36,5377.31
2720.81,5078.08
2722.26,4842.81
2723.71,4704.58
2725.16,4487.9
2726.61,4247.66
2728.06,4017.15
2729.51,3938.95
2730.96,3809.54
2732.41,3634.19
2733.87,3512.33
2735.32,3328.07
2736.77,3106.75
2738.22,3113.22
2739.67,2949.83
2741.12,2841.95
2742.57,2715.25
2744.02,2662.4
2745.47,2629.71
2746.92,2436.7
2748.37,2435.48
2749.82,2330.45
2751.27,2287.72
2752.72,2143.41
2754.17,2114.17
2755.62,2018.62
2757.07,1967.07
2758.52,1997.34
2759.97,1942.23
2761.42,1875.79
2762.87,1767.32
2764.32,1793.98
2765.77,1722.39
2767.22,1728.96
2768.67,1470.11
2770.12,1553.19
2771.57,1499.07
2773.02,1432.92
2774.47,1448.95
2775.92,1409.22
2777.38,1405.07
2778.83,1410.98
2780.28,1338.01
2781.73,1326.64
2783.18,1363.24
2784.63,1208.21
2786.08,1252.73
2787.53,1240.84
2788.98,1114.34
2790.43,1092.41
2791.88,1153.01
2793.33,1100.73
2794.78,1092.85
2796.23,1052.53
2797.68,1033
2799.13,1074.62
2800.58,1041.56
2802.03,955.062
2803.48,1014.67
2804.93,949.018
2806.38,910.601
2807.83,941.816
2809.28,912.373
2810.73,878.207
2812.18,906.767
2813.63,850.561
2815.08,880.626
2816.53,874.571
2817.98,839.24
2819.43,774.373
2820.88,810.569
2822.33,802.686
2823.79,759.837
2825.24,753.678
2826.69,812.56
2828.14,828.01
2829.59,761.982
2831.04,786.618
2832.49,743.001
2833.94,700.889
2835.39,680.795
2836.84,707.59
2838.29,728.163
2839.74,716.783
2841.19,616.432
2842.64,673.489
2844.09,647.595
2845.54,663.844
2846.99,636.984
2848.44,663.041
2849.89,620.766
2851.34,598.726
2852.79,656.674
2854.24,714.413
2855.69,671.341
2857.14,647.456
2858.59,715.031
2860.04,654.095
2861.49,649.959
2862.94,604.997
2864.39,616.428
2865.84,625.076
2867.3,626.532
2868.75,610.116
2870.2,642.913
2871.65,679.482
2873.1,641.325
2874.55,712.55
2876,664.011
2877.45,593.826
2878.9,641.662
2880.35,647.293
2881.8,622.146
2883.25,677.539
2884.7,690.041
2886.15,688.845
2887.6,714.604
2889.05,682.054
2890.5,700.041
2891.95,688.859
2893.4,664.359
2894.85,686.697
2896.3,713.996
2897.75,704.635
2899.2,681.807
2900.65,686.781
2902.1,684.243
2903.55,697.959
2905,693.047
2906.45,712.292
2907.9,677.229
2909.35,651.564
2910.8,628.739
2912.26,668.999
2913.71,625.208
2915.16,628.458
2916.61,634.266
2918.06,642.656
2919.51,643.317
2920.96,627.485
2922.41,647.345
2923.86,644.106
2925.31,618.441
2926.76,549.35
2928.21,573.148
2929.66,565.71
2931.11,580.892
2932.56,557.998
2934.01,472.043
2935.46,529.792
2936.91,484.653
2938.36,459.137
2939.81,465.244
2941.26,481.705
2942.71,435.527
2944.16,458.077
2945.61,429.041
2947.06,430.605
2948.51,380.443
2949.96,348.56
2951.41,354.003
2952.86,346.59
2954.31,377.388
2955.77,340.8
2957.22,365.988
2958.67,303.468
2960.12,335.224
2961.57,277.958
2963.02,287.365
2964.47,291.954
2965.92,262.284
2967.37,215.096
2968.82,212.038
2970.27,271.707
2971.72,258.879
2973.17,232.983
2974.62,212.067
2976.07,179.236
2977.52,157.501
2978.97,143.128
2980.42,135.797
2981.87,102.076
2983.32,115.135
2984.77,168.151
2986.22,118.853
2987.67,80.4591
2989.12,112.638
2990.57,121.959
2992.02,103.35
2993.47,63.6518
2994.92,80.4017
2996.37,131.627
2997.82,54.651
2999.27,54.9447
3000.73,169.871
3002.18,124.074
3003.63,86.675
3005.08,125.407
3006.53,99.3883
3007.98,54.2381
3009.43,47.6082
3010.88,57.1185
3012.33,9.6632
3013.78,37.9713
3015.23,59.475
3016.68,25.9188
3018.13,29.6517
3019.58,18.1124
3021.03,23.2116
3022.48,20.4705
3023.93,-11.2596
3025.38,3.67357
3026.83,59.4861
3028.28,-11.8577
3029.73,0.940043
3031.18,26.863
3032.63,68.1529
3034.08,8.92697
3035.53,14.5046
3036.98,-26.4064
3038.43,-10.2565
3039.88,21.7317
3041.33,11.432
3042.78,-17.6018
3044.23,3.48345
3045.69,36.1424
3047.14,-32.9159
3048.59,11.8942
3050.04,25.0215
3051.49,24.8023
3052.94,-21.5894
3054.39,46.9391
3055.84,17.055
3057.29,-5.05737
3058.74,3.04654
3060.19,25.3328
3061.64,4.36788
3063.09,28.7318
3064.54,54.8022
3065.99,46.352
3067.44,78.0949
3068.89,44.6736
3070.34,93.9915
3071.79,96.8798
3073.24,93.2261
3074.69,12.9368
3076.14,67.9791
3077.59,109.409
3079.04,89.7156
3080.49,57.7945
3081.94,100.393
3083.39,134.337
3084.84,88.9489
3086.29,104.294
3087.74,64.5183
3089.2,92.6787
3090.65,133.037
3092.1,98.5843
3093.55,152.64
3095,233.901
3096.45,163.092
3097.9,217.185
3099.35,226.578
3100.8,204.457
3102.25,194.835
3103.7,239.664
3105.15,298.776
3106.6,261.863
3108.05,281.424
3109.5,293.127
3110.95,351.126
3112.4,373.704
3113.85,349.614
3115.3,291.958
3116.75,425.2
3118.2,435.412
3119.65,412.43
3121.1,438.544
3122.55,423.789
3124,433.643
3125.45,517.081
3126.9,598.608
3128.35,548.384
3129.8,567.674
3131.25,514.607
3132.7,554.432
3134.16,623.581
3135.61,630.627
3137.06,676.757
3138.51,665.582
3139.96,568.564
3141.41,599.592
3142.86,638.468
3144.31,663.114
3145.76,641.947
3147.21,663.194
3148.66,734.77
3150.11,721.434
3151.56,693.315
3153.01,692.338
3154.46,669.162
3155.91,713.714
3157.36,682.432
3158.81,723.745
3160.26,734.37
3161.71,793.506
3163.16,751.933
3164.61,745.236
3166.06,781.658
3167.51,681.48
3168.96,802.029
3170.41,794.709
3171.86,783.312
3173.31,732.74
3174.76,755.308
3176.21,796.847
3177.67,818.751
3179.12,830.94
3180.57,898.31
3182.02,926.634
3183.47,897.341
3184.92,919.252
3186.37,938.716
3187.82,962.834
3189.27,940.2
3190.72,1026.53
3192.17,1013.82
3193.62,1091.25
3195.07,1145.87
3196.52,1152.25
3197.97,1149.87
3199.42,1182.79
3200.87,1206.46
3202.32,1244.59
3203.77,1231.65
3205.22,1222.18
3206.67,1198.89
3208.12,1213.09
3209.57,1211.47
3211.02,1209.52
3212.47,1107.67
3213.92,1127.7
3215.37,1088.97
3216.82,1124.58
3218.27,1065.84
3219.72,1129.42
3221.17,1055.56
3222.63,976.601
3224.08,932.821
3225.53,874.998
3226.98,797.785
3228.43,793.249
3229.88,748.19
3231.33,693.134
3232.78,620.665
3234.23,606.283
3235.68,563.402
3237.13,522.187
3238.58,461.226
3240.03,425.93
3241.48,362.835
3242.93,363.371
3244.38,291.733
3245.83,255.932
3247.28,225.683
3248.73,272.45
3250.18,210.597
3251.63,212.385
3253.08,204.728
3254.53,106.342
3255.98,132.252
3257.43,51.4343
3258.88,88.5909
3260.33,103.3
3261.78,103.049
3263.23,79.5787
3264.68,34.4653
3266.13,72.2174
3267.59,-8.80973
3269.04,35.7504
3270.49,44.8279
3271.94,17.5607
3273.39,-39.4697
3274.84,2.76291
3276.29,-25.9663
3277.74,-41.0578
3279.19,-7.61332
3280.64,-15.0921
3282.09,4.88198
3283.54,3.605
3284.99,-28.657
3286.44,13.1638
3287.89,28.0348
3289.34,-27.9914
3290.79,-27.528
3292.24,-1.72444
3293.69,-18.5827
3295.14,-78.8168
3296.59,16.1511
3298.04,-5.16553
3299.49,34.9784
3300.94,20.31
3302.39,-5.23359
3303.84,-21.1894
3305.29,-20.0125
3306.74,-56.0247
3308.19,-35.1901
3309.64,-21.7339
3311.09,-57.8779
3312.55,-77.6642
3314,-50.4593
3315.45,-86.5336
3316.9,-58.3541
3318.35,-43.8571
3319.8,-12.4157
3321.25,-75.2708
3322.7,-50.3359
3324.15,-30.7697
3325.6,-55.9176
3327.05,-92.678
3328.5,-84.1312
3329.95,-46.6054
3331.4,-41.144
3332.85,-66.6336
3334.3,-49.5014
3335.75,-51.2299
3337.2,-7.14844
3338.65,-59.864
3340.1,-56.2148
3341.55,-26.5928
3343,-30.6053
3344.45,-42.1367
3345.9,-57.7462
3347.35,-84.5413
3348.8,-68.0622
3350.25,-15.8732
3351.7,-32.5547
3353.15,-58.0333
3354.6,-70.5734
3356.06,-33.7093
3357.51,-31.8094
3358.96,-47.009
3360.41,-17.391
3361.86,17.9214
3363.31,-22.7099
3364.76,-14.1383
3366.21,-70.1681
3367.66,-10.5027
3369.11,-0.26961
3370.56,-12.8659
3372.01,4.13459
3373.46,-38.4222
3374.91,-8.62729
3376.36,-15.9926
3377.81,-45.7632
3379.26,-13.0473
3380.71,26.5631
3382.16,-34.6341
3383.61,-18.682
3385.06,-47.605
3386.51,-45.3455
3387.96,-36.7833
3389.41,-99.065
3390.86,-13.0849
3392.31,15.9982
3393.76,-10.2155
3395.21,-23.8887
3396.66,-71.9911
3398.11,-35.0955
3399.56,-11.0283
3401.02,-2.12017
3402.47,8.37725
3403.92,10.3758
3405.37,-21.2841
3406.82,-42.9514
3408.27,-58.9074
3409.72,-54.9399
3411.17,-27.2275
3412.62,-24.0029
3414.07,2.3289
3415.52,-32.8582
3416.97,54.9194
3418.42,19.1325
3419.87,8.16752
3421.32,68.6746
3422.77,-30.0289
3424.22,-52.4113
3425.67,-5.27203
3427.12,-8.6333
3428.57,-31.1438
3430.02,18.6147
3431.47,50.835
3432.92,10.8949
3434.37,-5.28478
3435.82,-39.3276
3437.27,12.443
3438.72,-21.3552
3440.17,13.7934
3441.62,25.9706
3443.07,-19.6185
3444.52,-15.6796
3445.98,-16.6034
3447.43,8.77793
3448.88,2.37679
3450.33,11.5911
3451.78,-8.85061
3453.23,-11.709
3454.68,71.3054
3456.13,17.0482
3457.58,10.6019
3459.03,7.78689
3460.48,18.9786
3461.93,-20.269
3463.38,-66.1967
3464.83,-35.8689
3466.28,-17.5124
3467.73,16.2191
3469.18,8.34211
3470.63,-18.5341
3472.08,-15.4027
3473.53,-21.1677
3474.98,-22.3241
3476.43,8.19383
3477.88,60.4159
3479.33,38.9466
3480.78,-28.1797
3482.23,-36.254
3483.68,-35.229
3485.13,48.0819
3486.58,23.501
3488.03,-12.7539
3489.49,-17.3976
3490.94,-33.9724
3492.39,-15.0617
3493.84,13.3643
3495.29,4.02146
3496.74,36.262
3498.19,29.8519
3499.64,-20.6664
3501.09,-41.6129
3502.54,-48.9766
3503.99,-20.5419
3505.44,15.5735
3506.89,-35.033
3508.34,3.34788
3509.79,-14.726
3511.24,21.8887
3512.69,57.8661
3514.14,25.1389
3515.59,-35.5408
3517.04,-6.86423
3518.49,-34.8918
3519.94,-78.1588
3521.39,-53.6657
3522.84,-15.5238
3524.29,-8.14375
3525.74,-9.82732
3527.19,-19.9336
3528.64,-44.1432
3530.09,-19.9491
3531.54,-25.8278
3532.99,-32.9091
3534.45,9.73925
3535.9,-14.8607
3537.35,72.9459
3538.8,-20.8034
3540.25,-25.1137
3541.7,-22.6264
3543.15,-29.935
3544.6,-33.6435
3546.05,-11.5917
3547.5,-30.0865
3548.95,-17.2989
3550.4,-42.1248
3551.85,-17.0857
3553.3,-23.5253
3554.75,-61.8361
3556.2,7.25577
3557.65,-54.0626
3559.1,-53.2204
3560.55,-3.789
3562,-19.0352
3563.45,32.0715
3564.9,14.362
3566.35,-42.6716
3567.8,-23.1698
3569.25,36.0705
3570.7,-17.6503
3572.15,-54.7327
3573.6,-88.5801
3575.05,-25.027
3576.5,6.14138
3577.96,14.4571
3579.41,-4.30511
3580.86,-54.8648
3582.31,-35.2714
3583.76,-53.5155
3585.21,-32.8843
3586.66,0.566339
3588.11,21.4577
3589.56,-48.2129
3591.01,-59.6293
3592.46,-52.0283
3593.91,-60.1792
3595.36,-96.0422
3596.81,-96.1499
3598.26,-31.8837
3599.71,-67.2961
3601.16,-43.3612
3602.61,-26.1126
3604.06,-33.0187
3605.51,-32.1252
3606.96,-49.5998
3608.41,-15.4729
3609.86,-68.9314
3611.31,-42.4967
3612.76,-25.0413
3614.21,-41.9097
3615.66,-15.8643
3617.11,-41.9372
3618.56,-38.6894
3620.01,-24.554
3621.46,-9.96072
3622.92,-26.2893
3624.37,-2.3886
3625.82,39.6063
3627.27,-54.7345
3628.72,-16.3974
3630.17,-3.94798
3631.62,1.27746
3633.07,-42.0953
3634.52,-51.1934
3635.97,-53.0519
3637.42,-20.6724
3638.87,-25.2258
3640.32,-4.38047
3641.77,-11.7193
3643.22,-3.23667
3644.67,-40.7238
3646.12,-24.0882
3647.57,-21.1817
3649.02,-39.7527
3650.47,-35.3298
3651.92,-38.1309
3653.37,12.5465
3654.82,-47.2175
3656.27,-17.5451
3657.72,-17.43
3659.17,3.98225
3660.62,-49.916
3662.07,4.64681
3663.52,-3.24436
3664.97,-26.174
3666.43,-43.536
3667.88,-21.4457
3669.33,-34.3535
3670.78,-3.70009
3672.23,-27.0821
3673.68,9.79065
3675.13,13.4611
3676.58,-31.0539
3678.03,-38.7315
3679.48,-29.3366
3680.93,-8.09349
3682.38,9.21851
3683.83,22.9266
3685.28,-7.83562
3686.73,-11.0065
3688.18,-61.3318
3689.63,-48.5807
3691.08,-29.7828
3692.53,-53.0908
3693.98,9.77119
3695.43,-40.3731
3696.88,-6.5706
3698.33,-11.2583
3699.78,7.85342
3701.23,-47.0062
3702.68,59.9286
3704.13,-8.90306
3705.58,-12.0548
3707.03,-53.6215
3708.48,-9.1522
3709.93,-8.48208
3711.39,-18.1774
3712.84,-39.1872
3714.29,9.23346
3715.74,-31.4347
3717.19,6.57591
3718.64,-24.2031
3720.09,-19.5627
3721.54,-5.06074
3722.99,-51.1958
3724.44,-70.6478
3725.89,-24.0447
3727.34,17.651
3728.79,-8.39258
3730.24,-11.5709
3731.69,1.97048
3733.14,-50.7395
3734.59,-40.1461
3736.04,-4.29396
3737.49,14.9963
3738.94,-30.9525
3740.39,-20.3678
3741.84,22.6809
3743.29,12.2053
3744.74,-11.0579
3746.19,-28.7259
3747.64,25.8537
3749.09,14.1796
3750.54,3.16926
3751.99,-8.66785
3753.44,10.4221
3754.89,3.12345
3756.35,-17.0828
3757.8,16.6869
3759.25,-10.7096
3760.7,10.4423
3762.15,65.5742
3763.6,5.51185
3765.05,18.3425
3766.5,-10.302
3767.95,34.1506
3769.4,-7.0995
3770.85,0.540765
3772.3,57.7236
3773.75,10.0239
3775.2,-4.00269
3776.65,-0.608118
3778.1,33.7134
3779.55,-10.9624
3781,-8.76806
3782.45,-12.4989
3783.9,15.7198
3785.35,32.1643
3786.8,19.2539
3788.25,27.3166
3789.7,-13.7205
3791.15,22.4247
3792.6,-52.6136
3794.05,44.5878
3795.5,39.5549
3796.95,21.2025
3798.4,9.07163
3799.85,11.5036
3801.31,49.9758
3802.76,19.1831
3804.21,-25.7966
3805.66,51.9139
3807.11,13.9047
3808.56,1.96175
3810.01,26.0146
3811.46,24.5614
3812.91,-3.24814
3814.36,2.64333
3815.81,60.6164
3817.26,53.8057
3818.71,29.522
3820.16,20.6871
3821.61,25.749
3823.06,35.2978
3824.51,43.7414
3825.96,51.1128
3827.41,27.2143
3828.86,81.8952
3830.31,27.3792
3831.76,16.273
3833.21,62.0717
3834.66,30.1463
3836.11,21.234
3837.56,-42.0004
3839.01,57.9537
3840.46,7.16908
3841.91,30.2804
3843.36,-7.21507
3844.82,0.419459
3846.27,63.1242
3847.72,95.785
3849.17,72.5187
3850.62,42.8075
3852.07,43.8957
3853.52,54.13
3854.97,27.7015
3856.42,64.4742
3857.87,12.9074
3859.32,28.9375
3860.77,51.1336
3862.22,5.24964
3863.67,32.8592
3865.12,34.7257
3866.57,41.566
3868.02,9.083
3869.47,87.4787
3870.92,20.896
3872.37,91.6308
3873.82,-13.2004
3875.27,29.1604
3876.72,34.7005
3878.17,80.5953
3879.62,26.4924
3881.07,86.2747
3882.52,97.4505
3883.97,79.5988
3885.42,29.5899
3886.87,41.3776
3888.32,74.3668
3889.78,46.1331
3891.23,101.219
3892.68,81.0847
3894.13,124.649
3895.58,154.416
3897.03,82.426
3898.48,91.9905
3899.93,121.375
3901.38,93.8149
3902.83,79.5189
3904.28,117.869
3905.73,70.4354
3907.18,72.8927
3908.63,85.7954
3910.08,82.3137
3911.53,48.6735
3912.98,172.866
3914.43,134.24
3915.88,140.711
3917.33,127.316
3918.78,115.727
3920.23,145.262
3921.68,136.879
3923.13,147.611
3924.58,97.3911
3926.03,104.256
3927.48,141.558
3928.93,152.452
3930.38,155.811
3931.83,180.038
3933.28,122.729
3934.74,74.6042
3936.19,144.401
3937.64,230.947
3939.09,187.864
3940.54,166.263
3941.99,152.147
3943.44,172.647
3944.89,160.976
3946.34,172.455
3947.79,152.364
3949.24,153.249
3950.69,195.503
3952.14,174.45
3953.59,185.589
3955.04,213.398
3956.49,167.19
3957.94,176.678
3959.39,169.339
3960.84,186.564
3962.29,151.37
3963.74,204.207
3965.19,208.84
3966.64,244.416
3968.09,229.884
3969.54,220.908
3970.99,194.59
3972.44,248.9
3973.89,222.323
3975.34,214.157
3976.79,195.008
3978.25,243.031
3979.7,261.601
3981.15,225.817
3982.6,217.551
3984.05,257.171
3985.5,278.831
3986.95,241.85
3988.4,263.892
3989.85,276.232
3991.3,274.046
3992.75,285.829
3994.2,297.871
3995.65,241.886
3997.1,275.344
3998.55,267.395
4000,279.885
