0.6,160.513
1.45033,156.829
2.90065,153.145
4.35098,149.461
5.80131,145.777
7.25163,142.093
8.70196,295.556
10.1523,185.482
11.6026,155.974
13.0529,127.979
14.5033,111.441
15.9536,106.545
17.4039,106.693
18.8542,98.4798
20.3046,84.7006
21.7549,76.8823
23.2052,77.2395
24.6555,54.3776
26.1059,63.5911
27.5562,57.5228
29.0065,42.6943
30.4569,41.7833
31.9072,37.1395
33.3575,34.6569
34.8078,25.16
36.2582,8.40578
37.7085,-2.96009
39.1588,12.2529
40.6091,22.2387
42.0595,22.0797
43.5098,11.2009
44.9601,-4.01487
46.4104,8.45864
47.8608,11.0523
49.3111,14.915
50.7614,56.4435
52.2117,114.311
53.6621,245.555
55.1124,443.58
56.5627,704.692
58.0131,1036.85
59.4634,1404
60.9137,1657.42
62.364,1929.31
63.8144,2320.45
65.2647,2393.81
66.715,2490.86
68.1653,2569.4
69.6157,2646.19
71.066,2769.33
72.5163,2824.44
73.9666,2848.39
75.417,2846.33
76.8673,2847.43
78.3176,2932.47
79.7679,2991.67
81.2183,2989.42
82.6686,3006.71
84.1189,3097.72
85.5693,3130.71
87.0196,3220.11
88.4699,3141.56
89.9202,2984.67
91.3706,2938.51
92.8209,2806.36
94.2712,2676.44
95.7215,2590.27
97.1719,2513.57
98.6222,2333.99
100.073,2348.96
101.523,2297.14
102.973,2249.08
104.423,2243.26
105.874,2231.84
107.324,2219.54
108.774,2176.14
110.225,2142.96
111.675,2139.81
113.125,2008.36
114.576,2039.71
116.026,2034.04
117.476,1989.47
118.927,1966.48
120.377,1962.8
121.827,1931.62
123.278,1894.07
124.728,1844.05
126.178,1756.04
127.629,1711.5
129.079,1657.84
130.529,1618.16
131.98,1608.74
133.43,1639.98
134.88,1561.89
136.331,1522.18
137.781,1487.76
139.231,1453.23
140.682,1525.27
142.132,1535.22
143.582,1498.57
145.033,1428.82
146.483,1352.87
147.933,1360.84
149.384,1363.81
150.834,1372.94
152.284,1418.72
153.735,1517.61
155.185,1509.06
156.635,1409.53
158.086,1317.35
159.536,1242.06
160.986,1161.9
162.437,1193.25
163.887,1197.81
165.337,1165.71
166.788,1124.7
168.238,1130.34
169.688,1176.38
171.139,1181.79
172.589,1160.57
174.039,1110.98
175.489,1015.59
176.94,1041.61
178.39,1016.36
179.84,989.324
181.291,994.199
182.741,1043.18
184.191,995.213
185.642,1001.92
187.092,991.984
188.542,949.462
189.993,970.209
191.443,911.471
192.893,927.985
194.344,946.13
195.794,909.771
197.244,824.039
198.695,923.042
200.145,914.963
201.595,887.975
203.046,893.643
204.496,808.828
205.946,836.571
207.397,858.915
208.847,863.196
210.297,849.401
211.748,819.307
213.198,769.465
214.648,801.029
216.099,844.355
217.549,840.759
218.999,817.494
220.45,742.335
221.9,757.678
223.35,816.353
224.801,846.888
226.251,771.68
227.701,795.895
229.152,815.785
230.602,815.27
232.052,791.109
233.503,743.246
234.953,782.109
236.403,775.035
237.854,758.996
239.304,764.89
240.754,765.135
242.204,739.792
243.655,754.827
245.105,768.015
246.555,754.078
248.006,742.536
249.456,727.276
250.906,681.583
252.357,657.103
253.807,675.479
255.257,699.352
256.708,665.476
258.158,652.616
259.608,662.404
261.059,668.195
262.509,609.363
263.959,676.474
265.41,663.349
266.86,654.002
268.31,647.477
269.761,552.977
271.211,643.925
272.661,620.739
274.112,571.617
275.562,542.439
277.012,543.487
278.463,539.803
279.913,551.076
281.363,557.351
282.814,553.202
284.264,545.618
285.714,588.337
287.165,553.751
288.615,539.353
290.065,532.097
291.516,494.978
292.966,474.496
294.416,450.566
295.867,494.268
297.317,500.563
298.767,413.339
300.218,463.976
301.668,438.704
303.118,451.82
304.569,455.943
306.019,426.542
307.469,420.878
308.919,398.066
310.37,375.317
311.82,354.76
313.27,344.877
314.721,360.962
316.171,374.117
317.621,352.652
319.072,357.638
320.522,364.325
321.972,306.599
323.423,282.097
324.873,298.9
326.323,315.078
327.774,306.93
329.224,272.747
330.674,280.968
332.125,281.223
333.575,298.148
335.025,294.358
336.476,268.102
337.926,319.024
339.376,292.059
340.827,259.403
342.277,244.426
343.727,257.897
345.178,294.728
346.628,205.577
348.078,218.022
349.529,228.119
350.979,215.813
352.429,203.981
353.88,190.351
355.33,181.023
356.78,150.28
358.231,143.313
359.681,182.311
361.131,182.608
362.582,195.099
364.032,192.746
365.482,200.881
366.933,211.754
368.383,177.845
369.833,172.166
371.284,157.775
372.734,165.948
374.184,174.014
375.635,148.735
377.085,159.011
378.535,149.1
379.986,149.447
381.436,128.381
382.886,85.501
384.336,110.755
385.787,49.853
387.237,76.8108
388.687,107.684
390.138,103.431
391.588,82.8257
393.038,166.038
394.489,81.9562
395.939,69.8837
397.389,104.853
398.84,101.407
400.29,57.7393
401.74,78.6651
403.191,111.093
404.641,102.086
406.091,58.2115
407.542,47.1315
408.992,26.4382
410.442,30.2172
411.893,56.1476
413.343,64.3308
414.793,26.9857
416.244,15.291
417.694,30.3968
419.144,9.85934
420.595,-26.4248
422.045,-43.1642
423.495,-5.41008
424.946,13.9583
426.396,8.08162
427.846,-11.9367
429.297,-16.9239
430.747,8.20894
432.197,-9.33785
433.648,-22.2047
435.098,-28.317
436.548,-34.7488
437.999,-25.5945
439.449,28.1469
440.899,-33.5738
442.35,15.5816
443.8,37.6977
445.25,22.2721
446.701,-0.578691
448.151,-15.1389
449.601,-34.4872
451.051,22.3152
452.502,3.86032
453.952,-53.6815
455.402,10.5726
456.853,2.03946
458.303,52.8634
459.753,25.6941
461.204,5.03679
462.654,32.642
464.104,-16.0697
465.555,4.5948
467.005,-4.80879
468.455,-13.7957
469.906,-4.86105
471.356,24.0471
472.806,47.7763
474.257,-30.0628
475.707,-18.9613
477.157,9.02349
478.608,12.1709
480.058,11.0122
481.508,0.448186
482.959,5.37408
484.409,-2.52986
485.859,-5.81679
487.31,19.0097
488.76,80.876
490.21,-32.6639
491.661,15.4621
493.111,35.8494
494.561,8.83311
496.012,0.345846
497.462,48.3552
498.912,1.28076
500.363,-28.9199
501.813,-19.6625
503.263,3.9524
504.714,-3.93493
506.164,-5.42802
507.614,-58.0964
509.065,-19.2557
510.515,28.9156
511.965,26.6843
513.416,3.94856
514.866,21.7045
516.316,-20.9225
517.766,-18.2571
519.217,0.216903
520.667,11.7065
522.117,85.4741
523.568,1.81557
525.018,-21.9795
526.468,17.2917
527.919,25.8543
529.369,-42.5186
530.819,13.8412
532.27,25.9419
533.72,4.93851
535.17,1.03988
536.621,3.94004
538.071,-9.85096
539.521,42.4375
540.972,8.15711
542.422,8.19033
543.872,26.1647
545.323,31.6455
546.773,10.7772
548.223,35.7156
549.674,31.8976
551.124,-14.3171
552.574,-39.9238
554.025,-20.3532
555.475,16.406
556.925,21.0076
558.376,17.4257
559.826,-11.0358
561.276,-10.9894
562.727,22.145
564.177,31.9718
565.627,8.78711
567.078,44.8384
568.528,42.0943
569.978,18.9841
571.429,15.7025
572.879,52.2794
574.329,5.79529
575.78,16.3484
577.23,9.0593
578.68,-3.68609
580.131,-7.8013
581.581,-8.82131
583.031,11.0105
584.482,1.46174
585.932,-7.593
587.382,-6.08648
588.832,16.0636
590.283,56.9834
591.733,-43.75
593.183,-33.3039
594.634,-14.2553
596.084,-7.33894
597.534,-16.0559
598.985,-33.3214
600.435,22.3525
601.885,8.95079
603.336,-31.5171
604.786,-31.1117
606.236,1.18413
607.687,-11.1978
609.137,-37.3821
610.587,-63.5695
612.038,-25.8277
613.488,2.34188
614.938,0.869364
616.389,13.8915
617.839,65.5727
619.289,-12.0754
620.74,-26.1598
622.19,-14.5215
623.64,0.758898
625.091,17.7113
626.541,-5.47034
627.991,-27.6484
629.442,12.1287
630.892,-7.94754
632.342,-38.4175
633.793,3.63515
635.243,7.15523
636.693,-5.61158
638.144,-2.93629
639.594,-2.5644
641.044,-1.96428
642.495,0.731435
643.945,-8.87539
645.395,19.3209
646.846,24.1807
648.296,53.3827
649.746,29.9349
651.197,-32.5051
652.647,12.071
654.097,7.36824
655.547,-8.30859
656.998,12.0544
658.448,1.28589
659.898,-27.5095
661.349,-0.663452
662.799,10.0788
664.249,33.4642
665.7,-25.5605
667.15,-47.5427
668.6,-44.4127
670.051,-61.9631
671.501,2.3952
672.951,34.8036
674.402,78.9791
675.852,99.9695
677.302,62.7999
678.753,14.3997
680.203,86.1433
681.653,73.1567
683.104,-0.80876
684.554,-14.0312
686.004,-0.738827
687.455,8.00407
688.905,10.6318
690.355,-11.6493
691.806,-13.2497
693.256,-21.7878
694.706,-17.6013
696.157,-3.50042
697.607,18.2929
699.057,69.9166
700.508,42.4085
701.958,46.5361
703.408,23.2412
704.859,5.78422
706.309,5.31539
707.759,-10.0295
709.21,-11.6517
710.66,35.0371
712.11,21.4665
713.561,-10.5958
715.011,-11.1239
716.461,19.4521
717.912,-10.1025
719.362,-11.3666
720.812,-6.50225
722.263,-6.69831
723.713,1.48714
725.163,15.7337
726.613,12.7078
728.064,-10.3411
729.514,26.2783
730.964,7.93343
732.415,13.7609
733.865,40.2433
735.315,41.6921
736.766,8.57999
738.216,24.9919
739.666,-36.2115
741.117,-33.1806
742.567,-29.5087
744.017,-37.3228
745.468,-13.5368
746.918,-39.7792
748.368,-13.0219
749.819,-18.5378
751.269,10.6974
752.719,36.1835
754.17,18.1804
755.62,-20.4506
757.07,-67.5592
758.521,-1.49088
759.971,30.8935
761.421,21.6748
762.872,17.3526
764.322,29.8309
765.772,-30.5973
767.223,4.64799
768.673,10.8366
770.123,-11.2356
771.574,-41.0869
773.024,-39.7673
774.474,2.61117
775.925,-15.3646
777.375,-46.9132
778.825,-29.1907
780.276,-66.1684
781.726,-57.9161
783.176,-5.7852
784.627,-36.9979
786.077,-6.90406
787.527,-0.0254115
788.978,3.53453
790.428,-16.3047
791.878,-0.0233387
793.328,41.4482
794.779,-13.9107
796.229,-109.357
797.68,-29.0039
799.13,-12.6496
800.58,-68.5762
802.03,-82.0747
803.481,-26.2554
804.931,-59.0037
806.381,-60.2681
807.832,-7.53857
809.282,-27.2835
810.732,-40.2022
812.183,-39.0364
813.633,-29.4723
815.083,39.2783
816.534,29.6235
817.984,36.1825
819.434,-5.44898
820.885,-26.4448
822.335,-17.1742
823.785,-18.435
825.236,-57.3003
826.686,-28.1137
828.136,-27.5191
829.587,27.802
831.037,48.8074
832.487,27.0976
833.938,12.9612
835.388,30.1975
836.838,5.80621
838.289,62.1287
839.739,-22.0326
841.189,-21.1899
842.64,25.8815
844.09,-5.87137
845.54,-50.4698
846.991,79.8163
848.441,20.5987
849.891,14.3117
851.342,-2.81527
852.792,-4.94189
854.242,24.294
855.693,20.7726
857.143,65.8666
858.593,21.8022
860.044,42.9802
861.494,35.8739
862.944,40.6309
864.394,51.6078
865.845,-13.5587
867.295,6.27269
868.745,-17.3787
870.196,19.6165
871.646,1.77746
873.096,-11.0662
874.547,16.1721
875.997,16.9337
877.447,-98.3803
878.898,-13.04
880.348,9.57369
881.798,-53.704
883.249,-94.4235
884.699,-59.2521
886.149,-4.86959
887.6,-45.1926
889.05,-26.3437
890.5,-18.105
891.951,10.5826
893.401,-12.7881
894.851,-45.9563
896.302,-32.6724
897.752,-10.0286
899.202,-50.459
900.653,-5.89586
902.103,-8.26283
903.553,-43.7295
905.004,-54.1033
906.454,-16.8847
907.904,29.6591
909.355,26.0726
910.805,16.3192
912.255,28.9048
913.706,27.7525
915.156,27.9532
916.606,9.97177
918.057,-10.0253
919.507,46.6594
920.957,-26.8433
922.408,-25.5113
923.858,52.5366
925.308,84.5511
926.759,40.9262
928.209,-8.96524
929.659,19.7053
931.109,87.3798
932.56,61.6491
934.01,44.3833
935.46,13.4606
936.911,28.8406
938.361,59.0782
939.811,23.3796
941.262,-73.3914
942.712,55.1198
944.162,0.188699
945.613,-64.8726
947.063,-56.515
948.513,-16.4445
949.964,-18.2203
951.414,-51.6548
952.864,16.3875
954.315,-20.0245
955.765,32.3619
957.215,7.37372
958.666,15.7241
960.116,22.3797
961.566,-0.627935
963.017,-2.16051
964.467,11.0424
965.917,70.6396
967.368,39.2332
968.818,-2.85948
970.268,-24.4259
971.719,-42.1201
973.169,-51.3859
974.619,-12.8945
976.07,20.7337
977.52,2.38397
978.97,18.0558
980.421,50.7225
981.871,69.6701
983.321,40.8196
984.772,-9.49011
986.222,-5.27659
987.672,-62.1958
989.123,39.7655
990.573,-6.75729
992.023,-8.01646
993.474,11.6209
994.924,32.4864
996.374,72.0638
997.825,107.001
999.275,7.1397
1000.73,42.1844
1002.18,20.9827
1003.63,14.8003
1005.08,11.6323
1006.53,35.0121
1007.98,84.6775
1009.43,75.1442
1010.88,45.9793
1012.33,74.0483
1013.78,97.3898
1015.23,72.7712
1016.68,93.4285
1018.13,134.526
1019.58,137.843
1021.03,131.957
1022.48,34.4935
1023.93,95.563
1025.38,103.73
1026.83,133.907
1028.28,123.467
1029.73,77.9048
1031.18,93.6156
1032.63,210.883
1034.08,167.601
1035.53,86.7052
1036.98,150.616
1038.43,143.052
1039.88,159.275
1041.33,169.497
1042.78,159.758
1044.23,195.355
1045.69,224.221
1047.14,87.1828
1048.59,178.713
1050.04,272.843
1051.49,193.062
1052.94,171.472
1054.39,238.329
1055.84,253.81
1057.29,312.793
1058.74,196.084
1060.19,188.259
1061.64,274.768
1063.09,271.665
1064.54,277.258
1065.99,304.19
1067.44,283.862
1068.89,242.597
1070.34,369.313
1071.79,324.828
1073.24,378.262
1074.69,363.289
1076.14,340.503
1077.59,338.906
1079.04,360.507
1080.49,388.238
1081.94,372.312
1083.39,308.298
1084.84,431.79
1086.29,451.116
1087.74,476.547
1089.2,393.524
1090.65,343.229
1092.1,407.005
1093.55,403.194
1095,350.252
1096.45,398.83
1097.9,442.359
1099.35,422.859
1100.8,439.805
1102.25,453.028
1103.7,400.558
1105.15,349.325
1106.6,421.739
1108.05,362.068
1109.5,383.618
1110.95,385.595
1112.4,340.143
1113.85,336.607
1115.3,348.421
1116.75,357.072
1118.2,379.552
1119.65,390.062
1121.1,385.757
1122.55,406.227
1124,410.412
1125.45,356.502
1126.9,309.216
1128.35,301.607
1129.8,300.319
1131.25,283.983
1132.7,304.346
1134.16,263.877
1135.61,228.874
1137.06,243.547
1138.51,286.482
1139.96,280.236
1141.41,296.41
1142.86,336.344
1144.31,309.581
1145.76,248.862
1147.21,282.305
1148.66,189.38
1150.11,296.799
1151.56,323.008
1153.01,329.593
1154.46,325.47
1155.91,291.98
1157.36,254.738
1158.81,248.778
1160.26,199.508
1161.71,351.232
1163.16,283.053
1164.61,245.021
1166.06,279.303
1167.51,292.763
1168.96,274.621
1170.41,279.413
1171.86,291.074
1173.31,238.37
1174.76,290.672
1176.21,282.881
1177.66,250.895
1179.12,314.034
1180.57,296.301
1182.02,258.912
1183.47,303.088
1184.92,349.028
1186.37,344.8
1187.82,334.767
1189.27,326.933
1190.72,315.225
1192.17,309.703
1193.62,310.504
1195.07,306.069
1196.52,316.711
1197.97,316.83
1199.42,251.697
1200.87,330.009
1202.32,336.43
1203.77,309.512
1205.22,332.935
1206.67,287.257
1208.12,301.478
1209.57,386.743
1211.02,388.279
1212.47,287.096
1213.92,344.555
1215.37,365.023
1216.82,376.956
1218.27,303.294
1219.72,420.248
1221.17,490.711
1222.63,424.5
1224.08,352.454
1225.53,367.162
1226.98,395.385
1228.43,396.83
1229.88,439.808
1231.33,407.701
1232.78,429.11
1234.23,435.671
1235.68,465.656
1237.13,397.582
1238.58,364.559
1240.03,445.099
1241.48,449.28
1242.93,413.434
1244.38,406.853
1245.83,417.725
1247.28,463.409
1248.73,506.799
1250.18,550.846
1251.63,539.073
1253.08,509.871
1254.53,524.964
1255.98,570.054
1257.43,610.789
1258.88,582.15
1260.33,562.098
1261.78,606.125
1263.23,641.348
1264.68,649.887
1266.13,620.905
1267.59,626.774
1269.04,680.956
1270.49,726.805
1271.94,775.251
1273.39,782.452
1274.84,750.154
1276.29,766.619
1277.74,782.462
1279.19,852.247
1280.64,853.653
1282.09,899.811
1283.54,998.789
1284.99,1043.09
1286.44,1068.67
1287.89,1133.87
1289.34,1130.24
1290.79,1223.24
1292.24,1182.68
1293.69,1261.51
1295.14,1337.1
1296.59,1332.2
1298.04,1383.58
1299.49,1547.45
1300.94,1655
1302.39,1640.98
1303.84,1851.75
1305.29,1883.81
1306.74,1996.28
1308.19,2150.65
1309.64,2245.99
1311.09,2300.09
1312.55,2403.73
1314,2623.37
1315.45,2877.98
1316.9,3031.23
1318.35,3127.79
1319.8,3282.3
1321.25,3327.78
1322.7,3799.21
1324.15,3869.71
1325.6,4096.39
1327.05,4297.67
1328.5,4465.59
1329.95,4610.06
1331.4,4760.69
1332.85,4922.64
1334.3,4957.96
1335.75,5142.51
1337.2,5106.69
1338.65,5000.88
1340.1,5003.77
1341.55,4837.09
1343,4868.83
1344.45,4805.9
1345.9,4585.41
1347.35,4470.8
1348.8,4458.51
1350.25,4241.49
1351.7,3951.1
1353.15,3745.62
1354.6,3475.11
1356.06,3396.6
1357.51,3162.06
1358.96,2931.09
1360.41,2786.49
1361.86,2669.67
1363.31,2532.99
1364.76,2323.93
1366.21,2083.62
1367.66,2079.72
1369.11,1966.47
1370.56,1951.76
1372.01,1737.04
1373.46,1702.89
1374.91,1580.76
1376.36,1478.12
1377.81,1448.69
1379.26,1411.11
1380.71,1328.27
1382.16,1294.67
1383.61,1336.39
1385.06,1249.77
1386.51,1226.16
1387.96,1204.72
1389.41,1138.22
1390.86,1145.25
1392.31,1102.58
1393.76,1096.17
1395.21,1065.27
1396.66,1038.87
1398.11,1022.85
1399.56,966.187
1401.02,932.458
1402.47,974.725
1403.92,1001.03
1405.37,1017.77
1406.82,955.277
1408.27,946.052
1409.72,942.128
1411.17,918.589
1412.62,836.664
1414.07,841.876
1415.52,912.788
1416.97,923.326
1418.42,934.3
1419.87,971.056
1421.32,986.89
1422.77,910.113
1424.22,855.858
1425.67,899.532
1427.12,888.891
1428.57,906.9
1430.02,887.725
1431.47,923.6
1432.92,964.805
1434.37,990.99
1435.82,1034.95
1437.27,989.447
1438.72,983.524
1440.17,812.36
1441.62,983.94
1443.07,1006.6
1444.53,993.41
1445.98,985.459
1447.43,1076.41
1448.88,1150.34
1450.33,1109.02
1451.78,1084.78
1453.23,1117.2
1454.68,1104.55
1456.13,1140.07
1457.58,1227.35
1459.03,1163.44
1460.48,1192.74
1461.93,1265.47
1463.38,1184.77
1464.83,1225.65
1466.28,1293.54
1467.73,1273.03
1469.18,1261.46
1470.63,1300.36
1472.08,1322.75
1473.53,1361.78
1474.98,1471.17
1476.43,1474.86
1477.88,1509.01
1479.33,1655.28
1480.78,1496.09
1482.23,1673.17
1483.68,1728.01
1485.13,1748.12
1486.58,1761.04
1488.03,1706.89
1489.49,1766.09
1490.94,1905.76
1492.39,1980.93
1493.84,2024.99
1495.29,2081.65
1496.74,2220.94
1498.19,2215.75
1499.64,2340.59
1501.09,2289.28
1502.54,2405.35
1503.99,2514.46
1505.44,2653.03
1506.89,2715.18
1508.34,2840.69
1509.79,3004.33
1511.24,3170.69
1512.69,3330.15
1514.14,3457.92
1515.59,3635.99
1517.04,3885.01
1518.49,4091.39
1519.94,4481.69
1521.39,4494.13
1522.84,4861.5
1524.29,5085.53
1525.74,5564.25
1527.19,5986.35
1528.64,6408.49
1530.09,6981.86
1531.54,7572.91
1532.99,8119.19
1534.45,8862.46
1535.9,9690.48
1537.35,10264.4
1538.8,11499.9
1540.25,12689.4
1541.7,13574.9
1543.15,14953.8
1544.6,16243.5
1546.05,17790.7
1547.5,19189.2
1548.95,20834.3
1550.4,22564.4
1551.85,24119
1553.3,25888
1554.75,27868.7
1556.2,29703
1557.65,31494.5
1559.1,33307
1560.55,35005
1562,36756.4
1563.45,37903.5
1564.9,39135.2
1566.35,39757.5
1567.8,42854.2
1569.25,39749
1570.7,39356
1572.15,38285
1573.6,37040.9
1575.05,35370
1576.5,33167.4
1577.96,30938.8
1579.41,28845.2
1580.86,26677
1582.31,24649.1
1583.76,22553.6
1585.21,20600.4
1586.66,18811.9
1588.11,17216.8
1589.56,15860.3
1591.01,14395.1
1592.46,13270.6
1593.91,12342
1595.36,11519.2
1596.81,10696.4
1598.26,10035.4
1599.71,9416.58
1601.16,8869.42
1602.61,8371
1604.06,7868.86
1605.51,7497.57
1606.96,7158.66
1608.41,6788.01
1609.86,6408.63
1611.31,6076.83
1612.76,5675.07
1614.21,5241.66
1615.66,5043.69
1617.11,4598.17
1618.56,4284.61
1620.01,4046.92
1621.46,3761.37
1622.92,3464.13
1624.37,3307.41
1625.82,3090.51
1627.27,2934.41
1628.72,2774.77
1630.17,2597.22
1631.62,2449.31
1633.07,2416.01
1634.52,2263.09
1635.97,2183.12
1637.42,2125.1
1638.87,2038.24
1640.32,1946.69
1641.77,1903.36
1643.22,1830.39
1644.67,1735.16
1646.12,1654.62
1647.57,1590.82
1649.02,1551.15
1650.47,1550.8
1651.92,1466.02
1653.37,1420.99
1654.82,1327.74
1656.27,1375.28
1657.72,1313.81
1659.17,1216.58
1660.62,1258.28
1662.07,1217.97
1663.52,1130.8
1664.97,1113.32
1666.42,1117.7
1667.88,1083.46
1669.33,1016
1670.78,1033.37
1672.23,1048.19
1673.68,1000.84
1675.13,985.18
1676.58,922.194
1678.03,863.799
1679.48,882.699
1680.93,868.556
1682.38,815.162
1683.83,891.973
1685.28,796.566
1686.73,771.449
1688.18,744.128
1689.63,793.054
1691.08,768.608
1692.53,756.233
1693.98,776.681
1695.43,730.96
1696.88,661.395
1698.33,702.423
1699.78,715.646
1701.23,659.999
1702.68,638.889
1704.13,652.998
1705.58,615.727
1707.03,654.713
1708.48,686.737
1709.93,636.107
1711.39,592.829
1712.84,652.797
1714.29,562.833
1715.74,613.091
1717.19,599.982
1718.64,631.942
1720.09,615.546
1721.54,576.212
1722.99,610.333
1724.44,647.07
1725.89,638.434
1727.34,628.856
1728.79,599.732
1730.24,559.757
1731.69,566.806
1733.14,541.077
1734.59,569.599
1736.04,624.736
1737.49,543.914
1738.94,577.594
1740.39,655.58
1741.84,575.732
1743.29,475.414
1744.74,369.662
1746.19,385.791
1747.64,386.898
1749.09,471.587
1750.54,505.232
1751.99,515.838
1753.44,521.094
1754.89,503.884
1756.35,476.903
1757.8,496.771
1759.25,480.14
1760.7,364.891
1762.15,359.422
1763.6,393.268
1765.05,406.649
1766.5,343.02
1767.95,424.295
1769.4,382.775
1770.85,384.887
1772.3,380.105
1773.75,334.205
1775.2,360.221
1776.65,359.644
1778.1,401.092
1779.55,280.086
1781,318.561
1782.45,306.963
1783.9,406.259
1785.35,428.917
1786.8,365.996
1788.25,339.152
1789.7,333.834
1791.15,329.81
1792.6,325.976
1794.05,324.018
1795.5,319.474
1796.95,314.113
1798.4,359.238
1799.85,270.847
1801.31,243.12
1802.76,272.624
1804.21,278.515
1805.66,216.404
1807.11,286.875
1808.56,254.965
1810.01,184.387
1811.46,287.522
1812.91,320.33
1814.36,275.5
1815.81,202.862
1817.26,230.123
1818.71,284.176
1820.16,266.34
1821.61,224.857
1823.06,187.86
1824.51,172.344
1825.96,169.323
1827.41,190.1
1828.86,248.315
1830.31,279.61
1831.76,256.362
1833.21,233.393
1834.66,215.961
1836.11,154.964
1837.56,270.248
1839.01,288.017
1840.46,305.293
1841.91,263.139
1843.36,171.385
1844.82,277.159
1846.27,343.237
1847.72,360.975
1849.17,296.383
1850.62,318.417
1852.07,267.101
1853.52,266.168
1854.97,205.279
1856.42,230.551
1857.87,366.013
1859.32,372.965
1860.77,318.693
1862.22,281.447
1863.67,299.976
1865.12,296.035
1866.57,300.606
1868.02,281.429
1869.47,282.662
1870.92,351.677
1872.37,354.494
1873.82,334.521
1875.27,297.93
1876.72,276.474
1878.17,227.515
1879.62,257.925
1881.07,249.811
1882.52,240.248
1883.97,62.2698
1885.42,278.385
1886.87,229.937
1888.32,257.682
1889.78,157.725
1891.23,169.541
1892.68,198.834
1894.13,197.997
1895.58,246.93
1897.03,148.092
1898.48,169.281
1899.93,124.308
1901.38,209.853
1902.83,167.951
1904.28,134.001
1905.73,117.945
1907.18,106.098
1908.63,75.3382
1910.08,40.3301
1911.53,138.238
1912.98,127.536
1914.43,61.7113
1915.88,107.066
1917.33,117.749
1918.78,108.396
1920.23,150.058
1921.68,149.62
1923.13,120.72
1924.58,128.54
1926.03,128.918
1927.48,102.034
1928.93,134.655
1930.38,140.041
1931.83,80.8921
1933.29,136.374
1934.74,82.1061
1936.19,126.121
1937.64,44.3826
1939.09,36.339
1940.54,8.17279
1941.99,51.8993
1943.44,66.7293
1944.89,30.4323
1946.34,72.6399
1947.79,40.6547
1949.24,28.5309
1950.69,53.2612
1952.14,87.8897
1953.59,44.927
1955.04,138.243
1956.49,91.56
1957.94,117.024
1959.39,68.3518
1960.84,122.314
1962.29,94.9868
1963.74,67.6787
1965.19,47.4999
1966.64,102.701
1968.09,153.361
1969.54,62.0445
1970.99,23.2846
1972.44,57.0054
1973.89,114.999
1975.34,144.712
1976.79,159.594
1978.25,151.579
1979.7,165.719
1981.15,198.666
1982.6,167.457
1984.05,139.66
1985.5,145.04
1986.95,116.487
1988.4,142.4
1989.85,169.967
1991.3,108.881
1992.75,168.945
1994.2,165.729
1995.65,107.101
1997.1,128.125
1998.55,167.778
2000,137.589
2001.45,133.855
2002.9,132.327
2004.35,85.1184
2005.8,132.138
2007.25,123.458
2008.7,102.613
2010.15,159.621
2011.6,187.793
2013.05,140.241
2014.5,164.542
2015.95,166.53
2017.4,90.7404
2018.85,83.7467
2020.3,37.5261
2021.75,183.727
2023.21,132.796
2024.66,59.6019
2026.11,187.395
2027.56,54.9249
2029.01,61.5727
2030.46,20.9681
2031.91,133.296
2033.36,54.2204
2034.81,100.73
2036.26,64.8359
2037.71,2.99112
2039.16,64.3127
2040.61,41.4966
2042.06,51.8322
2043.51,21.8102
2044.96,50.4516
2046.41,-23.2456
2047.86,42.281
2049.31,25.3647
2050.76,-7.32821
2052.21,56.6684
2053.66,-84.7603
2055.11,-16.8283
2056.56,-27.6295
2058.01,-8.90562
2059.46,6.89265
2060.91,-5.23372
2062.36,-15.029
2063.81,-30.5931
2065.26,28.0343
2066.72,-21.3642
2068.17,-60.6723
2069.62,8.32054
2071.07,37.3127
2072.52,29.7445
2073.97,2.5136
2075.42,-4.79058
2076.87,-52.9824
2078.32,-64.1946
2079.77,-47.1258
2081.22,-18.9171
2082.67,19.4153
2084.12,-9.36097
2085.57,-75.7625
2087.02,-49.4518
2088.47,-15.7812
2089.92,-20.8031
2091.37,-16.329
2092.82,-57.7305
2094.27,-17.3943
2095.72,59.4485
2097.17,-11.8847
2098.62,-70.3134
2100.07,-46.4623
2101.52,-37.9954
2102.97,-78.1928
2104.42,-89.0792
2105.87,-24.545
2107.32,-24.5903
2108.77,-68.5654
2110.22,-70.1791
2111.68,-56.0276
2113.13,-34.4731
2114.58,-2.86464
2116.03,-36.6017
2117.48,-61.1097
2118.93,-24.504
2120.38,28.4685
2121.83,-8.74288
2123.28,-28.172
2124.73,-51.0821
2126.18,-54.5638
2127.63,-18.3593
2129.08,-29.8483
2130.53,-41.5093
2131.98,-75.1726
2133.43,-82.6533
2134.88,-45.101
2136.33,-29.4172
2137.78,-23.0515
2139.23,8.90773
2140.68,24.5184
2142.13,22.1732
2143.58,28.5676
2145.03,21.9556
2146.48,21.1349
2147.93,21.2225
2149.38,18.4547
2150.83,39.1616
2152.28,35.4929
2153.73,7.99628
2155.18,-33.2639
2156.64,4.66886
2158.09,-2.59571
2159.54,8.58484
2160.99,13.9375
2162.44,41.1644
2163.89,50.7818
2165.34,7.1618
2166.79,-9.21347
2168.24,82.4157
2169.69,79.0629
2171.14,79.5758
2172.59,42.0564
2174.04,32.9017
2175.49,12.0512
2176.94,48.0905
2178.39,91.3415
2179.84,50.7622
2181.29,73.9699
2182.74,44.9109
2184.19,49.1108
2185.64,42.5315
2187.09,26.5655
2188.54,43.3566
2189.99,52.5895
2191.44,79.0501
2192.89,44.821
2194.34,110.788
2195.79,148.448
2197.24,154.114
2198.69,141.638
2200.15,110.641
2201.6,135.973
2203.05,129.439
2204.5,103.827
2205.95,190.075
2207.4,176.595
2208.85,211.842
2210.3,149.195
2211.75,173.814
2213.2,174.826
2214.65,93.9644
2216.1,98.275
2217.55,60.4028
2219,135.881
2220.45,73.1454
2221.9,218.844
2223.35,75.4127
2224.8,260.437
2226.25,233.973
2227.7,166.706
2229.15,177.133
2230.6,234.6
2232.05,163.798
2233.5,238.328
2234.95,170.719
2236.4,313.653
2237.85,242.457
2239.3,274.214
2240.75,184.402
2242.2,137.35
2243.65,169.348
2245.11,143.825
2246.56,246.715
2248.01,192.511
2249.46,241.973
2250.91,219.295
2252.36,231.924
2253.81,249.604
2255.26,232.727
2256.71,254.794
2258.16,182.473
2259.61,172.915
2261.06,179.05
2262.51,231.401
2263.96,205.521
2265.41,204.977
2266.86,278.965
2268.31,266.846
2269.76,198.723
2271.21,236.799
2272.66,237.306
2274.11,217.939
2275.56,188.022
2277.01,215.433
2278.46,287.836
2279.91,300.503
2281.36,305.897
2282.81,271.892
2284.26,233.695
2285.71,236.704
2287.16,236.06
2288.61,244.5
2290.07,281.343
2291.52,334.147
2292.97,305.74
2294.42,340.697
2295.87,346.698
2297.32,342.093
2298.77,277.343
2300.22,303.865
2301.67,257.008
2303.12,343.941
2304.57,409.93
2306.02,349.456
2307.47,318.761
2308.92,342.813
2310.37,281.261
2311.82,406.91
2313.27,439.636
2314.72,249.423
2316.17,353.009
2317.62,376.002
2319.07,411.354
2320.52,447.307
2321.97,388.073
2323.42,404.157
2324.87,408.411
2326.32,409.767
2327.77,421.504
2329.22,443.035
2330.67,451.224
2332.12,375.041
2333.57,369.761
2335.03,435.647
2336.48,454.562
2337.93,470.762
2339.38,498.956
2340.83,498.505
2342.28,478.669
2343.73,436.722
2345.18,473.838
2346.63,561.53
2348.08,583.213
2349.53,607.09
2350.98,619.053
2352.43,634.568
2353.88,694.864
2355.33,653.963
2356.78,613.655
2358.23,579.039
2359.68,688.07
2361.13,692.699
2362.58,741.473
2364.03,742.889
2365.48,781.992
2366.93,828.845
2368.38,657.388
2369.83,684.557
2371.28,842.724
2372.73,784.206
2374.18,942.77
2375.63,901.643
2377.08,953.543
2378.54,900.267
2379.99,943.706
2381.44,940.747
2382.89,975.852
2384.34,1092.75
2385.79,1144.54
2387.24,1073.52
2388.69,1158.18
2390.14,1240.74
2391.59,1247.58
2393.04,1281.08
2394.49,1309.64
2395.94,1381.22
2397.39,1433.31
2398.84,1609.78
2400.29,1589.79
2401.74,1553.02
2403.19,1659.54
2404.64,1734.75
2406.09,1623.97
2407.54,1812.2
2408.99,1837.59
2410.44,1899.98
2411.89,1977.69
2413.34,2029.74
2414.79,1929.82
2416.24,2020.96
2417.69,2088.54
2419.14,2163.64
2420.59,2255.5
2422.04,2311.37
2423.5,2245.98
2424.95,2317.39
2426.4,2375.83
2427.85,2373.69
2429.3,2345.47
2430.75,2322.48
2432.2,2251.61
2433.65,2227.26
2435.1,2330.98
2436.55,2353.68
2438,2298.91
2439.45,2241.74
2440.9,2221.54
2442.35,2338
2443.8,2347.1
2445.25,2125.38
2446.7,2166.94
2448.15,2214.14
2449.6,2152.3
2451.05,2163.72
2452.5,2205.65
2453.95,2163.66
2455.4,2108.53
2456.85,2032.04
2458.3,2055.78
2459.75,1994.94
2461.2,1969.44
2462.65,1994.2
2464.1,1958.96
2465.55,1949.22
2467.01,1938.38
2468.46,1925.02
2469.91,1913.94
2471.36,1879.05
2472.81,1845.75
2474.26,1911.43
2475.71,1789.57
2477.16,1732.01
2478.61,1777.43
2480.06,1764.16
2481.51,1836.66
2482.96,1791.31
2484.41,1759.92
2485.86,1707.98
2487.31,1652.93
2488.76,1780.6
2490.21,1865.68
2491.66,1810.18
2493.11,1770.06
2494.56,1781.6
2496.01,1732.4
2497.46,1762.2
2498.91,1773.3
2500.36,1835.93
2501.81,1735.31
2503.26,1799.61
2504.71,1814.53
2506.16,1774.41
2507.61,1831.3
2509.06,1856.82
2510.51,1779.55
2511.97,1805.99
2513.42,1864.9
2514.87,1795.99
2516.32,1777.08
2517.77,1907.86
2519.22,1876.64
2520.67,1869.35
2522.12,1929.92
2523.57,1830.78
2525.02,1918.33
2526.47,2042.04
2527.92,2056.4
2529.37,2075.56
2530.82,2180.5
2532.27,2142.06
2533.72,2258.47
2535.17,2174.57
2536.62,2228.18
2538.07,2204.83
2539.52,2292.48
2540.97,2349.27
2542.42,2345.31
2543.87,2446.94
2545.32,2400.47
2546.77,2472.21
2548.22,2510.21
2549.67,2590.61
2551.12,2644.72
2552.57,2622.9
2554.02,2723.38
2555.48,2813.64
2556.93,2943.84
2558.38,3049.63
2559.83,2983.38
2561.28,2984.85
2562.73,3199.33
2564.18,3322.76
2565.63,3324.05
2567.08,3501.77
2568.53,3382.07
2569.98,3658.22
2571.43,3761.83
2572.88,3869.25
2574.33,4083.91
2575.78,4202.67
2577.23,4327.66
2578.68,4414.3
2580.13,4445.73
2581.58,4622.31
2583.03,4796.92
2584.48,5104.24
2585.93,5217.7
2587.38,5384.76
2588.83,5603.59
2590.28,5654.3
2591.73,6052.68
2593.18,6296.15
2594.63,6357.93
2596.08,6592.69
2597.53,6882.21
2598.98,7159.49
2600.44,7446.23
2601.89,7701.41
2603.34,8071.13
2604.79,8410.58
2606.24,8739.45
2607.69,9178.98
2609.14,9633.65
2610.59,9947.08
2612.04,10418.6
2613.49,10564.9
2614.94,11119.2
2616.39,11836.9
2617.84,12207.8
2619.29,12738.5
2620.74,13179.5
2622.19,13824.7
2623.64,14636.2
2625.09,15075.2
2626.54,15567.4
2627.99,16408.3
2629.44,16945.7
2630.89,17673.2
2632.34,18516
2633.79,18753.7
2635.24,19552.7
2636.69,20531.4
2638.14,21097.9
2639.59,21910.1
2641.04,22617.3
2642.49,23216.9
2643.94,23779.6
2645.4,24333.6
2646.85,24986.4
2648.3,25604.3
2649.75,26080.4
2651.2,26799.4
2652.65,27462.2
2654.1,27866
2655.55,27906.7
2657,28194.6
2658.45,28324.8
2659.9,28593.2
2661.35,28784.1
2662.8,28831.9
2664.25,28488.9
2665.7,28336.3
2667.15,28293.5
2668.6,28180.1
2670.05,27660.7
2671.5,27452.6
2672.95,26918.1
2674.4,26600.3
2675.85,26147.1
2677.3,25526.3
2678.75,24509.1
2680.2,23613.1
2681.65,23154
2683.1,22461.4
2684.55,21724.5
2686,21027.4
2687.45,20233.5
2688.91,19364.9
2690.36,18757.6
2691.81,18071.1
2693.26,17163.2
2694.71,16817.8
2696.16,15928.3
2697.61,15394.8
2699.06,14666.5
2700.51,14070.6
2701.96,13386.6
2703.41,12813.6
2704.86,12134.2
2706.31,11475.1
2707.76,11069.5
2709.21,10431.5
2710.66,10031.2
2712.11,9467.53
2713.56,9072.48
2715.01,8495.28
2716.46,8210.51
2717.91,7876.21
2719.36,7579.14
2720.81,7157.39
2722.26,6825.78
2723.71,6630.95
2725.16,6325.55
2726.61,5986.93
2728.06,5662.04
2729.51,5551.81
2730.96,5369.42
2732.41,5122.27
2733.87,4950.52
2735.32,4690.8
2736.77,4378.86
2738.22,4387.99
2739.67,4157.69
2741.12,4005.64
2742.57,3827.05
2744.02,3752.57
2745.47,3706.49
2746.92,3434.44
2748.37,3432.73
2749.82,3284.7
2751.27,3224.47
2752.72,3021.07
2754.17,2979.86
2755.62,2845.18
2757.07,2772.53
2758.52,2815.19
2759.97,2737.51
2761.42,2643.86
2762.87,2490.97
2764.32,2528.55
2765.77,2427.65
2767.22,2436.91
2768.67,2072.07
2770.12,2189.18
2771.57,2112.89
2773.02,2019.65
2774.47,2042.24
2775.92,1986.24
2777.38,1980.39
2778.83,1988.73
2780.28,1885.88
2781.73,1869.85
2783.18,1921.44
2784.63,1702.94
2786.08,1765.69
2787.53,1748.92
2788.98,1570.63
2790.43,1539.72
2791.88,1625.13
2793.33,1551.44
2794.78,1540.33
2796.23,1483.5
2797.68,1455.98
2799.13,1514.64
2800.58,1468.05
2802.03,1346.13
2803.48,1430.14
2804.93,1337.61
2806.38,1283.46
2807.83,1327.46
2809.28,1285.96
2810.73,1237.8
2812.18,1278.06
2813.63,1198.84
2815.08,1241.21
2816.53,1232.68
2817.98,1182.88
2819.43,1091.45
2820.88,1142.47
2822.33,1131.36
2823.79,1070.96
2825.24,1062.28
2826.69,1145.28
2828.14,1167.05
2829.59,1073.99
2831.04,1108.71
2832.49,1047.23
2833.94,987.879
2835.39,959.558
2836.84,997.324
2838.29,1026.32
2839.74,1010.28
2841.19,868.84
2842.64,949.261
2844.09,912.764
2845.54,935.666
2846.99,897.807
2848.44,934.535
2849.89,874.949
2851.34,843.885
2852.79,925.56
2854.24,1006.94
2855.69,946.233
2857.14,912.568
2858.59,1007.81
2860.04,921.925
2861.49,916.095
2862.94,852.723
2864.39,868.835
2865.84,881.024
2867.3,883.076
2868.75,859.939
2870.2,906.165
2871.65,957.707
2873.1,903.926
2874.55,1004.32
2876,935.902
2877.45,836.977
2878.9,904.401
2880.35,912.338
2881.8,876.894
2883.25,954.968
2884.7,972.59
2886.15,970.904
2887.6,1007.21
2889.05,961.332
2890.5,986.684
2891.95,970.924
2893.4,936.391
2894.85,967.877
2896.3,1006.35
2897.75,993.16
2899.2,960.984
2900.65,967.994
2902.1,964.418
2903.55,983.749
2905,976.827
2906.45,1003.95
2907.9,954.532
2909.35,918.358
2910.8,886.187
2912.26,942.931
2913.71,881.21
2915.16,885.79
2916.61,893.976
2918.06,905.802
2919.51,906.733
2920.96,884.419
2922.41,912.411
2923.86,907.845
2925.31,871.672
2926.76,774.291
2928.21,807.834
2929.66,797.35
2931.11,818.748
2932.56,786.479
2934.01,665.329
2935.46,746.724
2936.91,683.102
2938.36,647.139
2939.81,655.746
2941.26,678.948
2942.71,613.861
2944.16,645.645
2945.61,604.719
2947.06,606.924
2948.51,536.222
2949.96,491.284
2951.41,498.956
2952.86,488.507
2954.31,531.916
2955.77,480.346
2957.22,515.848
2958.67,427.728
2960.12,472.488
2961.57,391.772
2963.02,405.032
2964.47,411.499
2965.92,369.681
2967.37,303.171
2968.82,298.861
2970.27,382.963
2971.72,364.882
2973.17,328.381
2974.62,298.901
2976.07,252.628
2977.52,221.993
2978.97,201.734
2980.42,191.401
2981.87,143.872
2983.32,162.279
2984.77,237.004
2986.22,167.52
2987.67,113.404
2989.12,158.76
2990.57,171.898
2992.02,145.669
2993.47,89.7151
2994.92,113.324
2996.37,185.524
2997.82,77.0288
2999.27,77.4428
3000.73,239.427
3002.18,174.879
3003.63,122.166
3005.08,176.756
3006.53,140.084
3007.98,76.4468
3009.43,67.1021
3010.88,80.5066
3012.33,13.62
3013.78,53.5193
3015.23,83.828
3016.68,36.5317
3018.13,41.7931
3019.58,25.5289
3021.03,32.716
3022.48,28.8524
3023.93,-15.87
3025.38,5.17778
3026.83,83.8437
3028.28,-16.713
3029.73,1.32496
3031.18,37.8626
3032.63,96.0592
3034.08,12.5823
3035.53,20.4437
3036.98,-37.2189
3038.43,-14.4563
3039.88,30.6301
3041.33,16.1131
3042.78,-24.8092
3044.23,4.90981
3045.69,50.9415
3047.14,-46.3938
3048.59,16.7645
3050.04,35.267
3051.49,34.958
3052.94,-30.4296
3054.39,66.1591
3055.84,24.0384
3057.29,-7.12819
3058.74,4.294
3060.19,35.7058
3061.64,6.15639
3063.09,40.4965
3064.54,77.2419
3065.99,65.3317
3067.44,110.072
3068.89,62.966
3070.34,132.478
3071.79,136.549
3073.24,131.399
3074.69,18.234
3076.14,95.8143
3077.59,154.208
3079.04,126.451
3080.49,81.4594
3081.94,141.5
3083.39,189.344
3084.84,125.37
3086.29,146.999
3087.74,90.9364
3089.2,130.628
3090.65,187.511
3092.1,138.951
3093.55,215.141
3095,329.675
3096.45,229.872
3097.9,306.116
3099.35,319.353
3100.8,288.175
3102.25,274.613
3103.7,337.799
3105.15,421.116
3106.6,369.088
3108.05,396.657
3109.5,413.153
3110.95,494.9
3112.4,526.723
3113.85,492.769
3115.3,411.506
3116.75,599.306
3118.2,613.699
3119.65,581.307
3121.1,618.113
3122.55,597.317
3124,611.205
3125.45,728.809
3126.9,843.718
3128.35,772.929
3129.8,800.118
3131.25,725.321
3132.7,781.453
3134.16,878.917
3135.61,888.847
3137.06,953.866
3138.51,938.116
3139.96,801.372
3141.41,845.105
3142.86,899.899
3144.31,934.638
3145.76,904.803
3147.21,934.75
3148.66,1035.63
3150.11,1016.84
3151.56,977.204
3153.01,975.828
3154.46,943.162
3155.91,1005.96
3157.36,961.866
3158.81,1020.09
3160.26,1035.07
3161.71,1118.42
3163.16,1059.82
3164.61,1050.38
3166.06,1101.72
3167.51,960.523
3168.96,1130.43
3170.41,1120.12
3171.86,1104.05
3173.31,1032.77
3174.76,1064.58
3176.21,1123.13
3177.67,1154
3179.12,1171.18
3180.57,1266.14
3182.02,1306.06
3183.47,1264.77
3184.92,1295.65
3186.37,1323.09
3187.82,1357.08
3189.27,1325.18
3190.72,1446.85
3192.17,1428.94
3193.62,1538.08
3195.07,1615.06
3196.52,1624.06
3197.97,1620.7
3199.42,1667.11
3200.87,1700.46
3202.32,1754.21
3203.77,1735.97
3205.22,1722.63
3206.67,1689.8
3208.12,1709.81
3209.57,1707.53
3211.02,1704.78
3212.47,1561.23
3213.92,1589.45
3215.37,1534.86
3216.82,1585.06
3218.27,1502.27
3219.72,1591.87
3221.17,1487.78
3222.63,1376.49
3224.08,1314.78
3225.53,1233.28
3226.98,1124.45
3228.43,1118.06
3229.88,1054.55
3231.33,976.95
3232.78,874.807
3234.23,854.535
3235.68,794.097
3237.13,736.006
3238.58,650.083
3240.03,600.335
3241.48,511.404
3242.93,512.159
3244.38,411.188
3245.83,360.728
3247.28,318.092
3248.73,384.009
3250.18,296.83
3251.63,299.35
3253.08,288.557
3254.53,149.886
3255.98,186.404
3257.43,72.4949
3258.88,124.866
3260.33,145.598
3261.78,145.243
3263.23,112.163
3264.68,48.5777
3266.13,101.788
3267.59,-12.417
3269.04,50.3889
3270.49,63.1835
3271.94,24.7513
3273.39,-55.6313
3274.84,3.89422
3276.29,-36.5986
3277.74,-57.8696
3279.19,-10.7307
3280.64,-21.2717
3282.09,6.88099
3283.54,5.08112
3284.99,-40.391
3286.44,18.554
3287.89,39.5142
3289.34,-39.4529
3290.79,-38.7998
3292.24,-2.43054
3293.69,-26.1917
3295.14,-111.09
3296.59,22.7644
3298.04,-7.28064
3299.49,49.3009
3300.94,28.6263
3302.39,-7.37656
3303.84,-29.8657
3305.29,-28.207
3306.74,-78.9649
3308.19,-49.5992
3309.64,-30.6333
3311.09,-81.577
3312.55,-109.465
3314,-71.1207
3315.45,-121.966
3316.9,-82.2481
3318.35,-61.8152
3319.8,-17.4995
3321.25,-106.092
3322.7,-70.9468
3324.15,-43.3689
3325.6,-78.814
3327.05,-130.627
3328.5,-118.58
3329.95,-65.6888
3331.4,-57.9911
3332.85,-93.9179
3334.3,-69.7706
3335.75,-72.2068
3337.2,-10.0755
3338.65,-84.3762
3340.1,-79.2329
3341.55,-37.4816
3343,-43.1372
3344.45,-59.3902
3345.9,-81.3913
3347.35,-119.158
3348.8,-95.9314
3350.25,-22.3727
3351.7,-45.8848
3353.15,-81.796
3354.6,-99.4708
3356.06,-47.5121
3357.51,-44.8342
3358.96,-66.2576
3360.41,-24.512
3361.86,25.2596
3363.31,-32.0088
3364.76,-19.9275
3366.21,-98.8996
3367.66,-14.8032
3369.11,-0.380006
3370.56,-18.1341
3372.01,5.82757
3373.46,-54.1547
3374.91,-12.1599
3376.36,-22.5411
3377.81,-64.5018
3379.26,-18.3898
3380.71,37.4398
3382.16,-48.8156
3383.61,-26.3316
3385.06,-67.0977
3386.51,-63.9129
3387.96,-51.8449
3389.41,-139.629
3390.86,-18.4427
3392.31,22.549
3393.76,-14.3984
3395.21,-33.6704
3396.66,-101.469
3398.11,-49.466
3399.56,-15.544
3401.02,-2.98831
3402.47,11.8075
3403.92,14.6243
3405.37,-29.9992
3406.82,-60.5385
3408.27,-83.0281
3409.72,-77.4359
3411.17,-38.3763
3412.62,-33.8313
3414.07,3.2825
3415.52,-46.3126
3416.97,77.407
3418.42,26.9666
3419.87,11.5118
3421.32,96.7945
3422.77,-42.3248
3424.22,-73.872
3425.67,-7.43075
3427.12,-12.1684
3428.57,-43.8961
3430.02,26.2368
3431.47,71.6503
3432.92,15.3559
3434.37,-7.44873
3435.82,-55.4309
3437.27,17.538
3438.72,-30.0995
3440.17,19.4414
3441.62,36.6047
3443.07,-27.6516
3444.52,-22.0999
3445.98,-23.4019
3447.43,12.3722
3448.88,3.35001
3450.33,16.3372
3451.78,-12.4746
3453.23,-16.5035
3454.68,100.503
3456.13,24.0289
3457.58,14.9431
3459.03,10.9754
3460.48,26.7497
3461.93,-28.5685
3463.38,-93.3021
3464.83,-50.556
3466.28,-24.6831
3467.73,22.8602
3469.18,11.7579
3470.63,-26.1232
3472.08,-21.7096
3473.53,-29.8352
3474.98,-31.4651
3476.43,11.5489
3477.88,85.1542
3479.33,54.894
3480.78,-39.7184
3482.23,-51.0988
3483.68,-49.6541
3485.13,67.7698
3486.58,33.1239
3488.03,-17.9762
3489.49,-24.5214
3490.94,-47.883
3492.39,-21.229
3493.84,18.8366
3495.29,5.66811
3496.74,51.1101
3498.19,42.0753
3499.64,-29.1285
3501.09,-58.652
3502.54,-69.0308
3503.99,-28.9531
3505.44,21.9503
3506.89,-49.3778
3508.34,4.71873
3509.79,-20.7558
3511.24,30.8514
3512.69,81.5603
3514.14,35.4325
3515.59,-50.0935
3517.04,-9.6749
3518.49,-49.1789
3519.94,-110.162
3521.39,-75.64
3522.84,-21.8803
3524.29,-11.4783
3525.74,-13.8513
3527.19,-28.0958
3528.64,-62.2184
3530.09,-28.1177
3531.54,-36.4034
3532.99,-46.3843
3534.45,13.7271
3535.9,-20.9456
3537.35,102.815
3538.8,-29.3217
3540.25,-35.3969
3541.7,-31.8912
3543.15,-42.1924
3544.6,-47.4194
3546.05,-16.3381
3547.5,-42.4059
3548.95,-24.3823
3550.4,-59.3736
3551.85,-24.0817
3553.3,-33.1581
3554.75,-87.1559
3556.2,10.2268
3557.65,-76.1994
3559.1,-75.0124
3560.55,-5.34047
3562,-26.8295
3563.45,45.2037
3564.9,20.2427
3566.35,-60.1442
3567.8,-32.6571
3569.25,50.8401
3570.7,-24.8775
3572.15,-77.1439
3573.6,-124.851
3575.05,-35.2747
3576.5,8.65607
3577.96,20.3768
3579.41,-6.06791
3580.86,-77.3301
3582.31,-49.7139
3583.76,-75.4283
3585.21,-46.3493
3586.66,0.798237
3588.11,30.2438
3589.56,-67.9545
3591.01,-84.0456
3592.46,-73.3321
3593.91,-84.8206
3595.36,-135.368
3596.81,-135.52
3598.26,-44.939
3599.71,-94.8516
3601.16,-61.1161
3602.61,-36.8048
3604.06,-46.5387
3605.51,-45.2793
3606.96,-69.9092
3608.41,-21.8086
3609.86,-97.1566
3611.31,-59.8978
3612.76,-35.2948
3614.21,-59.0703
3615.66,-22.3602
3617.11,-59.109
3618.56,-54.5315
3620.01,-34.6081
3621.46,-14.0393
3622.92,-37.0539
3624.37,-3.36665
3625.82,55.8238
3627.27,-77.1464
3628.72,-23.1116
3630.17,-5.56455
3631.62,1.80054
3633.07,-59.3319
3634.52,-72.1554
3635.97,-74.7748
3637.42,-29.137
3638.87,-35.5549
3640.32,-6.17412
3641.77,-16.518
3643.22,-4.56197
3644.67,-57.3988
3646.12,-33.9514
3647.57,-29.855
3649.02,-56.03
3650.47,-49.7962
3651.92,-53.7442
3653.37,17.6838
3654.82,-66.5515
3656.27,-24.7292
3657.72,-24.5671
3659.17,5.61285
3660.62,-70.355
3662.07,6.54953
3663.52,-4.57282
3664.97,-36.8913
3666.43,-61.3625
3667.88,-30.227
3669.33,-48.4201
3670.78,-5.21516
3672.23,-38.1713
3673.68,13.7996
3675.13,18.973
3676.58,-43.7695
3678.03,-54.5907
3679.48,-41.349
3680.93,-11.4075
3682.38,12.9932
3683.83,32.3142
3685.28,-11.0441
3686.73,-15.5133
3688.18,-86.4451
3689.63,-68.4728
3691.08,-41.9779
3692.53,-74.8297
3693.98,13.7722
3695.43,-56.9045
3696.88,-9.26104
3698.33,-15.8682
3699.78,11.0691
3701.23,-66.2536
3702.68,84.4674
3704.13,-12.5486
3705.58,-16.9908
3707.03,-75.5778
3708.48,-12.8997
3709.93,-11.9552
3711.39,-25.6205
3712.84,-55.233
3714.29,13.0143
3715.74,-44.3062
3717.19,9.26853
3718.64,-34.1134
3720.09,-27.573
3721.54,-7.13294
3722.99,-72.1588
3724.44,-99.5757
3725.89,-33.8902
3727.34,24.8784
3728.79,-11.8291
3730.24,-16.3088
3731.69,2.77732
3733.14,-71.5156
3734.59,-56.5846
3736.04,-6.05219
3737.49,21.1367
3738.94,-43.6265
3740.39,-28.7077
3741.84,31.968
3743.29,17.203
3744.74,-15.5858
3746.19,-40.4881
3747.64,36.4399
3749.09,19.9856
3750.54,4.46697
3751.99,-12.2171
3753.44,14.6896
3754.89,4.40239
3756.35,-24.0776
3757.8,23.5196
3759.25,-15.0948
3760.7,14.7181
3762.15,92.4247
3763.6,7.76877
3765.05,25.8531
3766.5,-14.5203
3767.95,48.1341
3769.4,-10.0065
3770.85,0.76219
3772.3,81.3595
3773.75,14.1283
3775.2,-5.64166
3776.65,-0.857122
3778.1,47.518
3779.55,-15.4512
3781,-12.3583
3782.45,-17.6168
3783.9,22.1566
3785.35,45.3345
3786.8,27.1377
3788.25,38.5018
3789.7,-19.3386
3791.15,31.6069
3792.6,-74.1571
3794.05,62.845
3795.5,55.7513
3796.95,29.8842
3798.4,12.7862
3799.85,16.2139
3801.31,70.4393
3802.76,27.038
3804.21,-36.3595
3805.66,73.1709
3807.11,19.5983
3808.56,2.76502
3810.01,36.6667
3811.46,34.6184
3812.91,-4.57814
3814.36,3.72569
3815.81,85.4369
3817.26,75.8374
3818.71,41.6103
3820.16,29.1578
3821.61,36.2924
3823.06,49.7511
3824.51,61.6521
3825.96,72.0417
3827.41,38.3576
3828.86,115.429
3830.31,38.5901
3831.76,22.9363
3833.21,87.488
3834.66,42.4902
3836.11,29.9286
3837.56,-59.1982
3839.01,81.6838
3840.46,10.1046
3841.91,42.6792
3843.36,-10.1694
3844.82,0.591213
3846.27,88.9714
3847.72,135.006
3849.17,102.213
3850.62,60.3357
3852.07,61.8696
3853.52,76.2945
3854.97,39.0444
3856.42,90.8742
3857.87,18.1926
3859.32,40.7864
3860.77,72.0711
3862.22,7.3992
3863.67,46.314
3865.12,48.9447
3866.57,58.5858
3868.02,12.8022
3869.47,123.298
3870.92,29.4523
3872.37,129.151
3873.82,-18.6056
3875.27,41.1006
3876.72,48.9092
3878.17,113.596
3879.62,37.3401
3881.07,121.601
3882.52,137.353
3883.97,112.192
3885.42,41.706
3886.87,58.3203
3888.32,104.818
3889.78,65.023
3891.23,142.665
3892.68,114.286
3894.13,175.689
3895.58,217.645
3897.03,116.177
3898.48,129.658
3899.93,171.074
3901.38,132.229
3902.83,112.079
3904.28,166.132
3905.73,99.2763
3907.18,102.74
3908.63,120.926
3910.08,116.018
3911.53,68.6036
3912.98,243.649
3914.43,189.207
3915.88,198.328
3917.33,179.448
3918.78,163.113
3920.23,204.742
3921.68,192.926
3923.13,208.053
3924.58,137.27
3926.03,146.945
3927.48,199.521
3928.93,214.876
3930.38,219.61
3931.83,253.757
3933.28,172.982
3934.74,105.152
3936.19,203.529
3937.64,325.512
3939.09,264.789
3940.54,234.343
3941.99,214.447
3943.44,243.341
3944.89,226.89
3946.34,243.07
3947.79,214.752
3949.24,215.999
3950.69,275.555
3952.14,245.882
3953.59,261.581
3955.04,300.777
3956.49,235.649
3957.94,249.021
3959.39,238.678
3960.84,262.955
3962.29,213.351
3963.74,287.823
3965.19,294.353
3966.64,344.496
3968.09,324.014
3969.54,311.362
3970.99,274.269
3972.44,350.816
3973.89,313.357
3975.34,301.847
3976.79,274.857
3978.25,342.545
3979.7,368.718
3981.15,318.282
3982.6,306.631
3984.05,362.474
3985.5,393.003
3986.95,340.88
3988.4,371.946
3989.85,389.34
3991.3,386.258
3992.75,402.866
3994.2,419.84
3995.65,340.931
3997.1,388.088
3998.55,376.884
4000,394.489
