0.2,128.802
1.45033,125.846
2.90065,122.889
4.35098,119.933
5.80131,116.977
7.25163,114.021
8.70196,237.165
10.1523,148.838
11.6026,125.159
13.0529,102.695
14.5033,89.4244
15.9536,85.4957
17.4039,85.6148
18.8542,79.024
20.3046,67.967
21.7549,61.6934
23.2052,61.9799
24.6555,43.6347
26.1059,51.0279
27.5562,46.1585
29.0065,34.2595
30.4569,33.5285
31.9072,29.8021
33.3575,27.8101
34.8078,20.1893
36.2582,6.74512
37.7085,-2.37529
39.1588,9.83217
40.6091,17.8452
42.0595,17.7176
43.5098,8.98805
44.9601,-3.22169
46.4104,6.78754
47.8608,8.86878
49.3111,11.9684
50.7614,45.2924
52.2117,91.7273
53.6621,197.043
55.1124,355.945
56.5627,565.472
58.0131,832.007
59.4634,1126.63
60.9137,1329.97
62.364,1548.15
63.8144,1862.02
65.2647,1920.89
66.715,1998.76
68.1653,2061.79
69.6157,2123.4
71.066,2222.22
72.5163,2266.44
73.9666,2285.66
75.417,2284
76.8673,2284.88
78.3176,2353.12
79.7679,2400.63
81.2183,2398.83
82.6686,2412.7
84.1189,2485.73
85.5693,2512.2
87.0196,2583.94
88.4699,2520.91
89.9202,2395.01
91.3706,2357.97
92.8209,2251.93
94.2712,2147.68
95.7215,2078.53
97.1719,2016.99
98.6222,1872.88
100.073,1884.9
101.523,1843.32
102.973,1804.75
104.423,1800.08
105.874,1790.91
107.324,1781.05
108.774,1746.22
110.225,1719.6
111.675,1717.07
113.125,1611.58
114.576,1636.74
116.026,1632.19
117.476,1596.43
118.927,1577.98
120.377,1575.03
121.827,1550.01
123.278,1519.87
124.728,1479.74
126.178,1409.11
127.629,1373.37
129.079,1330.32
130.529,1298.47
131.98,1290.92
133.43,1315.98
134.88,1253.32
136.331,1221.45
137.781,1193.83
139.231,1166.13
140.682,1223.94
142.132,1231.92
143.582,1202.51
145.033,1146.54
146.483,1085.59
147.933,1091.99
149.384,1094.38
150.834,1101.7
152.284,1138.44
153.735,1217.78
155.185,1210.93
156.635,1131.06
158.086,1057.09
159.536,996.673
160.986,932.352
162.437,957.508
163.887,961.167
165.337,935.411
166.788,902.5
168.238,907.024
169.688,943.973
171.139,948.317
172.589,931.283
174.039,891.497
175.489,814.951
176.94,835.825
178.39,815.568
179.84,793.872
181.291,797.783
182.741,837.086
184.191,798.597
185.642,803.983
187.092,796.007
188.542,761.885
189.993,778.533
191.443,731.399
192.893,744.651
194.344,759.212
195.794,730.035
197.244,661.241
198.695,740.684
200.145,734.202
201.595,712.546
203.046,717.094
204.496,649.035
205.946,671.297
207.397,689.226
208.847,692.662
210.297,681.592
211.748,657.443
213.198,617.448
214.648,642.777
216.099,677.543
217.549,674.658
218.999,655.989
220.45,595.678
221.9,607.99
223.35,655.073
224.801,679.575
226.251,619.225
227.701,638.657
229.152,654.617
230.602,654.204
232.052,634.816
233.503,596.409
234.953,627.595
236.403,621.918
237.854,609.048
239.304,613.777
240.754,613.973
242.204,593.638
243.655,605.702
245.105,616.285
246.555,605.101
248.006,595.839
249.456,583.594
250.906,546.929
252.357,527.285
253.807,542.031
255.257,561.187
256.708,534.003
258.158,523.684
259.608,531.539
261.059,536.185
262.509,488.977
263.959,542.829
265.41,532.297
266.86,524.797
268.31,519.56
269.761,443.73
271.211,516.71
272.661,498.105
274.112,458.688
275.562,435.274
277.012,436.115
278.463,433.159
279.913,442.204
281.363,447.24
282.814,443.911
284.264,437.825
285.714,472.104
287.165,444.351
288.615,432.797
290.065,426.975
291.516,397.19
292.966,380.754
294.416,361.551
295.867,396.62
297.317,401.671
298.767,331.679
300.218,372.312
301.668,352.033
303.118,362.557
304.569,365.867
306.019,342.273
307.469,337.729
308.919,319.423
310.37,301.169
311.82,284.673
313.27,276.743
314.721,289.649
316.171,300.206
317.621,282.982
319.072,286.982
320.522,292.348
321.972,246.027
323.423,226.366
324.873,239.849
326.323,252.83
327.774,246.292
329.224,218.863
330.674,225.46
332.125,225.664
333.575,239.246
335.025,236.204
336.476,215.136
337.926,255.997
339.376,234.359
340.827,208.155
342.277,196.137
343.727,206.946
345.178,236.501
346.628,164.963
348.078,174.95
349.529,183.051
350.979,173.176
352.429,163.682
353.88,152.745
355.33,145.26
356.78,120.591
358.231,115
359.681,146.293
361.131,146.532
362.582,156.555
364.032,154.667
365.482,161.195
366.933,169.92
368.383,142.71
369.833,138.152
371.284,126.605
372.734,133.163
374.184,139.636
375.635,119.351
377.085,127.597
378.535,119.644
379.986,119.922
381.436,103.018
382.886,68.6093
384.336,88.8737
385.787,40.004
387.237,61.636
388.687,86.4101
390.138,82.9967
391.588,66.4626
393.038,133.236
394.489,65.7648
395.939,56.0774
397.389,84.1383
398.84,81.3732
400.29,46.3322
401.74,63.1239
403.191,89.1453
404.641,81.918
406.091,46.7112
407.542,37.8202
408.992,21.215
410.442,24.2475
411.893,45.055
413.343,51.6215
414.793,21.6544
416.244,12.2701
417.694,24.3916
419.144,7.91152
420.595,-21.2043
422.045,-34.6366
423.495,-4.34126
424.946,11.2007
426.396,6.485
427.846,-9.5785
429.297,-13.5804
430.747,6.58717
432.197,-7.49305
433.648,-17.8179
435.098,-22.7227
436.548,-27.8838
437.999,-20.538
439.449,22.5861
440.899,-26.9409
442.35,12.5033
443.8,30.2501
445.25,17.872
446.701,-0.464364
448.151,-12.148
449.601,-27.6739
451.051,17.9066
452.502,3.09767
453.952,-43.0761
455.402,8.48388
456.853,1.63654
458.303,42.4196
459.753,20.6179
461.204,4.04171
462.654,26.1932
464.104,-12.8949
465.555,3.68704
467.005,-3.85876
468.455,-11.0702
469.906,-3.9007
471.356,19.2963
472.806,38.3376
474.257,-24.1235
475.707,-15.2153
477.157,7.24079
478.608,9.76636
480.058,8.83662
481.508,0.359641
482.959,4.31237
484.409,-2.03006
485.859,-4.66762
487.31,15.2541
488.76,64.898
490.21,-26.2108
491.661,12.4073
493.111,28.767
494.561,7.08803
496.012,0.27752
497.462,38.8021
498.912,1.02773
500.363,-23.2064
501.813,-15.778
503.263,3.17156
504.714,-3.15754
506.164,-4.35565
507.614,-46.6188
509.065,-15.4515
510.515,23.203
511.965,21.4125
513.416,3.16847
514.866,17.4165
516.316,-16.7891
517.766,-14.6502
519.217,0.174051
520.667,9.39377
522.117,68.5877
523.568,1.45689
525.018,-17.6372
526.468,13.8755
527.919,20.7465
529.369,-34.1186
530.819,11.1067
532.27,20.8168
533.72,3.96285
535.17,0.834437
536.621,3.16164
538.071,-7.90479
539.521,34.0535
540.972,6.54558
542.422,6.57223
543.872,20.9956
545.323,25.3935
546.773,8.64805
548.223,28.6596
549.674,25.5959
551.124,-11.4886
552.574,-32.0364
554.025,-16.3322
555.475,13.1648
556.925,16.8573
558.376,13.9831
559.826,-8.85557
561.276,-8.8183
562.727,17.77
564.177,25.6554
565.627,7.05112
567.078,35.9801
568.528,33.7781
569.978,15.2336
571.429,12.6003
572.879,41.951
574.329,4.65036
575.78,13.1186
577.23,7.26953
578.68,-2.95786
580.131,-6.26007
581.581,-7.07856
583.031,8.83524
584.482,1.17296
585.932,-6.09292
587.382,-4.88403
588.832,12.8901
590.283,45.7257
591.733,-35.1067
593.183,-26.7243
594.634,-11.439
596.084,-5.88905
597.534,-12.8839
598.985,-26.7384
600.435,17.9365
601.885,7.18246
603.336,-25.2906
604.786,-24.9652
606.236,0.950192
607.687,-8.98557
609.137,-29.9968
610.587,-51.0106
612.038,-20.7251
613.488,1.87921
614.938,0.697611
616.389,11.147
617.839,52.618
619.289,-9.68974
620.74,-20.9917
622.19,-11.6526
623.64,0.608969
625.091,14.2122
626.541,-4.38961
627.991,-22.1862
629.442,9.73252
630.892,-6.37741
632.342,-30.8277
633.793,2.91699
635.243,5.74163
636.693,-4.50295
638.144,-2.35619
639.594,-2.05778
641.044,-1.57621
642.495,0.586931
643.945,-7.12196
645.395,15.5038
646.846,19.4035
648.296,42.8363
649.746,24.0209
651.197,-26.0834
652.647,9.68625
654.097,5.91256
655.547,-6.66713
656.998,9.67292
658.448,1.03184
659.898,-22.0747
661.349,-0.53238
662.799,8.08759
664.249,26.853
665.7,-20.5107
667.15,-38.1501
668.6,-35.6385
670.051,-49.7216
671.501,1.922
672.951,27.9278
674.402,63.3759
675.852,80.2194
677.302,50.393
678.753,11.5549
680.203,69.1247
681.653,58.7038
683.104,-0.64898
684.554,-11.2592
686.004,-0.592864
687.455,6.42277
688.905,8.53137
690.355,-9.34786
691.806,-10.6321
693.256,-17.4833
694.706,-14.124
696.157,-2.80887
697.607,14.6789
699.057,56.1037
700.508,34.0302
701.958,37.3424
703.408,18.6496
704.859,4.64148
706.309,4.26527
707.759,-8.04804
709.21,-9.34975
710.66,28.1151
712.11,17.2255
713.561,-8.50252
715.011,-8.92621
716.461,15.6091
717.912,-8.10666
719.362,-9.12103
720.812,-5.21766
722.263,-5.37498
723.713,1.19334
725.163,12.6254
726.613,10.1972
728.064,-8.2981
729.514,21.0867
730.964,6.36609
732.415,11.0423
733.865,32.2928
735.315,33.4553
736.766,6.88491
738.216,20.0545
739.666,-29.0575
741.117,-26.6254
742.567,-23.6789
744.017,-29.9493
745.468,-10.8625
746.918,-31.9204
748.368,-10.4493
749.819,-14.8754
751.269,8.58401
752.719,29.035
754.17,14.5887
755.62,-16.4103
757.07,-54.2121
758.521,-1.19634
759.971,24.7902
761.421,17.3927
762.872,13.9244
764.322,23.9374
765.772,-24.5524
767.223,3.72972
768.673,8.69573
770.123,-9.01592
771.574,-32.9697
773.024,-31.9108
774.474,2.09531
775.925,-12.3291
777.375,-37.645
778.825,-23.4237
780.276,-53.0961
781.726,-46.4741
783.176,-4.64226
784.627,-29.6885
786.077,-5.54009
787.527,-0.0203912
788.978,2.83625
790.428,-13.0835
791.878,-0.0187279
793.328,33.2597
794.779,-11.1625
796.229,-87.7526
797.68,-23.2738
799.13,-10.1505
800.58,-55.0282
802.03,-65.8599
803.481,-21.0684
804.931,-47.3468
806.381,-48.3615
807.832,-6.04924
809.282,-21.8933
810.732,-32.2598
812.183,-31.3243
813.633,-23.6497
815.083,31.5184
816.534,23.771
817.984,29.0342
819.434,-4.37247
820.885,-21.2203
822.335,-13.7813
823.785,-14.793
825.236,-45.98
826.686,-22.5595
828.136,-22.0823
829.587,22.3094
831.037,39.1649
832.487,21.7442
833.938,10.4006
835.388,24.2317
836.838,4.65913
838.289,49.8545
839.739,-17.6798
841.189,-17.0036
842.64,20.7683
844.09,-4.71141
845.54,-40.4989
846.991,64.0477
848.441,16.5292
849.891,11.4843
851.342,-2.25908
852.792,-3.96557
854.242,19.4944
855.693,16.6688
857.143,52.8539
858.593,17.4949
860.044,34.4889
861.494,28.7866
862.944,32.6038
864.394,41.4121
865.845,-10.88
867.295,5.03345
868.745,-13.9453
870.196,15.7411
871.646,1.4263
873.096,-8.87994
874.547,12.9771
875.997,13.5883
877.447,-78.9442
878.898,-10.4638
880.348,7.68229
881.798,-43.0942
883.249,-75.769
884.699,-47.5461
886.149,-3.90754
887.6,-36.2643
889.05,-21.1392
890.5,-14.5281
891.951,8.49186
893.401,-10.2617
894.851,-36.8771
896.302,-26.2176
897.752,-8.04734
899.202,-40.4902
900.653,-4.73107
902.103,-6.63041
903.553,-35.0902
905.004,-43.4146
906.454,-13.5489
907.904,23.7996
909.355,20.9217
910.805,13.0952
912.255,23.1943
913.706,22.2697
915.156,22.4308
916.606,8.00174
918.057,-8.0447
919.507,37.4413
920.957,-21.5401
922.408,-20.4712
923.858,42.1574
925.308,67.8471
926.759,32.8407
928.209,-7.19405
929.659,15.8123
931.109,70.1169
932.56,49.4696
934.01,35.6149
935.46,10.8013
936.911,23.1428
938.361,47.4066
939.811,18.7607
941.262,-58.8921
942.712,44.2303
944.162,0.15142
945.613,-52.0563
947.063,-45.3498
948.513,-13.1957
949.964,-14.6207
951.414,-41.4498
952.864,13.1499
954.315,-16.0685
955.765,25.9685
957.215,5.91696
958.666,12.6177
960.116,17.9584
961.566,-0.503879
963.017,-1.73367
964.467,8.86088
965.917,56.684
967.368,31.4822
968.818,-2.29455
970.268,-19.6003
971.719,-33.7988
973.169,-41.234
974.619,-10.3471
976.07,16.6375
977.52,1.91299
978.97,14.4887
980.421,40.7017
981.871,55.906
983.321,32.7552
984.772,-7.61523
986.222,-4.23414
987.672,-49.9083
989.123,31.9093
990.573,-5.42231
992.023,-6.43272
993.474,9.3251
994.924,26.0684
996.374,57.8267
997.825,85.8617
999.275,5.72917
1000.73,33.8504
1002.18,16.8373
1003.63,11.8763
1005.08,9.33422
1006.53,28.0951
1007.98,67.9485
1009.43,60.2986
1010.88,36.8956
1012.33,59.4192
1013.78,78.1493
1015.23,58.3944
1016.68,74.9706
1018.13,107.949
1019.58,110.611
1021.03,105.887
1022.48,27.6789
1023.93,76.6834
1025.38,83.2373
1026.83,107.452
1028.28,99.0745
1029.73,62.5138
1031.18,75.1208
1032.63,169.22
1034.08,134.489
1035.53,69.5756
1036.98,120.86
1038.43,114.791
1039.88,127.809
1041.33,136.011
1042.78,128.196
1044.23,156.76
1045.69,179.924
1047.14,69.9589
1048.59,143.407
1050.04,218.939
1051.49,154.92
1052.94,137.596
1054.39,191.244
1055.84,203.667
1057.29,250.997
1058.74,157.345
1060.19,151.066
1061.64,220.485
1063.09,217.994
1064.54,222.482
1065.99,244.094
1067.44,227.782
1068.89,194.669
1070.34,296.351
1071.79,260.654
1073.24,303.532
1074.69,291.517
1076.14,273.233
1077.59,271.951
1079.04,289.285
1080.49,311.537
1081.94,298.757
1083.39,247.39
1084.84,346.485
1086.29,361.993
1087.74,382.4
1089.2,315.779
1090.65,275.42
1092.1,326.596
1093.55,323.539
1095,281.056
1096.45,320.037
1097.9,354.966
1099.35,339.318
1100.8,352.917
1102.25,363.527
1103.7,321.423
1105.15,280.312
1106.6,338.42
1108.05,290.537
1109.5,307.83
1110.95,309.417
1112.4,272.943
1113.85,270.106
1115.3,279.586
1116.75,286.528
1118.2,304.567
1119.65,313.001
1121.1,309.546
1122.55,325.972
1124,329.33
1125.45,286.071
1126.9,248.127
1128.35,242.021
1129.8,240.988
1131.25,227.879
1132.7,244.219
1134.16,211.745
1135.61,183.657
1137.06,195.432
1138.51,229.884
1139.96,224.873
1141.41,237.851
1142.86,269.895
1144.31,248.419
1145.76,199.696
1147.21,226.533
1148.66,151.966
1150.11,238.163
1151.56,259.194
1153.01,264.478
1154.46,261.169
1155.91,234.296
1157.36,204.412
1158.81,199.629
1160.26,160.093
1161.71,281.842
1163.16,227.133
1164.61,196.615
1166.06,224.123
1167.51,234.924
1168.96,220.366
1170.41,224.212
1171.86,233.569
1173.31,191.277
1174.76,233.246
1176.21,226.995
1177.66,201.328
1179.12,251.993
1180.57,237.763
1182.02,207.761
1183.47,243.209
1184.92,280.073
1186.37,276.681
1187.82,268.63
1189.27,262.344
1190.72,252.949
1192.17,248.517
1193.62,249.161
1195.07,245.601
1196.52,254.141
1197.97,254.237
1199.42,201.972
1200.87,264.812
1202.32,269.964
1203.77,248.364
1205.22,267.16
1206.67,230.506
1208.12,241.918
1209.57,310.337
1211.02,311.57
1212.47,230.377
1213.92,276.484
1215.37,292.909
1216.82,302.484
1218.27,243.375
1219.72,337.224
1221.17,393.766
1222.63,340.635
1224.08,282.822
1225.53,294.625
1226.98,317.272
1228.43,318.432
1229.88,352.919
1231.33,327.155
1232.78,344.334
1234.23,349.599
1235.68,373.66
1237.13,319.035
1238.58,292.536
1240.03,357.165
1241.48,360.52
1242.93,331.755
1244.38,326.475
1245.83,335.199
1247.28,371.857
1248.73,406.675
1250.18,442.02
1251.63,432.573
1253.08,409.14
1254.53,421.252
1255.98,457.434
1257.43,490.12
1258.88,467.139
1260.33,451.049
1261.78,486.378
1263.23,514.643
1264.68,521.495
1266.13,498.238
1267.59,502.948
1269.04,546.426
1270.49,583.217
1271.94,622.091
1273.39,627.87
1274.84,601.952
1276.29,615.165
1277.74,627.878
1279.19,683.876
1280.64,685.004
1282.09,722.043
1283.54,801.467
1284.99,837.02
1286.44,857.544
1287.89,909.863
1289.34,906.95
1290.79,981.578
1292.24,949.024
1293.69,1012.29
1295.14,1072.94
1296.59,1069.01
1298.04,1110.23
1299.49,1241.74
1300.94,1328.04
1302.39,1316.79
1303.84,1485.91
1305.29,1511.64
1306.74,1601.89
1308.19,1725.76
1309.64,1802.27
1311.09,1845.68
1312.55,1928.84
1314,2105.09
1315.45,2309.41
1316.9,2432.37
1318.35,2509.86
1319.8,2633.84
1321.25,2670.33
1322.7,3048.63
1324.15,3105.2
1325.6,3287.1
1327.05,3448.61
1328.5,3583.36
1329.95,3699.29
1331.4,3820.16
1332.85,3950.12
1334.3,3978.46
1335.75,4126.54
1337.2,4097.81
1338.65,4012.9
1340.1,4015.22
1341.55,3881.47
1343,3906.94
1344.45,3856.44
1345.9,3679.51
1347.35,3587.54
1348.8,3577.68
1350.25,3403.53
1351.7,3170.52
1353.15,3005.63
1354.6,2788.56
1356.06,2725.56
1357.51,2537.36
1358.96,2352.02
1360.41,2235.99
1361.86,2142.25
1363.31,2032.57
1364.76,1864.81
1366.21,1671.98
1367.66,1668.85
1369.11,1577.97
1370.56,1566.17
1372.01,1393.87
1373.46,1366.46
1374.91,1268.46
1376.36,1186.1
1377.81,1162.49
1379.26,1132.33
1380.71,1065.85
1382.16,1038.9
1383.61,1072.37
1385.06,1002.86
1386.51,983.921
1387.96,966.71
1389.41,913.354
1390.86,918.991
1392.31,884.751
1393.76,879.613
1395.21,854.812
1396.66,833.627
1398.11,820.776
1399.56,775.305
1401.02,748.24
1402.47,782.157
1403.92,803.267
1405.37,816.696
1406.82,766.551
1408.27,759.149
1409.72,756
1411.17,737.111
1412.62,671.371
1414.07,675.554
1415.52,732.456
1416.97,740.912
1418.42,749.718
1419.87,779.213
1421.32,791.918
1422.77,730.31
1424.22,686.773
1425.67,721.819
1427.12,713.281
1428.57,727.731
1430.02,712.345
1431.47,741.132
1432.92,774.197
1434.37,795.208
1435.82,830.486
1437.27,793.97
1438.72,789.218
1440.17,651.869
1441.62,789.552
1443.07,807.737
1444.53,797.15
1445.98,790.77
1447.43,863.751
1448.88,923.075
1450.33,889.916
1451.78,870.469
1453.23,896.485
1454.68,886.331
1456.13,914.839
1457.58,984.872
1459.03,933.587
1460.48,957.099
1461.93,1015.46
1463.38,950.703
1464.83,983.508
1466.28,1037.99
1467.73,1021.53
1469.18,1012.25
1470.63,1043.46
1472.08,1061.42
1473.53,1092.74
1474.98,1180.52
1476.43,1183.48
1477.88,1210.89
1479.33,1328.26
1480.78,1200.52
1482.23,1342.62
1483.68,1386.62
1485.13,1402.76
1486.58,1413.12
1488.03,1369.67
1489.49,1417.18
1490.94,1529.26
1492.39,1589.57
1493.84,1624.93
1495.29,1670.4
1496.74,1782.16
1498.19,1778
1499.64,1878.18
1501.09,1837
1502.54,1930.15
1503.99,2017.7
1505.44,2128.89
1506.89,2178.77
1508.34,2279.48
1509.79,2410.79
1511.24,2544.28
1512.69,2672.24
1514.14,2774.77
1515.59,2917.66
1517.04,3117.48
1518.49,3283.09
1519.94,3596.28
1521.39,3606.26
1522.84,3901.06
1524.29,4080.83
1525.74,4464.97
1527.19,4803.67
1528.64,5142.42
1530.09,5602.51
1531.54,6076.8
1532.99,6515.15
1534.45,7111.58
1535.9,7776.01
1537.35,8236.58
1538.8,9227.96
1540.25,10182.5
1541.7,10893.1
1543.15,11999.5
1544.6,13034.4
1546.05,14276
1547.5,15398.1
1548.95,16718.3
1550.4,18106.6
1551.85,19354
1553.3,20773.5
1554.75,22362.9
1556.2,23834.9
1557.65,25272.4
1559.1,26726.9
1560.55,28089.4
1562,29494.8
1563.45,30415.2
1564.9,31403.6
1566.35,31902.9
1567.8,34387.9
1569.25,31896.2
1570.7,31580.8
1572.15,30721.4
1573.6,29723.1
1575.05,28382.2
1576.5,26614.8
1577.96,24826.4
1579.41,23146.5
1580.86,21406.7
1582.31,19779.4
1583.76,18097.9
1585.21,16530.6
1586.66,15095.4
1588.11,13815.4
1589.56,12726.9
1591.01,11551.2
1592.46,10648.8
1593.91,9903.67
1595.36,9243.41
1596.81,8583.22
1598.26,8052.8
1599.71,7556.22
1601.16,7117.16
1602.61,6717.21
1604.06,6314.27
1605.51,6016.34
1606.96,5744.39
1608.41,5446.96
1609.86,5142.54
1611.31,4876.28
1612.76,4553.89
1614.21,4206.11
1615.66,4047.25
1617.11,3689.75
1618.56,3438.14
1620.01,3247.41
1621.46,3018.27
1622.92,2779.75
1624.37,2653.99
1625.82,2479.94
1627.27,2354.68
1628.72,2226.59
1630.17,2084.11
1631.62,1965.42
1633.07,1938.7
1634.52,1815.99
1635.97,1751.82
1637.42,1705.26
1638.87,1635.56
1640.32,1562.1
1641.77,1527.33
1643.22,1468.78
1644.67,1392.36
1646.12,1327.73
1647.57,1276.54
1649.02,1244.71
1650.47,1244.42
1651.92,1176.39
1653.37,1140.26
1654.82,1065.43
1656.27,1103.58
1657.72,1054.26
1659.17,976.227
1660.62,1009.69
1662.07,977.344
1663.52,907.394
1664.97,893.368
1666.42,896.886
1667.88,869.412
1669.33,815.281
1670.78,829.212
1672.23,841.112
1673.68,803.114
1675.13,790.546
1676.58,740.004
1678.03,693.146
1679.48,708.312
1680.93,696.963
1682.38,654.118
1683.83,715.753
1685.28,639.195
1686.73,619.041
1688.18,597.117
1689.63,636.377
1691.08,616.761
1692.53,606.831
1693.98,623.239
1695.43,586.55
1696.88,530.729
1698.33,563.652
1699.78,574.262
1701.23,529.608
1702.68,512.669
1704.13,523.991
1705.58,494.083
1707.03,525.367
1708.48,551.064
1709.93,510.436
1711.39,475.709
1712.84,523.83
1714.29,451.639
1715.74,491.968
1717.19,481.449
1718.64,507.095
1720.09,493.938
1721.54,462.375
1722.99,489.755
1724.44,519.234
1725.89,512.304
1727.34,504.618
1728.79,481.248
1730.24,449.17
1731.69,454.827
1733.14,434.181
1734.59,457.068
1736.04,501.312
1737.49,436.457
1738.94,463.483
1740.39,526.063
1741.84,461.99
1743.29,381.49
1744.74,296.631
1746.19,309.574
1747.64,310.462
1749.09,378.42
1750.54,405.417
1751.99,413.928
1753.44,418.146
1754.89,404.336
1756.35,382.685
1757.8,398.628
1759.25,385.283
1760.7,292.802
1762.15,288.414
1763.6,315.573
1765.05,326.311
1766.5,275.252
1767.95,340.471
1769.4,307.154
1770.85,308.848
1772.3,305.011
1773.75,268.179
1775.2,289.055
1776.65,288.592
1778.1,321.852
1779.55,224.752
1781,255.626
1782.45,246.319
1783.9,325.998
1785.35,344.179
1786.8,293.689
1788.25,272.149
1789.7,267.881
1791.15,264.652
1792.6,261.576
1794.05,260.004
1795.5,256.358
1796.95,252.056
1798.4,288.266
1799.85,217.338
1801.31,195.089
1802.76,218.764
1804.21,223.492
1805.66,173.651
1807.11,230.199
1808.56,204.594
1810.01,147.959
1811.46,230.718
1812.91,257.045
1814.36,221.072
1815.81,162.785
1817.26,184.66
1818.71,228.034
1820.16,213.721
1821.61,180.434
1823.06,150.746
1824.51,138.295
1825.96,135.871
1827.41,152.543
1828.86,199.257
1830.31,224.37
1831.76,205.714
1833.21,187.284
1834.66,173.295
1836.11,124.349
1837.56,216.857
1839.01,231.116
1840.46,244.978
1841.91,211.153
1843.36,137.526
1844.82,222.403
1846.27,275.427
1847.72,289.66
1849.17,237.829
1850.62,255.51
1852.07,214.332
1853.52,213.584
1854.97,164.724
1856.42,185.003
1857.87,293.703
1859.32,299.282
1860.77,255.732
1862.22,225.844
1863.67,240.712
1865.12,237.549
1866.57,241.218
1868.02,225.83
1869.47,226.819
1870.92,282.199
1872.37,284.46
1873.82,268.433
1875.27,239.071
1876.72,221.853
1878.17,182.567
1879.62,206.969
1881.07,200.458
1882.52,192.785
1883.97,49.9677
1885.42,223.387
1886.87,184.51
1888.32,206.774
1889.78,126.564
1891.23,136.046
1892.68,159.552
1894.13,158.88
1895.58,198.146
1897.03,118.835
1898.48,135.837
1899.93,99.7498
1901.38,168.394
1902.83,134.771
1904.28,107.528
1905.73,94.6434
1907.18,85.1372
1908.63,60.4543
1910.08,32.3624
1911.53,110.927
1912.98,102.34
1914.43,49.5196
1915.88,85.914
1917.33,94.4865
1918.78,86.9809
1920.23,120.412
1921.68,120.061
1923.13,96.8707
1924.58,103.146
1926.03,103.449
1927.48,81.8764
1928.93,108.053
1930.38,112.375
1931.83,64.9109
1933.29,109.432
1934.74,65.8851
1936.19,101.204
1937.64,35.6143
1939.09,29.1598
1940.54,6.55816
1941.99,41.646
1943.44,53.5462
1944.89,24.42
1946.34,58.289
1947.79,32.6229
1949.24,22.8943
1950.69,42.7388
1952.14,70.5261
1953.59,36.0512
1955.04,110.931
1956.49,73.4713
1957.94,93.9047
1959.39,54.8482
1960.84,98.1491
1962.29,76.2211
1963.74,54.308
1965.19,38.1158
1966.64,82.4114
1968.09,123.063
1969.54,49.7869
1970.99,18.6844
1972.44,45.7434
1973.89,92.2796
1975.34,116.122
1976.79,128.065
1978.25,121.633
1979.7,132.979
1981.15,159.418
1982.6,134.374
1984.05,112.069
1985.5,116.385
1986.95,93.4735
1988.4,114.267
1989.85,136.388
1991.3,87.3701
1992.75,135.568
1994.2,132.988
1995.65,85.9423
1997.1,102.813
1998.55,134.631
2000,110.407
2001.45,107.41
2002.9,106.185
2004.35,68.3023
2005.8,106.033
2007.25,99.0674
2008.7,82.3402
2010.15,128.086
2011.6,150.692
2013.05,112.535
2014.5,132.035
2015.95,133.63
2017.4,72.8136
2018.85,67.2016
2020.3,30.1124
2021.75,147.43
2023.21,106.561
2024.66,47.8268
2026.11,150.373
2027.56,44.0738
2029.01,49.4083
2030.46,16.8256
2031.91,106.962
2033.36,43.5085
2034.81,80.8295
2036.26,52.0268
2037.71,2.40019
2039.16,51.607
2040.61,33.2985
2042.06,41.5921
2043.51,17.5014
2044.96,40.4843
2046.41,-18.6531
2047.86,33.9279
2049.31,20.3537
2050.76,-5.88044
2052.21,45.4729
2053.66,-68.0149
2055.11,-13.5037
2056.56,-22.171
2058.01,-7.14621
2059.46,5.53093
2060.91,-4.19974
2062.36,-12.0598
2063.81,-24.5491
2065.26,22.4958
2066.72,-17.1434
2068.17,-48.6858
2069.62,6.67672
2071.07,29.9411
2072.52,23.8682
2073.97,2.01701
2075.42,-3.84414
2076.87,-42.5151
2078.32,-51.5122
2079.77,-37.8156
2081.22,-15.1798
2082.67,15.5796
2084.12,-7.51161
2085.57,-60.7947
2087.02,-39.682
2088.47,-12.6635
2089.92,-16.6932
2091.37,-13.103
2092.82,-46.3251
2094.27,-13.9578
2095.72,47.7038
2097.17,-9.53671
2098.62,-56.4222
2100.07,-37.2831
2101.52,-30.489
2102.97,-62.7449
2104.42,-71.4806
2105.87,-19.6958
2107.32,-19.7322
2108.77,-55.0195
2110.22,-56.3144
2111.68,-44.9587
2113.13,-27.6625
2114.58,-2.2987
2116.03,-29.3706
2117.48,-49.0368
2118.93,-19.6629
2120.38,22.8442
2121.83,-7.01562
2123.28,-22.6063
2124.73,-40.9903
2126.18,-43.7841
2127.63,-14.7322
2129.08,-23.9514
2130.53,-33.3087
2131.98,-60.3214
2133.43,-66.3242
2134.88,-36.1908
2136.33,-23.6055
2137.78,-18.4974
2139.23,7.1479
2140.68,19.6745
2142.13,17.7926
2143.58,22.9237
2145.03,17.618
2146.48,16.9595
2147.93,17.0297
2149.38,14.8087
2150.83,31.4248
2152.28,28.4809
2153.73,6.41652
2155.18,-26.6923
2156.64,3.74647
2158.09,-2.0829
2159.54,6.8888
2160.99,11.184
2162.44,33.0319
2163.89,40.7493
2165.34,5.7469
2166.79,-7.39324
2168.24,66.1335
2169.69,63.4431
2171.14,63.8547
2172.59,33.7477
2174.04,26.4016
2175.49,9.67037
2176.94,38.5897
2178.39,73.296
2179.84,40.7336
2181.29,59.3563
2182.74,36.0382
2184.19,39.4084
2185.64,34.1289
2187.09,21.3172
2188.54,34.791
2189.99,42.1999
2191.44,63.4329
2192.89,35.9661
2194.34,88.9004
2195.79,119.12
2197.24,123.667
2198.69,113.656
2200.15,88.7829
2201.6,109.11
2203.05,103.866
2204.5,83.3151
2205.95,152.524
2207.4,141.707
2208.85,169.99
2210.3,119.72
2211.75,139.475
2213.2,140.287
2214.65,75.4007
2216.1,78.8596
2217.55,48.4696
2219,109.036
2220.45,58.6947
2221.9,175.609
2223.35,60.514
2224.8,208.985
2226.25,187.749
2227.7,133.771
2229.15,142.138
2230.6,188.252
2232.05,131.438
2233.5,191.243
2234.95,136.992
2236.4,251.687
2237.85,194.557
2239.3,220.04
2240.75,147.971
2242.2,110.215
2243.65,135.891
2245.11,115.411
2246.56,197.973
2248.01,154.478
2249.46,194.168
2250.91,175.971
2252.36,186.105
2253.81,200.292
2255.26,186.749
2256.71,204.457
2258.16,146.424
2259.61,138.753
2261.06,143.677
2262.51,185.685
2263.96,164.918
2265.41,164.481
2266.86,223.852
2268.31,214.127
2269.76,159.463
2271.21,190.017
2272.66,190.423
2274.11,174.882
2275.56,150.876
2277.01,172.872
2278.46,230.971
2279.91,241.135
2281.36,245.463
2282.81,218.176
2284.26,187.526
2285.71,189.94
2287.16,189.424
2288.61,196.196
2290.07,225.761
2291.52,268.132
2292.97,245.338
2294.42,273.388
2295.87,278.204
2297.32,274.508
2298.77,222.551
2300.22,243.833
2301.67,206.233
2303.12,275.992
2304.57,328.944
2306.02,280.417
2307.47,255.786
2308.92,275.086
2310.37,225.695
2311.82,326.52
2313.27,352.781
2314.72,200.146
2316.17,283.268
2317.62,301.719
2319.07,330.086
2320.52,358.936
2321.97,311.405
2323.42,324.311
2324.87,327.725
2326.32,328.813
2327.77,338.231
2329.22,355.508
2330.67,362.079
2332.12,300.947
2333.57,296.71
2335.03,349.58
2336.48,364.758
2337.93,377.757
2339.38,400.382
2340.83,400.02
2342.28,384.103
2343.73,350.442
2345.18,380.226
2346.63,450.593
2348.08,467.992
2349.53,487.153
2350.98,496.752
2352.43,509.202
2353.88,557.586
2355.33,524.765
2356.78,492.42
2358.23,464.643
2359.68,552.133
2361.13,555.848
2362.58,594.986
2364.03,596.122
2365.48,627.5
2366.93,665.097
2368.38,527.513
2369.83,549.315
2371.28,676.234
2372.73,629.277
2374.18,756.515
2375.63,723.513
2377.08,765.159
2378.54,722.409
2379.99,757.266
2381.44,754.891
2382.89,783.061
2384.34,876.865
2385.79,918.421
2387.24,861.432
2388.69,929.369
2390.14,995.615
2391.59,1001.1
2393.04,1027.99
2394.49,1050.9
2395.94,1108.34
2397.39,1150.15
2398.84,1291.75
2400.29,1275.71
2401.74,1246.21
2403.19,1331.68
2404.64,1392.03
2406.09,1303.13
2407.54,1454.18
2408.99,1474.55
2410.44,1524.62
2411.89,1586.97
2413.34,1628.74
2414.79,1548.56
2416.24,1621.7
2417.69,1675.92
2419.14,1736.19
2420.59,1809.9
2422.04,1854.74
2423.5,1802.26
2424.95,1859.56
2426.4,1906.46
2427.85,1904.74
2429.3,1882.1
2430.75,1863.65
2432.2,1806.78
2433.65,1787.24
2435.1,1870.47
2436.55,1888.68
2438,1844.73
2439.45,1798.86
2440.9,1782.65
2442.35,1876.1
2443.8,1883.4
2445.25,1705.49
2446.7,1738.84
2448.15,1776.71
2449.6,1727.09
2451.05,1736.25
2452.5,1769.9
2453.95,1736.2
2455.4,1691.96
2456.85,1630.59
2458.3,1649.64
2459.75,1600.82
2461.2,1580.35
2462.65,1600.23
2464.1,1571.95
2465.55,1564.13
2467.01,1555.43
2468.46,1544.71
2469.91,1535.82
2471.36,1507.82
2472.81,1481.1
2474.26,1533.8
2475.71,1436.02
2477.16,1389.83
2478.61,1426.28
2480.06,1415.63
2481.51,1473.81
2482.96,1437.42
2484.41,1412.23
2485.86,1370.55
2487.31,1326.37
2488.76,1428.83
2490.21,1497.09
2491.66,1452.56
2493.11,1420.36
2494.56,1429.62
2496.01,1390.15
2497.46,1414.06
2498.91,1422.96
2500.36,1473.22
2501.81,1392.48
2503.26,1444.07
2504.71,1456.05
2506.16,1423.85
2507.61,1469.51
2509.06,1489.98
2510.51,1427.98
2511.97,1449.2
2513.42,1496.47
2514.87,1441.17
2516.32,1426
2517.77,1530.94
2519.22,1505.89
2520.67,1500.04
2522.12,1548.64
2523.57,1469.09
2525.02,1539.34
2526.47,1638.61
2527.92,1650.14
2529.37,1665.51
2530.82,1749.72
2532.27,1718.87
2533.72,1812.28
2535.17,1744.96
2536.62,1787.97
2538.07,1769.24
2539.52,1839.58
2540.97,1885.14
2542.42,1881.97
2543.87,1963.52
2545.32,1926.23
2546.77,1983.8
2548.22,2014.29
2549.67,2078.81
2551.12,2122.23
2552.57,2104.72
2554.02,2185.34
2555.48,2257.77
2556.93,2362.25
2558.38,2447.14
2559.83,2393.98
2561.28,2395.16
2562.73,2567.27
2564.18,2666.31
2565.63,2667.34
2567.08,2809.96
2568.53,2713.9
2569.98,2935.5
2571.43,3018.63
2572.88,3104.83
2574.33,3277.08
2575.78,3372.38
2577.23,3472.68
2578.68,3542.2
2580.13,3567.42
2581.58,3709.12
2583.03,3849.23
2584.48,4095.84
2585.93,4186.89
2587.38,4320.94
2588.83,4496.54
2590.28,4537.23
2591.73,4856.9
2593.18,5052.28
2594.63,5101.85
2596.08,5290.23
2597.53,5522.55
2598.98,5745.05
2600.44,5975.14
2601.89,6179.91
2603.34,6476.59
2604.79,6748.97
2606.24,7012.87
2607.69,7365.57
2609.14,7730.41
2610.59,7981.92
2612.04,8360.29
2613.49,8477.67
2614.94,8922.44
2616.39,9498.42
2617.84,9796
2619.29,10221.9
2620.74,10575.7
2622.19,11093.5
2623.64,11744.7
2625.09,12096.9
2626.54,12491.9
2627.99,13166.7
2629.44,13597.9
2630.89,14181.7
2632.34,14858
2633.79,15048.7
2635.24,15689.8
2636.69,16475.2
2638.14,16929.8
2639.59,17581.5
2641.04,18149
2642.49,18630.1
2643.94,19081.7
2645.4,19526.2
2646.85,20050.1
2648.3,20545.9
2649.75,20927.9
2651.2,21504.8
2652.65,22036.8
2654.1,22360.8
2655.55,22393.4
2657,22624.4
2658.45,22728.9
2659.9,22944.3
2661.35,23097.5
2662.8,23135.8
2664.25,22860.6
2665.7,22738.2
2667.15,22703.8
2668.6,22612.8
2670.05,22196
2671.5,22029
2672.95,21600.1
2674.4,21345.1
2675.85,20981.4
2677.3,20483.3
2678.75,19667
2680.2,18948.1
2681.65,18579.6
2683.1,18023.9
2684.55,17432.5
2686,16873.2
2687.45,16236.2
2688.91,15539.1
2690.36,15051.8
2691.81,14501
2693.26,13772.4
2694.71,13495.3
2696.16,12781.5
2697.61,12353.4
2699.06,11768.9
2700.51,11290.8
2701.96,10741.9
2703.41,10282.1
2704.86,9736.96
2706.31,9208.03
2707.76,8882.61
2709.21,8370.67
2710.66,8049.46
2712.11,7597.11
2713.56,7280.1
2715.01,6816.94
2716.46,6588.43
2717.91,6320.17
2719.36,6081.79
2720.81,5743.36
2722.26,5477.27
2723.71,5320.93
2725.16,5075.86
2726.61,4804.15
2728.06,4543.44
2729.51,4454.99
2730.96,4308.63
2732.41,4110.31
2733.87,3972.48
2735.32,3764.08
2736.77,3513.77
2738.22,3521.09
2739.67,3336.29
2741.12,3214.28
2742.57,3070.97
2744.02,3011.2
2745.47,2974.23
2746.92,2755.93
2748.37,2754.55
2749.82,2635.77
2751.27,2587.44
2752.72,2424.22
2754.17,2391.15
2755.62,2283.08
2757.07,2224.78
2758.52,2259.02
2759.97,2196.69
2761.42,2121.54
2762.87,1998.85
2764.32,2029.01
2765.77,1948.04
2767.22,1955.47
2768.67,1662.71
2770.12,1756.68
2771.57,1695.47
2773.02,1620.65
2774.47,1638.77
2775.92,1593.84
2777.38,1589.14
2778.83,1595.83
2780.28,1513.3
2781.73,1500.44
2783.18,1541.84
2784.63,1366.5
2786.08,1416.86
2787.53,1403.4
2788.98,1260.33
2790.43,1235.53
2791.88,1304.06
2793.33,1244.93
2794.78,1236.02
2796.23,1190.42
2797.68,1168.33
2799.13,1215.41
2800.58,1178.02
2802.03,1080.19
2803.48,1147.6
2804.93,1073.35
2806.38,1029.9
2807.83,1065.2
2809.28,1031.9
2810.73,993.261
2812.18,1025.56
2813.63,961.993
2815.08,995.997
2816.53,989.149
2817.98,949.189
2819.43,875.823
2820.88,916.762
2822.33,907.846
2823.79,859.384
2825.24,852.418
2826.69,919.014
2828.14,936.488
2829.59,861.809
2831.04,889.673
2832.49,840.341
2833.94,792.712
2835.39,769.987
2836.84,800.291
2838.29,823.56
2839.74,810.689
2841.19,697.191
2842.64,761.723
2844.09,732.437
2845.54,750.815
2846.99,720.435
2848.44,749.907
2849.89,702.093
2851.34,677.166
2852.79,742.705
2854.24,808.008
2855.69,759.294
2857.14,732.28
2858.59,808.708
2860.04,739.788
2861.49,735.11
2862.94,684.257
2864.39,697.187
2865.84,706.967
2867.3,708.614
2868.75,690.048
2870.2,727.142
2871.65,768.501
2873.1,725.345
2874.55,805.901
2876,751.003
2877.45,671.623
2878.9,725.726
2880.35,732.095
2881.8,703.653
2883.25,766.303
2884.7,780.443
2886.15,779.091
2887.6,808.224
2889.05,771.41
2890.5,791.753
2891.95,779.107
2893.4,751.397
2894.85,776.662
2896.3,807.536
2897.75,796.95
2899.2,771.131
2900.65,776.756
2902.1,773.886
2903.55,789.398
2905,783.844
2906.45,805.61
2907.9,765.953
2909.35,736.926
2910.8,711.111
2912.26,756.645
2913.71,707.117
2915.16,710.792
2916.61,717.361
2918.06,726.851
2919.51,727.598
2920.96,709.692
2922.41,732.154
2923.86,728.49
2925.31,699.463
2926.76,621.321
2928.21,648.237
2929.66,639.824
2931.11,656.995
2932.56,631.101
2934.01,533.885
2935.46,599.2
2936.91,548.147
2938.36,519.289
2939.81,526.196
2941.26,544.814
2942.71,492.585
2944.16,518.09
2945.61,485.25
2947.06,487.019
2948.51,430.285
2949.96,394.225
2951.41,400.382
2952.86,391.997
2954.31,426.83
2955.77,385.448
2957.22,413.936
2958.67,343.225
2960.12,379.142
2961.57,314.373
2963.02,325.013
2964.47,330.203
2965.92,296.646
2967.37,243.276
2968.82,239.818
2970.27,307.304
2971.72,292.795
2973.17,263.506
2974.62,239.85
2976.07,202.718
2977.52,178.136
2978.97,161.879
2980.42,153.588
2981.87,115.449
2983.32,130.219
2984.77,190.181
2986.22,134.424
2987.67,91
2989.12,127.395
2990.57,137.937
2992.02,116.89
2993.47,71.9908
2994.92,90.9352
2996.37,148.872
2997.82,61.8109
2999.27,62.1431
3000.73,192.126
3002.18,140.329
3003.63,98.0304
3005.08,141.836
3006.53,112.409
3007.98,61.3439
3009.43,53.8453
3010.88,64.6016
3012.33,10.9292
3013.78,42.946
3015.23,67.2669
3016.68,29.3145
3018.13,33.5364
3019.58,20.4853
3021.03,26.2526
3022.48,23.1523
3023.93,-12.7347
3025.38,4.15485
3026.83,67.2794
3028.28,-13.4112
3029.73,1.0632
3031.18,30.3824
3032.63,77.0816
3034.08,10.0965
3035.53,16.4048
3036.98,-29.8659
3038.43,-11.6003
3039.88,24.5788
3041.33,12.9297
3042.78,-19.9078
3044.23,3.93982
3045.69,40.8774
3047.14,-37.2282
3048.59,13.4525
3050.04,28.2996
3051.49,28.0516
3052.94,-24.4179
3054.39,53.0886
3055.84,19.2894
3057.29,-5.71993
3058.74,3.44567
3060.19,28.6517
3061.64,4.94012
3063.09,32.496
3064.54,61.9819
3065.99,52.4246
3067.44,88.3261
3068.89,50.5263
3070.34,106.305
3071.79,109.572
3073.24,105.44
3074.69,14.6316
3076.14,76.8851
3077.59,123.742
3079.04,101.469
3080.49,65.3662
3081.94,113.545
3083.39,151.937
3084.84,100.602
3086.29,117.957
3087.74,72.9709
3089.2,104.821
3090.65,150.466
3092.1,111.5
3093.55,172.637
3095,264.544
3096.45,184.458
3097.9,245.639
3099.35,256.262
3100.8,231.243
3102.25,220.36
3103.7,271.063
3105.15,337.919
3106.6,296.17
3108.05,318.293
3109.5,331.53
3110.95,397.127
3112.4,422.663
3113.85,395.417
3115.3,330.208
3116.75,480.906
3118.2,492.456
3119.65,466.463
3121.1,495.997
3122.55,479.31
3124,490.455
3125.45,584.824
3126.9,677.032
3128.35,620.228
3129.8,642.045
3131.25,582.026
3132.7,627.068
3134.16,705.277
3135.61,713.245
3137.06,765.419
3138.51,752.78
3139.96,643.052
3141.41,678.145
3142.86,722.114
3144.31,749.989
3145.76,726.049
3147.21,750.08
3148.66,831.033
3150.11,815.949
3151.56,784.146
3153.01,783.042
3154.46,756.829
3155.91,807.218
3157.36,771.838
3158.81,818.563
3160.26,830.581
3161.71,897.464
3163.16,850.444
3164.61,842.869
3166.06,884.063
3167.51,770.761
3168.96,907.103
3170.41,898.824
3171.86,885.934
3173.31,828.737
3174.76,854.261
3176.21,901.242
3177.67,926.016
3179.12,939.802
3180.57,1016
3182.02,1048.03
3183.47,1014.9
3184.92,1039.68
3186.37,1061.7
3187.82,1088.97
3189.27,1063.38
3190.72,1161.01
3192.17,1146.64
3193.62,1234.21
3195.07,1295.99
3196.52,1303.21
3197.97,1300.51
3199.42,1337.75
3200.87,1364.51
3202.32,1407.65
3203.77,1393.01
3205.22,1382.3
3206.67,1355.96
3208.12,1372.02
3209.57,1370.19
3211.02,1367.98
3212.47,1252.79
3213.92,1275.44
3215.37,1231.63
3216.82,1271.92
3218.27,1205.48
3219.72,1277.38
3221.17,1193.85
3222.63,1104.55
3224.08,1055.03
3225.53,989.632
3226.98,902.303
3228.43,897.173
3229.88,846.211
3231.33,783.942
3232.78,701.979
3234.23,685.712
3235.68,637.214
3237.13,590.599
3238.58,521.652
3240.03,481.732
3241.48,410.37
3242.93,410.976
3244.38,329.953
3245.83,289.462
3247.28,255.249
3248.73,308.143
3250.18,238.188
3251.63,240.21
3253.08,231.549
3254.53,120.274
3255.98,149.578
3257.43,58.1727
3258.88,100.197
3260.33,116.834
3261.78,116.549
3263.23,90.0043
3264.68,38.9806
3266.13,81.6786
3267.59,-9.9639
3269.04,40.434
3270.49,50.7008
3271.94,19.8614
3273.39,-44.6407
3274.84,3.12487
3276.29,-29.3681
3277.74,-46.4368
3279.19,-8.61074
3280.64,-17.0693
3282.09,5.52157
3283.54,4.07729
3284.99,-32.4113
3286.44,14.8884
3287.89,31.7077
3289.34,-31.6585
3290.79,-31.1345
3292.24,-1.95036
3293.69,-21.0173
3295.14,-89.1426
3296.59,18.2671
3298.04,-5.84227
3299.49,39.5609
3300.94,22.9708
3302.39,-5.91924
3303.84,-23.9654
3305.29,-22.6344
3306.74,-63.3645
3308.19,-39.8003
3309.64,-24.5813
3311.09,-65.4605
3312.55,-87.839
3314,-57.07
3315.45,-97.8704
3316.9,-65.9991
3318.35,-49.6029
3319.8,-14.0422
3321.25,-85.1321
3322.7,-56.9304
3324.15,-34.8009
3325.6,-63.2434
3327.05,-104.82
3328.5,-95.1532
3329.95,-52.7112
3331.4,-46.5343
3332.85,-75.3633
3334.3,-55.9866
3335.75,-57.9415
3337.2,-8.08496
3338.65,-67.7067
3340.1,-63.5795
3341.55,-30.0767
3343,-34.6149
3344.45,-47.657
3345.9,-65.3115
3347.35,-95.6171
3348.8,-76.979
3350.25,-17.9527
3351.7,-36.8197
3353.15,-65.6362
3354.6,-79.8192
3356.06,-38.1255
3357.51,-35.9767
3358.96,-53.1676
3360.41,-19.6694
3361.86,20.2693
3363.31,-25.6851
3364.76,-15.9906
3366.21,-79.3608
3367.66,-11.8787
3369.11,-0.304932
3370.56,-14.5515
3372.01,4.67627
3373.46,-43.4559
3374.91,-9.75756
3376.36,-18.0878
3377.81,-51.7587
3379.26,-14.7566
3380.71,30.0431
3382.16,-39.1715
3383.61,-21.1295
3385.06,-53.8418
3386.51,-51.2862
3387.96,-41.6023
3389.41,-112.044
3390.86,-14.7991
3392.31,18.0942
3393.76,-11.5538
3395.21,-27.0184
3396.66,-81.4227
3398.11,-39.6934
3399.56,-12.4731
3401.02,-2.39793
3402.47,9.47475
3403.92,11.7351
3405.37,-24.0725
3406.82,-48.5784
3408.27,-66.6249
3409.72,-62.1376
3411.17,-30.7946
3412.62,-27.1476
3414.07,2.63401
3415.52,-37.163
3416.97,62.1144
3418.42,21.639
3419.87,9.23755
3421.32,77.6717
3422.77,-33.963
3424.22,-59.2777
3425.67,-5.96272
3427.12,-9.76436
3428.57,-35.2239
3430.02,21.0534
3431.47,57.495
3432.92,12.3222
3434.37,-5.97714
3435.82,-44.4799
3437.27,14.0731
3438.72,-24.153
3440.17,15.6005
3441.62,29.373
3443.07,-22.1887
3444.52,-17.7338
3445.98,-18.7786
3447.43,9.92793
3448.88,2.68817
3450.33,13.1096
3451.78,-10.0101
3453.23,-13.243
3454.68,80.6471
3456.13,19.2817
3457.58,11.9909
3459.03,8.80706
3460.48,21.465
3461.93,-22.9244
3463.38,-74.8692
3464.83,-40.5681
3466.28,-19.8067
3467.73,18.3439
3469.18,9.43501
3470.63,-20.9623
3472.08,-17.4206
3473.53,-23.9409
3474.98,-25.2488
3476.43,9.26731
3477.88,68.331
3479.33,44.049
3480.78,-31.8716
3482.23,-41.0036
3483.68,-39.8444
3485.13,54.3811
3486.58,26.5799
3488.03,-14.4248
3489.49,-19.6769
3490.94,-38.4231
3492.39,-17.0349
3493.84,15.1152
3495.29,4.54831
3496.74,41.0127
3498.19,33.7628
3499.64,-23.3739
3501.09,-47.0646
3502.54,-55.393
3503.99,-23.2331
3505.44,17.6138
3506.89,-39.6226
3508.34,3.78649
3509.79,-16.6552
3511.24,24.7563
3512.69,65.4472
3514.14,28.4324
3515.59,-40.197
3517.04,-7.76351
3518.49,-39.463
3519.94,-88.3984
3521.39,-60.6964
3522.84,-17.5576
3524.29,-9.21066
3525.74,-11.1148
3527.19,-22.5451
3528.64,-49.9264
3530.09,-22.5627
3531.54,-29.2115
3532.99,-37.2206
3534.45,11.0152
3535.9,-16.8076
3537.35,82.5026
3538.8,-23.5288
3540.25,-28.4039
3541.7,-25.5907
3543.15,-33.8568
3544.6,-38.0511
3546.05,-13.1103
3547.5,-34.0281
3548.95,-19.5653
3550.4,-47.6436
3551.85,-19.3241
3553.3,-26.6073
3554.75,-69.9372
3556.2,8.20635
3557.65,-61.1454
3559.1,-60.1929
3560.55,-4.2854
3562,-21.529
3563.45,36.2732
3564.9,16.2435
3566.35,-48.262
3567.8,-26.2053
3569.25,40.7961
3570.7,-19.9627
3572.15,-61.9033
3573.6,-100.185
3575.05,-28.3058
3576.5,6.94596
3577.96,16.3511
3579.41,-4.86913
3580.86,-62.0527
3582.31,-39.8923
3583.76,-60.5266
3585.21,-37.1924
3586.66,0.640536
3588.11,24.2688
3589.56,-54.5293
3591.01,-67.4414
3592.46,-58.8445
3593.91,-68.0633
3595.36,-108.625
3596.81,-108.747
3598.26,-36.0608
3599.71,-76.1126
3601.16,-49.0419
3602.61,-29.5336
3604.06,-37.3445
3605.51,-36.3339
3606.96,-56.0978
3608.41,-17.5
3609.86,-77.9622
3611.31,-48.0643
3612.76,-28.3219
3614.21,-47.4003
3615.66,-17.9427
3617.11,-47.4314
3618.56,-43.7581
3620.01,-27.7709
3621.46,-11.2657
3622.92,-29.7335
3624.37,-2.70153
3625.82,44.7952
3627.27,-61.9052
3628.72,-18.5456
3630.17,-4.46521
3631.62,1.44482
3633.07,-47.6102
3634.52,-57.9002
3635.97,-60.0022
3637.42,-23.3807
3638.87,-28.5306
3640.32,-4.95435
3641.77,-13.2547
3643.22,-3.6607
3644.67,-46.059
3646.12,-27.2439
3647.57,-23.9568
3649.02,-44.9607
3650.47,-39.9584
3651.92,-43.1264
3653.37,14.1902
3654.82,-53.4035
3656.27,-19.8437
3657.72,-19.7136
3659.17,4.50397
3660.62,-56.4556
3662.07,5.25559
3663.52,-3.66941
3664.97,-29.603
3666.43,-49.2397
3667.88,-24.2553
3669.33,-38.8542
3670.78,-4.18484
3672.23,-30.6302
3673.68,11.0733
3675.13,15.2246
3676.58,-35.1223
3678.03,-43.8057
3679.48,-33.18
3680.93,-9.15382
3682.38,10.4262
3683.83,25.9302
3685.28,-8.86217
3686.73,-12.4485
3688.18,-69.3668
3689.63,-54.9452
3691.08,-33.6846
3692.53,-60.0462
3693.98,11.0513
3695.43,-45.6624
3696.88,-7.43141
3698.33,-12.7333
3699.78,8.8823
3701.23,-53.1645
3702.68,67.7799
3704.13,-10.0694
3705.58,-13.6341
3707.03,-60.6465
3708.48,-10.3512
3709.93,-9.59332
3711.39,-20.5589
3712.84,-44.3211
3714.29,10.4431
3715.74,-35.553
3717.19,7.43743
3718.64,-27.3739
3720.09,-22.1256
3721.54,-5.72375
3722.99,-57.903
3724.44,-79.9033
3725.89,-27.1948
3727.34,19.9634
3728.79,-9.49209
3730.24,-13.0868
3731.69,2.22863
3733.14,-57.3868
3734.59,-45.4057
3736.04,-4.85651
3737.49,16.9609
3738.94,-35.0076
3740.39,-23.0362
3741.84,25.6523
3743.29,13.8043
3744.74,-12.5066
3746.19,-32.4892
3747.64,29.2408
3749.09,16.0372
3750.54,3.58447
3751.99,-9.80343
3753.44,11.7875
3754.89,3.53265
3756.35,-19.3208
3757.8,18.873
3759.25,-12.1126
3760.7,11.8104
3762.15,74.1651
3763.6,6.23396
3765.05,20.7455
3766.5,-11.6517
3767.95,38.6247
3769.4,-8.02961
3770.85,0.611611
3772.3,65.286
3773.75,11.3371
3775.2,-4.52708
3776.65,-0.687788
3778.1,38.1302
3779.55,-12.3986
3781,-9.91677
3782.45,-14.1364
3783.9,17.7793
3785.35,36.3782
3786.8,21.7763
3788.25,30.8953
3789.7,-15.518
3791.15,25.3626
3792.6,-59.5065
3794.05,50.4292
3795.5,44.737
3796.95,23.9802
3798.4,10.2601
3799.85,13.0107
3801.31,56.5232
3802.76,21.6963
3804.21,-29.1762
3805.66,58.7152
3807.11,15.7264
3808.56,2.21876
3810.01,29.4228
3811.46,27.7792
3812.91,-3.67367
3814.36,2.98963
3815.81,68.5578
3817.26,60.8549
3818.71,33.3897
3820.16,23.3974
3821.61,29.1224
3823.06,39.9222
3824.51,49.472
3825.96,57.809
3827.41,30.7796
3828.86,92.6244
3830.31,30.9662
3831.76,18.405
3833.21,70.2038
3834.66,34.0958
3836.11,24.0159
3837.56,-47.5029
3839.01,65.5462
3840.46,8.10831
3841.91,34.2475
3843.36,-8.16032
3844.82,0.474412
3846.27,71.3941
3847.72,108.334
3849.17,82.0194
3850.62,48.4157
3852.07,49.6465
3853.52,61.2216
3854.97,31.3307
3856.42,72.9209
3857.87,14.5984
3859.32,32.7286
3860.77,57.8326
3862.22,5.9374
3863.67,37.1641
3865.12,39.2751
3866.57,47.0115
3868.02,10.273
3869.47,98.9393
3870.92,23.6336
3872.37,103.635
3873.82,-14.9298
3875.27,32.9807
3876.72,39.2466
3878.17,91.1541
3879.62,29.9631
3881.07,97.5775
3882.52,110.218
3883.97,90.0271
3885.42,33.4665
3886.87,46.7985
3888.32,84.1096
3889.78,52.177
3891.23,114.48
3892.68,91.7076
3894.13,140.98
3895.58,174.647
3897.03,93.2246
3898.48,104.042
3899.93,137.276
3901.38,106.106
3902.83,89.9367
3904.28,133.311
3905.73,79.6632
3907.18,82.4425
3908.63,97.0354
3910.08,93.0977
3911.53,55.0502
3912.98,195.513
3914.43,151.827
3915.88,159.146
3917.33,143.996
3918.78,130.888
3920.23,164.293
3921.68,154.811
3923.13,166.95
3924.58,110.15
3926.03,117.914
3927.48,160.103
3928.93,172.425
3930.38,176.224
3931.83,203.625
3933.28,138.808
3934.74,84.3781
3936.19,163.32
3937.64,261.203
3939.09,212.477
3940.54,188.046
3941.99,172.08
3943.44,195.266
3944.89,182.065
3946.34,195.049
3947.79,172.325
3949.24,173.326
3950.69,221.116
3952.14,197.305
3953.59,209.903
3955.04,241.355
3956.49,189.094
3957.94,199.824
3959.39,191.524
3960.84,211.006
3962.29,171.201
3963.74,230.96
3965.19,236.2
3966.64,276.437
3968.09,260.002
3969.54,249.849
3970.99,220.084
3972.44,281.508
3973.89,251.449
3975.34,242.214
3976.79,220.556
3978.25,274.871
3979.7,295.873
3981.15,255.402
3982.6,246.052
3984.05,290.863
3985.5,315.361
3986.95,273.535
3988.4,298.464
3989.85,312.421
3991.3,309.948
3992.75,323.275
3994.2,336.896
3995.65,273.576
3997.1,311.417
3998.55,302.427
4000,316.553
