0.5,103.606
1.45033,101.228
2.90065,98.8502
4.35098,96.4723
5.80131,94.0944
7.25163,91.7162
8.70196,190.772
10.1523,119.723
11.6026,100.676
13.0529,82.6065
14.5033,71.9315
15.9536,68.7713
17.4039,68.8671
18.8542,63.5656
20.3046,54.6715
21.7549,49.6251
23.2052,49.8556
24.6555,35.099
26.1059,41.046
27.5562,37.1291
29.0065,27.5578
30.4569,26.9698
31.9072,23.9723
33.3575,22.37
34.8078,16.24
36.2582,5.42566
37.7085,-1.91064
39.1588,7.90883
40.6091,14.3544
42.0595,14.2518
43.5098,7.22983
44.9601,-2.59147
46.4104,5.45978
47.8608,7.1339
49.3111,9.62715
50.7614,36.4325
52.2117,73.7839
53.6621,158.498
55.1124,286.316
56.5627,454.856
58.0131,669.253
59.4634,906.24
60.9137,1069.81
62.364,1245.31
63.8144,1497.78
65.2647,1545.13
66.715,1607.77
68.1653,1658.47
69.6157,1708.03
71.066,1787.52
72.5163,1823.09
73.9666,1838.55
75.417,1837.21
76.8673,1837.92
78.3176,1892.81
79.7679,1931.03
81.2183,1929.58
82.6686,1940.73
84.1189,1999.48
85.5693,2020.77
87.0196,2078.48
88.4699,2027.77
89.9202,1926.51
91.3706,1896.71
92.8209,1811.41
94.2712,1727.56
95.7215,1671.94
97.1719,1622.43
98.6222,1506.51
100.073,1516.18
101.523,1482.73
102.973,1451.71
104.423,1447.96
105.874,1440.58
107.324,1432.64
108.774,1404.63
110.225,1383.21
111.675,1381.18
113.125,1296.33
114.576,1316.57
116.026,1312.91
117.476,1284.14
118.927,1269.3
120.377,1266.93
121.827,1246.8
123.278,1222.56
124.728,1190.28
126.178,1133.47
127.629,1104.72
129.079,1070.08
130.529,1044.47
131.98,1038.39
133.43,1058.55
134.88,1008.15
136.331,982.516
137.781,960.299
139.231,938.016
140.682,984.515
142.132,990.934
143.582,967.281
145.033,922.259
146.483,873.234
147.933,878.382
149.384,880.298
150.834,886.192
152.284,915.739
153.735,979.566
155.185,974.048
156.635,909.804
158.086,850.309
159.536,801.707
160.986,749.969
162.437,770.203
163.887,773.147
165.337,752.429
166.788,725.956
168.238,729.595
169.688,759.316
171.139,762.81
172.589,749.109
174.039,717.105
175.489,655.533
176.94,672.323
178.39,656.029
179.84,638.577
181.291,641.724
182.741,673.338
184.191,642.378
185.642,646.71
187.092,640.294
188.542,612.847
189.993,626.239
191.443,588.325
192.893,598.985
194.344,610.697
195.794,587.228
197.244,531.891
198.695,595.794
200.145,590.58
201.595,573.16
203.046,576.818
204.496,522.073
205.946,539.98
207.397,554.402
208.847,557.166
210.297,548.261
211.748,528.837
213.198,496.665
214.648,517.039
216.099,545.004
217.549,542.683
218.999,527.667
220.45,479.154
221.9,489.057
223.35,526.93
224.801,546.639
226.251,498.095
227.701,513.725
229.152,526.563
230.602,526.231
232.052,510.635
233.503,479.742
234.953,504.827
236.403,500.261
237.854,489.908
239.304,493.712
240.754,493.87
242.204,477.512
243.655,487.217
245.105,495.729
246.555,486.733
248.006,479.283
249.456,469.433
250.906,439.94
252.357,424.139
253.807,436
255.257,451.409
256.708,429.543
258.158,421.243
259.608,427.561
261.059,431.298
262.509,393.325
263.959,436.642
265.41,428.171
266.86,422.138
268.31,417.926
269.761,356.929
271.211,415.633
272.661,400.667
274.112,368.961
275.562,350.127
277.012,350.804
278.463,348.426
279.913,355.702
281.363,359.753
282.814,357.074
284.264,352.179
285.714,379.753
287.165,357.428
288.615,348.135
290.065,343.452
291.516,319.493
292.966,306.272
294.416,290.826
295.867,319.034
297.317,323.097
298.767,266.797
300.218,299.482
301.668,283.17
303.118,291.635
304.569,294.297
306.019,275.319
307.469,271.664
308.919,256.939
310.37,242.255
311.82,228.986
313.27,222.607
314.721,232.989
316.171,241.48
317.621,227.626
319.072,230.844
320.522,235.16
321.972,197.9
323.423,182.085
324.873,192.931
326.323,203.373
327.774,198.113
329.224,176.05
330.674,181.356
332.125,181.52
333.575,192.445
335.025,189.999
336.476,173.052
337.926,205.92
339.376,188.514
340.827,167.437
342.277,157.769
343.727,166.464
345.178,190.238
346.628,132.694
348.078,140.727
349.529,147.243
350.979,139.3
352.429,131.663
353.88,122.865
355.33,116.845
356.78,97.001
358.231,92.5042
359.681,117.676
361.131,117.868
362.582,125.93
364.032,124.412
365.482,129.662
366.933,136.681
368.383,114.793
369.833,111.127
371.284,101.839
372.734,107.114
374.184,112.321
375.635,96.004
377.085,102.637
378.535,96.2396
379.986,96.4634
381.436,82.8658
382.886,55.1882
384.336,71.4885
385.787,32.1785
387.237,49.5789
388.687,69.5068
390.138,66.7612
391.588,53.4614
393.038,107.173
394.489,52.9001
395.939,45.1077
397.389,67.6795
398.84,65.4552
400.29,37.2689
401.74,50.7758
403.191,71.707
404.641,65.8935
406.091,37.5737
407.542,30.4219
408.992,17.065
410.442,19.5043
411.893,36.2415
413.343,41.5235
414.793,17.4184
416.244,9.86984
417.694,19.6202
419.144,6.36389
420.595,-17.0564
422.045,-27.8611
423.495,-3.49204
424.946,9.00966
426.396,5.21643
427.846,-7.70478
429.297,-10.9238
430.747,5.29861
432.197,-6.02729
433.648,-14.3324
435.098,-18.2778
436.548,-22.4292
437.999,-16.5204
439.449,18.1679
440.899,-21.6708
442.35,10.0574
443.8,24.3326
445.25,14.3759
446.701,-0.373527
448.151,-9.77166
449.601,-22.2604
451.051,14.4038
452.502,2.49172
453.952,-34.6497
455.402,6.82429
456.853,1.31641
458.303,34.1216
459.753,16.5847
461.204,3.25109
462.654,21.0694
464.104,-10.3725
465.555,2.9658
467.005,-3.10392
468.455,-8.90471
469.906,-3.13765
471.356,15.5217
472.806,30.8381
474.257,-19.4046
475.707,-12.2389
477.157,5.82437
478.608,7.8559
480.058,7.10803
481.508,0.289289
482.959,3.4688
484.409,-1.63295
485.859,-3.75456
487.31,12.2701
488.76,52.2029
490.21,-21.0835
491.661,9.98026
493.111,23.1397
494.561,5.70149
496.012,0.223233
497.462,31.2118
498.912,0.826688
500.363,-18.6669
501.813,-12.6915
503.263,2.55115
504.714,-2.53987
506.164,-3.50361
507.614,-37.4994
509.065,-12.4289
510.515,18.6641
511.965,17.2239
513.416,2.54867
514.866,14.0096
516.316,-13.5048
517.766,-11.7844
519.217,0.140004
520.667,7.55619
522.117,55.1708
523.568,1.17189
525.018,-14.1871
526.468,11.1612
527.919,16.6881
529.369,-27.4444
530.819,8.93408
532.27,16.7447
533.72,3.18765
535.17,0.671207
536.621,2.54317
538.071,-6.35848
539.521,27.392
540.972,5.26516
542.422,5.28659
543.872,16.8885
545.323,20.4261
546.773,6.95634
548.223,23.0533
549.674,20.5889
551.124,-9.24122
552.574,-25.7695
554.025,-13.1373
555.475,10.5896
556.925,13.5598
558.376,11.2478
559.826,-7.12327
561.276,-7.09329
562.727,14.2939
564.177,20.6368
565.627,5.6718
567.078,28.9418
568.528,27.1705
569.978,12.2537
571.429,10.1355
572.879,33.7447
574.329,3.74067
575.78,10.5524
577.23,5.84749
578.68,-2.37925
580.131,-5.03549
581.581,-5.69387
583.031,7.10692
584.482,0.943509
585.932,-4.90104
587.382,-3.92863
588.832,10.3686
590.283,36.781
591.733,-28.2393
593.183,-21.4966
594.634,-9.20134
596.084,-4.73705
597.534,-10.3636
598.985,-21.5079
600.435,14.4279
601.885,5.77745
603.336,-20.3433
604.786,-20.0816
606.236,0.764318
607.687,-7.22784
609.137,-24.1289
610.587,-41.0321
612.038,-16.6709
613.488,1.51161
614.938,0.561147
616.389,8.96649
617.839,42.3251
619.289,-7.79427
620.74,-16.8853
622.19,-9.37317
623.64,0.489845
625.091,11.432
626.541,-3.53093
627.991,-17.8462
629.442,7.82867
630.892,-5.12988
632.342,-24.7973
633.793,2.34638
635.243,4.61847
636.693,-3.6221
638.144,-1.89528
639.594,-1.65524
641.044,-1.26788
642.495,0.472118
643.945,-5.72878
645.395,12.471
646.846,15.6079
648.296,34.4568
649.746,19.322
651.197,-20.981
652.647,7.79146
654.097,4.75596
655.547,-5.36293
656.998,7.78074
658.448,0.829998
659.898,-17.7565
661.349,-0.428237
662.799,6.50552
664.249,21.6001
665.7,-16.4985
667.15,-30.6873
668.6,-28.667
670.051,-39.9952
671.501,1.54602
672.951,22.4646
674.402,50.9785
675.852,64.5272
677.302,40.5353
678.753,9.29456
680.203,55.6027
681.653,47.2203
683.104,-0.522029
684.554,-9.05671
686.004,-0.476889
687.455,5.16637
688.905,6.86249
690.355,-7.51926
691.806,-8.55229
693.256,-14.0633
694.706,-11.3611
696.157,-2.25941
697.607,11.8075
699.057,45.1289
700.508,27.3733
701.958,30.0376
703.408,15.0014
704.859,3.73353
706.309,3.43091
707.759,-6.47371
709.21,-7.52078
710.66,22.6153
712.11,13.8559
713.561,-6.83928
715.011,-7.18009
716.461,12.5557
717.912,-6.52086
719.362,-7.33681
720.812,-4.197
722.263,-4.32354
723.713,0.959904
725.163,10.1556
726.613,8.2025
728.064,-6.67485
729.514,16.9618
730.964,5.12077
732.415,8.88222
733.865,25.9758
735.315,26.9109
736.766,5.53811
738.216,16.1315
739.666,-23.3734
741.117,-21.417
742.567,-19.0469
744.017,-24.0907
745.468,-8.73759
746.918,-25.6762
748.368,-8.40525
749.819,-11.9656
751.269,6.90483
752.719,23.3553
754.17,11.7349
755.62,-13.2002
757.07,-43.6073
758.521,-0.962317
759.971,19.9408
761.421,13.9904
762.872,11.2006
764.322,19.2549
765.772,-19.7496
767.223,3.00013
768.673,6.9947
770.123,-7.25225
771.574,-26.5203
773.024,-25.6685
774.474,1.68543
775.925,-9.91734
777.375,-30.281
778.825,-18.8416
780.276,-42.7096
781.726,-37.383
783.176,-3.73416
784.627,-23.881
786.077,-4.45635
787.527,-0.0164023
788.978,2.28143
790.428,-10.5241
791.878,-0.0150644
793.328,26.7535
794.779,-8.97892
796.229,-70.5867
797.68,-18.7211
799.13,-8.1649
800.58,-44.2638
802.03,-52.9766
803.481,-16.947
804.931,-38.085
806.381,-38.9011
807.832,-4.86591
809.282,-17.6106
810.732,-25.9493
812.183,-25.1967
813.633,-19.0234
815.083,25.3529
816.534,19.121
817.984,23.3546
819.434,-3.51714
820.885,-17.0693
822.335,-11.0854
823.785,-11.8992
825.236,-36.9855
826.686,-18.1465
828.136,-17.7627
829.587,17.9453
831.037,31.5036
832.487,17.4906
833.938,8.36604
835.388,19.4916
836.838,3.74773
838.289,40.1021
839.739,-14.2214
841.189,-13.6774
842.64,16.7057
844.09,-3.78978
845.54,-32.5766
846.991,51.5189
848.441,13.2958
849.891,9.23777
851.342,-1.81717
852.792,-3.18984
854.242,15.681
855.693,13.4081
857.143,42.5148
858.593,14.0726
860.044,27.7423
861.494,23.1555
862.944,26.226
864.394,33.3112
865.845,-8.75172
867.295,4.04882
868.745,-11.2174
870.196,12.6619
871.646,1.14729
873.096,-7.14288
874.547,10.4386
875.997,10.9302
877.447,-63.5014
878.898,-8.41692
880.348,6.17951
881.798,-34.6642
883.249,-60.9473
884.699,-38.2453
886.149,-3.14316
887.6,-29.1704
889.05,-17.004
890.5,-11.6862
891.951,6.83071
893.401,-8.25432
894.851,-29.6633
896.302,-21.089
897.752,-6.47314
899.202,-32.5697
900.653,-3.80559
902.103,-5.33339
903.553,-28.226
905.004,-34.922
906.454,-10.8985
907.904,19.144
909.355,16.829
910.805,10.5335
912.255,18.6571
913.706,17.9133
915.156,18.0429
916.606,6.43646
918.057,-6.47102
919.507,30.1172
920.957,-17.3265
922.408,-16.4667
923.858,33.9107
925.308,54.5751
926.759,26.4165
928.209,-5.78678
929.659,12.7192
931.109,56.4009
932.56,39.7925
934.01,28.648
935.46,8.68839
936.911,18.6157
938.361,38.1331
939.811,15.0908
941.262,-47.3718
942.712,35.5781
944.162,0.121799
945.613,-41.8732
947.063,-36.4787
948.513,-10.6144
949.964,-11.7606
951.414,-33.3415
952.864,10.5776
954.315,-12.9252
955.765,20.8886
957.215,4.7595
958.666,10.1494
960.116,14.4454
961.566,-0.405312
963.017,-1.39454
964.467,7.12754
965.917,45.5956
967.368,25.3238
968.818,-1.8457
970.268,-15.7662
971.719,-27.1872
973.169,-33.1679
974.619,-8.32301
976.07,13.3829
977.52,1.53878
978.97,11.6544
980.421,32.7398
981.871,44.9699
983.321,26.3478
984.772,-6.12556
986.222,-3.40587
987.672,-40.1454
989.123,25.6673
990.573,-4.36162
992.023,-5.17437
993.474,7.50095
994.924,20.969
996.374,46.5149
997.825,69.0657
999.275,4.60845
1000.73,27.2287
1002.18,13.5437
1003.63,9.55309
1005.08,7.50829
1006.53,22.5992
1007.98,54.6566
1009.43,48.5032
1010.88,29.6782
1012.33,47.7958
1013.78,62.862
1015.23,46.9715
1016.68,60.3051
1018.13,86.8323
1019.58,88.9734
1021.03,85.1738
1022.48,22.2645
1023.93,61.6828
1025.38,66.9547
1026.83,86.4329
1028.28,79.6939
1029.73,50.285
1031.18,60.4259
1032.63,136.118
1034.08,108.181
1035.53,55.9654
1036.98,97.2179
1038.43,92.3356
1039.88,102.807
1041.33,109.405
1042.78,103.118
1044.23,126.096
1045.69,144.728
1047.14,56.2738
1048.59,115.354
1050.04,176.111
1051.49,124.615
1052.94,110.68
1054.39,153.834
1055.84,163.826
1057.29,201.898
1058.74,126.566
1060.19,121.515
1061.64,177.354
1063.09,175.351
1064.54,178.961
1065.99,196.345
1067.44,183.224
1068.89,156.589
1070.34,238.38
1071.79,209.666
1073.24,244.156
1074.69,234.492
1076.14,219.784
1077.59,218.753
1079.04,232.696
1080.49,250.595
1081.94,240.315
1083.39,198.997
1084.84,278.707
1086.29,291.181
1087.74,307.596
1089.2,254.007
1090.65,221.543
1092.1,262.709
1093.55,260.249
1095,226.077
1096.45,257.432
1097.9,285.529
1099.35,272.942
1100.8,283.88
1102.25,292.415
1103.7,258.547
1105.15,225.478
1106.6,272.219
1108.05,233.703
1109.5,247.613
1110.95,248.889
1112.4,219.551
1113.85,217.269
1115.3,224.895
1116.75,230.478
1118.2,244.989
1119.65,251.773
1121.1,248.994
1122.55,262.207
1124,264.908
1125.45,230.111
1126.9,199.589
1128.35,194.678
1129.8,193.846
1131.25,183.302
1132.7,196.446
1134.16,170.324
1135.61,147.731
1137.06,157.202
1138.51,184.915
1139.96,180.884
1141.41,191.323
1142.86,217.099
1144.31,199.824
1145.76,160.632
1147.21,182.219
1148.66,122.239
1150.11,191.574
1151.56,208.491
1153.01,212.742
1154.46,210.08
1155.91,188.464
1157.36,164.425
1158.81,160.579
1160.26,128.776
1161.71,226.709
1163.16,182.702
1164.61,158.154
1166.06,180.281
1167.51,188.969
1168.96,177.259
1170.41,180.352
1171.86,187.879
1173.31,153.86
1174.76,187.619
1176.21,182.591
1177.66,161.945
1179.12,202.699
1180.57,191.253
1182.02,167.119
1183.47,195.634
1184.92,225.286
1186.37,222.557
1187.82,216.082
1189.27,211.025
1190.72,203.468
1192.17,199.903
1193.62,200.421
1195.07,197.557
1196.52,204.427
1197.97,204.504
1199.42,162.463
1200.87,213.01
1202.32,217.155
1203.77,199.78
1205.22,214.899
1206.67,185.415
1208.12,194.595
1209.57,249.63
1211.02,250.622
1212.47,185.312
1213.92,222.399
1215.37,235.611
1216.82,243.313
1218.27,195.766
1219.72,271.257
1221.17,316.738
1222.63,274.001
1224.08,227.498
1225.53,236.991
1226.98,255.209
1228.43,256.141
1229.88,283.882
1231.33,263.158
1232.78,276.977
1234.23,281.212
1235.68,300.566
1237.13,256.627
1238.58,235.311
1240.03,287.297
1241.48,289.996
1242.93,266.858
1244.38,262.611
1245.83,269.628
1247.28,299.116
1248.73,327.123
1250.18,355.553
1251.63,347.955
1253.08,329.105
1254.53,338.848
1255.98,367.952
1257.43,394.245
1258.88,375.759
1260.33,362.817
1261.78,391.234
1263.23,413.97
1264.68,419.482
1266.13,400.775
1267.59,404.563
1269.04,439.536
1270.49,469.13
1271.94,500.4
1273.39,505.048
1274.84,484.2
1276.29,494.828
1277.74,505.054
1279.19,550.099
1280.64,551.006
1282.09,580.799
1283.54,644.687
1284.99,673.285
1286.44,689.794
1287.89,731.878
1289.34,729.535
1290.79,789.565
1292.24,763.379
1293.69,814.267
1295.14,863.058
1296.59,859.893
1298.04,893.054
1299.49,998.833
1300.94,1068.25
1302.39,1059.2
1303.84,1195.24
1305.29,1215.94
1306.74,1288.54
1308.19,1388.17
1309.64,1449.71
1311.09,1484.64
1312.55,1551.53
1314,1693.3
1315.45,1857.65
1316.9,1956.56
1318.35,2018.89
1319.8,2118.62
1321.25,2147.97
1322.7,2452.27
1324.15,2497.77
1325.6,2644.09
1327.05,2774.01
1328.5,2882.4
1329.95,2975.65
1331.4,3072.87
1332.85,3177.41
1334.3,3200.21
1335.75,3319.32
1337.2,3296.21
1338.65,3227.91
1340.1,3229.77
1341.55,3122.19
1343,3142.68
1344.45,3102.06
1345.9,2959.74
1347.35,2885.76
1348.8,2877.82
1350.25,2737.75
1351.7,2550.31
1353.15,2417.68
1354.6,2243.07
1356.06,2192.4
1357.51,2041.01
1358.96,1891.92
1360.41,1798.59
1361.86,1723.19
1363.31,1634.96
1364.76,1500.02
1366.21,1344.91
1367.66,1342.4
1369.11,1269.29
1370.56,1259.8
1372.01,1121.2
1373.46,1099.16
1374.91,1020.33
1376.36,954.083
1377.81,935.085
1379.26,910.825
1380.71,857.354
1382.16,835.671
1383.61,862.6
1385.06,806.687
1386.51,791.449
1387.96,777.606
1389.41,734.686
1390.86,739.221
1392.31,711.679
1393.76,707.546
1395.21,687.596
1396.66,670.556
1398.11,660.219
1399.56,623.643
1401.02,601.872
1402.47,629.154
1403.92,646.135
1405.37,656.937
1406.82,616.601
1408.27,610.646
1409.72,608.114
1411.17,592.92
1412.62,540.04
1414.07,543.404
1415.52,589.176
1416.97,595.978
1418.42,603.061
1419.87,626.786
1421.32,637.006
1422.77,587.449
1424.22,552.429
1425.67,580.619
1427.12,573.751
1428.57,585.375
1430.02,572.998
1431.47,596.155
1432.92,622.751
1434.37,639.652
1435.82,668.029
1437.27,638.656
1438.72,634.833
1440.17,524.353
1441.62,635.102
1443.07,649.73
1444.53,641.215
1445.98,636.082
1447.43,694.787
1448.88,742.506
1450.33,715.834
1451.78,700.191
1453.23,721.118
1454.68,712.95
1456.13,735.882
1457.58,792.214
1459.03,750.962
1460.48,769.874
1461.93,816.819
1463.38,764.729
1464.83,791.117
1466.28,834.941
1467.73,821.701
1469.18,814.235
1470.63,839.342
1472.08,853.79
1473.53,878.986
1474.98,949.592
1476.43,951.974
1477.88,974.016
1479.33,1068.43
1480.78,965.678
1482.23,1079.98
1483.68,1115.38
1485.13,1128.36
1486.58,1136.69
1488.03,1101.74
1489.49,1139.95
1490.94,1230.11
1492.39,1278.63
1493.84,1307.07
1495.29,1343.64
1496.74,1433.54
1498.19,1430.19
1499.64,1510.78
1501.09,1477.65
1502.54,1552.58
1503.99,1623
1505.44,1712.45
1506.89,1752.56
1508.34,1833.57
1509.79,1939.2
1511.24,2046.58
1512.69,2149.51
1514.14,2231.98
1515.59,2346.91
1517.04,2507.65
1518.49,2640.86
1519.94,2892.79
1521.39,2900.82
1522.84,3137.95
1524.29,3282.55
1525.74,3591.55
1527.19,3864
1528.64,4136.47
1530.09,4506.57
1531.54,4888.07
1532.99,5240.68
1534.45,5720.44
1535.9,6254.89
1537.35,6625.37
1538.8,7422.82
1540.25,8190.61
1541.7,8762.19
1543.15,9652.19
1544.6,10484.7
1546.05,11483.3
1547.5,12386
1548.95,13447.9
1550.4,14564.6
1551.85,15568
1553.3,16709.9
1554.75,17988.4
1556.2,19172.4
1557.65,20328.7
1559.1,21498.6
1560.55,22594.6
1562,23725.1
1563.45,24465.5
1564.9,25260.5
1566.35,25662.2
1567.8,27661
1569.25,25656.7
1570.7,25403.1
1572.15,24711.8
1573.6,23908.7
1575.05,22830.2
1576.5,21408.5
1577.96,19970
1579.41,18618.7
1580.86,17219.2
1582.31,15910.2
1583.76,14557.6
1585.21,13296.9
1586.66,12142.5
1588.11,11112.9
1589.56,10237.3
1591.01,9291.59
1592.46,8565.73
1593.91,7966.35
1595.36,7435.24
1596.81,6904.2
1598.26,6477.54
1599.71,6078.1
1601.16,5724.93
1602.61,5403.21
1604.06,5079.1
1605.51,4839.44
1606.96,4620.69
1608.41,4381.44
1609.86,4136.57
1611.31,3922.4
1612.76,3663.08
1614.21,3383.32
1615.66,3255.54
1617.11,2967.97
1618.56,2765.58
1620.01,2612.16
1621.46,2427.84
1622.92,2235.99
1624.37,2134.83
1625.82,1994.82
1627.27,1894.07
1628.72,1791.03
1630.17,1676.42
1631.62,1580.95
1633.07,1559.46
1634.52,1460.75
1635.97,1409.13
1637.42,1371.69
1638.87,1315.62
1640.32,1256.53
1641.77,1228.56
1643.22,1181.46
1644.67,1119.99
1646.12,1068
1647.57,1026.83
1649.02,1001.22
1650.47,1000.99
1651.92,946.269
1653.37,917.203
1654.82,857.016
1656.27,887.701
1657.72,848.026
1659.17,785.261
1660.62,812.177
1662.07,786.159
1663.52,729.893
1664.97,718.61
1666.42,721.44
1667.88,699.34
1669.33,655.798
1670.78,667.005
1672.23,676.576
1673.68,646.011
1675.13,635.902
1676.58,595.247
1678.03,557.555
1679.48,569.754
1680.93,560.625
1682.38,526.161
1683.83,575.74
1685.28,514.158
1686.73,497.946
1688.18,480.311
1689.63,511.891
1691.08,496.112
1692.53,488.124
1693.98,501.323
1695.43,471.811
1696.88,426.909
1698.33,453.392
1699.78,461.926
1701.23,426.008
1702.68,412.383
1704.13,421.489
1705.58,397.432
1707.03,422.596
1708.48,443.267
1709.93,410.586
1711.39,382.652
1712.84,421.36
1714.29,363.291
1715.74,395.731
1717.19,387.269
1718.64,407.899
1720.09,397.315
1721.54,371.927
1722.99,393.951
1724.44,417.663
1725.89,412.089
1727.34,405.907
1728.79,387.108
1730.24,361.305
1731.69,365.855
1733.14,349.248
1734.59,367.658
1736.04,403.247
1737.49,351.079
1738.94,372.818
1740.39,423.156
1741.84,371.617
1743.29,306.864
1744.74,238.605
1746.19,249.016
1747.64,249.731
1749.09,304.395
1750.54,326.111
1751.99,332.957
1753.44,336.35
1754.89,325.241
1756.35,307.825
1757.8,320.65
1759.25,309.915
1760.7,235.525
1762.15,231.996
1763.6,253.842
1765.05,262.479
1766.5,221.408
1767.95,273.869
1769.4,247.069
1770.85,248.432
1772.3,245.346
1773.75,215.718
1775.2,232.511
1776.65,232.139
1778.1,258.892
1779.55,180.787
1781,205.621
1782.45,198.135
1783.9,262.227
1785.35,276.852
1786.8,236.239
1788.25,218.912
1789.7,215.479
1791.15,212.882
1792.6,210.407
1794.05,209.143
1795.5,206.21
1796.95,202.75
1798.4,231.877
1799.85,174.823
1801.31,156.926
1802.76,175.97
1804.21,179.773
1805.66,139.682
1807.11,185.168
1808.56,164.572
1810.01,119.016
1811.46,185.586
1812.91,206.763
1814.36,177.826
1815.81,130.941
1817.26,148.537
1818.71,183.427
1820.16,171.914
1821.61,145.138
1823.06,121.257
1824.51,111.242
1825.96,109.292
1827.41,122.703
1828.86,160.279
1830.31,180.479
1831.76,165.473
1833.21,150.648
1834.66,139.396
1836.11,100.025
1837.56,174.436
1839.01,185.906
1840.46,197.057
1841.91,169.848
1843.36,110.624
1844.82,178.898
1846.27,221.549
1847.72,232.998
1849.17,191.306
1850.62,205.528
1852.07,172.405
1853.52,171.803
1854.97,132.501
1856.42,148.813
1857.87,236.25
1859.32,240.737
1860.77,205.706
1862.22,181.665
1863.67,193.625
1865.12,191.081
1866.57,194.032
1868.02,181.654
1869.47,182.45
1870.92,226.996
1872.37,228.815
1873.82,215.923
1875.27,192.305
1876.72,178.455
1878.17,146.853
1879.62,166.483
1881.07,161.245
1882.52,155.073
1883.97,40.1932
1885.42,179.688
1886.87,148.417
1888.32,166.326
1889.78,101.806
1891.23,109.433
1892.68,128.341
1894.13,127.801
1895.58,159.386
1897.03,95.5888
1898.48,109.265
1899.93,80.2371
1901.38,135.453
1902.83,108.407
1904.28,86.4937
1905.73,76.1295
1907.18,68.4829
1908.63,48.6284
1910.08,26.0318
1911.53,89.2279
1912.98,82.3203
1914.43,39.8327
1915.88,69.1078
1917.33,76.0034
1918.78,69.966
1920.23,96.8578
1921.68,96.5751
1923.13,77.9212
1924.58,82.9685
1926.03,83.2127
1927.48,65.86
1928.93,86.9158
1930.38,90.3922
1931.83,52.2133
1933.29,88.0251
1934.74,52.9969
1936.19,81.4068
1937.64,28.6476
1939.09,23.4557
1940.54,5.27527
1941.99,33.4993
1943.44,43.0716
1944.89,19.6431
1946.34,46.8867
1947.79,26.2413
1949.24,18.4158
1950.69,34.3784
1952.14,56.73
1953.59,28.999
1955.04,89.2314
1956.49,59.0991
1957.94,75.5354
1959.39,44.1189
1960.84,78.9495
1962.29,61.311
1963.74,43.6845
1965.19,30.6597
1966.64,66.2903
1968.09,98.9897
1969.54,40.0477
1970.99,15.0294
1972.44,36.7952
1973.89,74.2282
1975.34,93.407
1976.79,103.013
1978.25,97.8393
1979.7,106.966
1981.15,128.233
1982.6,108.088
1984.05,90.1462
1985.5,93.6185
1986.95,75.1885
1988.4,91.9144
1989.85,109.708
1991.3,70.279
1992.75,109.049
1994.2,106.973
1995.65,69.1305
1997.1,82.7007
1998.55,108.295
2000,88.8093
2001.45,86.3991
2002.9,85.4132
2004.35,54.9412
2005.8,85.2908
2007.25,79.6882
2008.7,66.2331
2010.15,103.03
2011.6,121.215
2013.05,90.5209
2014.5,106.207
2015.95,107.49
2017.4,58.5701
2018.85,54.0558
2020.3,24.2219
2021.75,118.59
2023.21,85.7158
2024.66,38.4711
2026.11,120.958
2027.56,35.4522
2029.01,39.7432
2030.46,13.5342
2031.91,86.0383
2033.36,34.9975
2034.81,65.0179
2036.26,41.8495
2037.71,1.93067
2039.16,41.5118
2040.61,26.7847
2042.06,33.456
2043.51,14.0778
2044.96,32.5649
2046.41,-15.0043
2047.86,27.291
2049.31,16.3721
2050.76,-4.73013
2052.21,36.5776
2053.66,-54.7101
2055.11,-10.8621
2056.56,-17.834
2058.01,-5.74829
2059.46,4.44899
2060.91,-3.3782
2062.36,-9.70073
2063.81,-19.7469
2065.26,18.0952
2066.72,-13.7899
2068.17,-39.162
2069.62,5.37064
2071.07,24.0841
2072.52,19.1992
2073.97,1.62245
2075.42,-3.09216
2076.87,-34.1985
2078.32,-41.4356
2079.77,-30.4182
2081.22,-12.2104
2082.67,12.532
2084.12,-6.04221
2085.57,-48.9022
2087.02,-31.9195
2088.47,-10.1863
2089.92,-13.4277
2091.37,-10.5399
2092.82,-37.2632
2094.27,-11.2275
2095.72,38.3721
2097.17,-7.67117
2098.62,-45.385
2100.07,-29.9899
2101.52,-24.5248
2102.97,-50.471
2104.42,-57.4978
2105.87,-15.843
2107.32,-15.8722
2108.77,-44.2568
2110.22,-45.2984
2111.68,-36.164
2113.13,-22.2513
2114.58,-1.84904
2116.03,-23.6252
2117.48,-39.4444
2118.93,-15.8165
2120.38,18.3755
2121.83,-5.64325
2123.28,-18.1842
2124.73,-32.9719
2126.18,-35.2192
2127.63,-11.8503
2129.08,-19.2661
2130.53,-26.7929
2131.98,-48.5215
2133.43,-53.3501
2134.88,-29.1113
2136.33,-18.9879
2137.78,-14.879
2139.23,5.74965
2140.68,15.8259
2142.13,14.3121
2143.58,18.4395
2145.03,14.1716
2146.48,13.6419
2147.93,13.6984
2149.38,11.9119
2150.83,25.2776
2152.28,22.9095
2153.73,5.16134
2155.18,-21.4708
2156.64,3.0136
2158.09,-1.67545
2159.54,5.54124
2160.99,8.99619
2162.44,26.5703
2163.89,32.7781
2165.34,4.62271
2166.79,-5.947
2168.24,53.1967
2169.69,51.0326
2171.14,51.3636
2172.59,27.1461
2174.04,21.237
2175.49,7.77868
2176.94,31.0409
2178.39,58.9581
2179.84,32.7654
2181.29,47.7452
2182.74,28.9886
2184.19,31.6995
2185.64,27.4527
2187.09,17.1472
2188.54,27.9853
2189.99,33.9449
2191.44,51.0243
2192.89,28.9306
2194.34,71.51
2195.79,95.8184
2197.24,99.4757
2198.69,91.4227
2200.15,71.4155
2201.6,87.7661
2203.05,83.5485
2204.5,67.0173
2205.95,122.687
2207.4,113.987
2208.85,136.737
2210.3,96.3009
2211.75,112.191
2213.2,112.844
2214.65,60.651
2216.1,63.4334
2217.55,38.9881
2219,87.7066
2220.45,47.2131
2221.9,141.257
2223.35,48.6765
2224.8,168.104
2226.25,151.022
2227.7,107.603
2229.15,114.334
2230.6,151.427
2232.05,105.726
2233.5,153.833
2234.95,110.194
2236.4,202.453
2237.85,156.499
2239.3,176.996
2240.75,119.026
2242.2,88.6553
2243.65,109.309
2245.11,92.8346
2246.56,159.246
2248.01,124.26
2249.46,156.186
2250.91,141.548
2252.36,149.7
2253.81,161.111
2255.26,150.218
2256.71,164.462
2258.16,117.781
2259.61,111.611
2261.06,115.571
2262.51,149.362
2263.96,132.658
2265.41,132.306
2266.86,180.063
2268.31,172.24
2269.76,128.269
2271.21,152.846
2272.66,153.173
2274.11,140.673
2275.56,121.362
2277.01,139.055
2278.46,185.789
2279.91,193.965
2281.36,197.447
2282.81,175.497
2284.26,150.843
2285.71,152.785
2287.16,152.369
2288.61,157.817
2290.07,181.598
2291.52,215.681
2292.97,197.346
2294.42,219.909
2295.87,223.783
2297.32,220.81
2298.77,179.016
2300.22,196.135
2301.67,165.89
2303.12,222.003
2304.57,264.597
2306.02,225.563
2307.47,205.75
2308.92,221.275
2310.37,181.545
2311.82,262.647
2313.27,283.771
2314.72,160.994
2316.17,227.856
2317.62,242.697
2319.07,265.516
2320.52,288.722
2321.97,250.489
2323.42,260.871
2324.87,263.616
2326.32,264.492
2327.77,272.067
2329.22,285.965
2330.67,291.251
2332.12,242.077
2333.57,238.669
2335.03,281.196
2336.48,293.406
2337.93,303.862
2339.38,322.06
2340.83,321.769
2342.28,308.966
2343.73,281.89
2345.18,305.848
2346.63,362.45
2348.08,376.445
2349.53,391.857
2350.98,399.579
2352.43,409.594
2353.88,448.513
2355.33,422.112
2356.78,396.095
2358.23,373.751
2359.68,444.127
2361.13,447.115
2362.58,478.597
2364.03,479.511
2365.48,504.751
2366.93,534.993
2368.38,424.323
2369.83,441.86
2371.28,543.951
2372.73,506.18
2374.18,608.528
2375.63,581.982
2377.08,615.481
2378.54,581.094
2379.99,609.132
2381.44,607.222
2382.89,629.882
2384.34,705.336
2385.79,738.762
2387.24,692.921
2388.69,747.569
2390.14,800.857
2391.59,805.271
2393.04,826.9
2394.49,845.328
2395.94,891.533
2397.39,925.159
2398.84,1039.06
2400.29,1026.16
2401.74,1002.43
2403.19,1071.18
2404.64,1119.72
2406.09,1048.22
2407.54,1169.72
2408.99,1186.11
2410.44,1226.38
2411.89,1276.53
2413.34,1310.13
2414.79,1245.63
2416.24,1304.47
2417.69,1348.08
2419.14,1396.56
2420.59,1455.85
2422.04,1491.92
2423.5,1449.71
2424.95,1495.8
2426.4,1533.53
2427.85,1532.14
2429.3,1513.93
2430.75,1499.09
2432.2,1453.34
2433.65,1437.63
2435.1,1504.58
2436.55,1519.22
2438,1483.87
2439.45,1446.97
2440.9,1433.93
2442.35,1509.11
2443.8,1514.98
2445.25,1371.87
2446.7,1398.69
2448.15,1429.15
2449.6,1389.24
2451.05,1396.61
2452.5,1423.68
2453.95,1396.57
2455.4,1360.99
2456.85,1311.62
2458.3,1326.94
2459.75,1287.67
2461.2,1271.21
2462.65,1287.19
2464.1,1264.45
2465.55,1258.16
2467.01,1251.17
2468.46,1242.54
2469.91,1235.39
2471.36,1212.87
2472.81,1191.37
2474.26,1233.76
2475.71,1155.11
2477.16,1117.96
2478.61,1147.28
2480.06,1138.71
2481.51,1185.51
2482.96,1156.24
2484.41,1135.97
2485.86,1102.45
2487.31,1066.91
2488.76,1149.32
2490.21,1204.24
2491.66,1168.41
2493.11,1142.52
2494.56,1149.97
2496.01,1118.21
2497.46,1137.44
2498.91,1144.61
2500.36,1185.04
2501.81,1120.09
2503.26,1161.59
2504.71,1171.22
2506.16,1145.32
2507.61,1182.05
2509.06,1198.52
2510.51,1148.64
2511.97,1165.71
2513.42,1203.73
2514.87,1159.25
2516.32,1147.05
2517.77,1231.47
2519.22,1211.31
2520.67,1206.6
2522.12,1245.7
2523.57,1181.71
2525.02,1238.22
2526.47,1318.07
2527.92,1327.34
2529.37,1339.71
2530.82,1407.44
2532.27,1382.63
2533.72,1457.77
2535.17,1403.62
2536.62,1438.22
2538.07,1423.15
2539.52,1479.73
2540.97,1516.38
2542.42,1513.82
2543.87,1579.42
2545.32,1549.43
2546.77,1595.73
2548.22,1620.26
2549.67,1672.16
2551.12,1707.08
2552.57,1693
2554.02,1757.85
2555.48,1816.11
2556.93,1900.15
2558.38,1968.44
2559.83,1925.67
2561.28,1926.63
2562.73,2065.07
2564.18,2144.73
2565.63,2145.57
2567.08,2260.28
2568.53,2183.02
2569.98,2361.27
2571.43,2428.14
2572.88,2497.48
2574.33,2636.03
2575.78,2712.69
2577.23,2793.37
2578.68,2849.29
2580.13,2869.57
2581.58,2983.55
2583.03,3096.26
2584.48,3294.63
2585.93,3367.86
2587.38,3475.69
2588.83,3616.94
2590.28,3649.67
2591.73,3906.81
2593.18,4063.97
2594.63,4103.84
2596.08,4255.37
2597.53,4442.25
2598.98,4621.22
2600.44,4806.3
2601.89,4971.02
2603.34,5209.66
2604.79,5428.76
2606.24,5641.03
2607.69,5924.74
2609.14,6218.21
2610.59,6420.52
2612.04,6724.88
2613.49,6819.3
2614.94,7177.06
2616.39,7640.37
2617.84,7879.74
2619.29,8222.29
2620.74,8506.94
2622.19,8923.39
2623.64,9447.23
2625.09,9730.58
2626.54,10048.2
2627.99,10591.1
2629.44,10937.9
2630.89,11407.5
2632.34,11951.5
2633.79,12104.9
2635.24,12620.7
2636.69,13252.4
2638.14,13618
2639.59,14142.3
2641.04,14598.8
2642.49,14985.8
2643.94,15349
2645.4,15706.5
2646.85,16127.9
2648.3,16526.8
2649.75,16834.1
2651.2,17298.1
2652.65,17726
2654.1,17986.6
2655.55,18012.9
2657,18198.7
2658.45,18282.7
2659.9,18456
2661.35,18579.2
2662.8,18610.1
2664.25,18388.7
2665.7,18290.2
2667.15,18262.6
2668.6,18189.3
2670.05,17854.1
2671.5,17719.8
2672.95,17374.7
2674.4,17169.7
2675.85,16877.1
2677.3,16476.4
2678.75,15819.8
2680.2,15241.5
2681.65,14945.1
2683.1,14498.1
2684.55,14022.4
2686,13572.5
2687.45,13060.1
2688.91,12499.4
2690.36,12107.4
2691.81,11664.3
2693.26,11078.3
2694.71,10855.4
2696.16,10281.2
2697.61,9936.85
2699.06,9466.74
2700.51,9082.13
2701.96,8640.64
2703.41,8270.77
2704.86,7832.25
2706.31,7406.79
2707.76,7145.03
2709.21,6733.23
2710.66,6474.85
2712.11,6110.99
2713.56,5855.99
2715.01,5483.44
2716.46,5299.62
2717.91,5083.84
2719.36,4892.09
2720.81,4619.87
2722.26,4405.82
2723.71,4280.07
2725.16,4082.94
2726.61,3864.38
2728.06,3654.66
2729.51,3583.52
2730.96,3465.79
2732.41,3306.26
2733.87,3195.4
2735.32,3027.76
2736.77,2826.41
2738.22,2832.31
2739.67,2683.66
2741.12,2585.51
2742.57,2470.24
2744.02,2422.16
2745.47,2392.42
2746.92,2216.82
2748.37,2215.72
2749.82,2120.17
2751.27,2081.29
2752.72,1950
2754.17,1923.4
2755.62,1836.47
2757.07,1789.58
2758.52,1817.12
2759.97,1766.98
2761.42,1706.53
2762.87,1607.84
2764.32,1632.1
2765.77,1566.97
2767.22,1572.95
2768.67,1337.46
2770.12,1413.04
2771.57,1363.81
2773.02,1303.62
2774.47,1318.2
2775.92,1282.06
2777.38,1278.28
2778.83,1283.66
2780.28,1217.28
2781.73,1206.93
2783.18,1240.23
2784.63,1099.19
2786.08,1139.69
2787.53,1128.87
2788.98,1013.79
2790.43,993.84
2791.88,1048.97
2793.33,1001.4
2794.78,994.235
2796.23,957.555
2797.68,939.787
2799.13,977.653
2800.58,947.578
2802.03,868.883
2803.48,923.113
2804.93,863.384
2806.38,828.433
2807.83,856.832
2809.28,830.046
2810.73,798.962
2812.18,824.945
2813.63,773.811
2815.08,801.163
2816.53,795.655
2817.98,763.512
2819.43,704.498
2820.88,737.428
2822.33,730.256
2823.79,691.274
2825.24,685.671
2826.69,739.24
2828.14,753.295
2829.59,693.225
2831.04,715.638
2832.49,675.957
2833.94,637.645
2835.39,619.364
2836.84,643.741
2838.29,662.458
2839.74,652.105
2841.19,560.809
2842.64,612.718
2844.09,589.16
2845.54,603.943
2846.99,579.506
2848.44,603.212
2849.89,564.752
2851.34,544.701
2852.79,597.419
2854.24,649.948
2855.69,610.763
2857.14,589.034
2858.59,650.511
2860.04,595.073
2861.49,591.31
2862.94,550.405
2864.39,560.805
2865.84,568.673
2867.3,569.998
2868.75,555.063
2870.2,584.901
2871.65,618.169
2873.1,583.456
2874.55,648.253
2876,604.095
2877.45,540.242
2878.9,583.762
2880.35,588.885
2881.8,566.007
2883.25,616.402
2884.7,627.776
2886.15,626.688
2887.6,650.122
2889.05,620.509
2890.5,636.873
2891.95,626.701
2893.4,604.411
2894.85,624.734
2896.3,649.569
2897.75,641.053
2899.2,620.285
2900.65,624.81
2902.1,622.501
2903.55,634.979
2905,630.511
2906.45,648.019
2907.9,616.12
2909.35,592.771
2910.8,572.006
2912.26,608.632
2913.71,568.793
2915.16,571.75
2916.61,577.033
2918.06,584.667
2919.51,585.267
2920.96,570.864
2922.41,588.932
2923.86,585.985
2925.31,562.636
2926.76,499.78
2928.21,521.431
2929.66,514.664
2931.11,528.476
2932.56,507.647
2934.01,429.448
2935.46,481.987
2936.91,440.921
2938.36,417.708
2939.81,423.263
2941.26,438.239
2942.71,396.227
2944.16,416.743
2945.61,390.327
2947.06,391.75
2948.51,346.114
2949.96,317.108
2951.41,322.06
2952.86,315.316
2954.31,343.335
2955.77,310.048
2957.22,332.963
2958.67,276.085
2960.12,304.976
2961.57,252.877
2963.02,261.435
2964.47,265.61
2965.92,238.617
2967.37,195.687
2968.82,192.905
2970.27,247.19
2971.72,235.52
2973.17,211.96
2974.62,192.931
2976.07,163.063
2977.52,143.289
2978.97,130.213
2980.42,123.543
2981.87,92.865
2983.32,104.746
2984.77,152.978
2986.22,108.129
2987.67,73.1989
2989.12,102.475
2990.57,110.954
2992.02,94.0245
2993.47,57.9082
2994.92,73.1467
2996.37,119.75
2997.82,49.7197
2999.27,49.9869
3000.73,154.543
3002.18,112.879
3003.63,78.854
3005.08,114.091
3006.53,90.42
3007.98,49.344
3009.43,43.3123
3010.88,51.9644
3012.33,8.79125
3013.78,34.545
3015.23,54.1083
3016.68,23.5801
3018.13,26.9761
3019.58,16.4781
3021.03,21.1171
3022.48,18.6233
3023.93,-10.2436
3025.38,3.34209
3026.83,54.1185
3028.28,-10.7877
3029.73,0.855219
3031.18,24.4391
3032.63,62.0032
3034.08,8.12145
3035.53,13.1958
3036.98,-24.0236
3038.43,-9.33105
3039.88,19.7708
3041.33,10.4005
3042.78,-16.0135
3044.23,3.16912
3045.69,32.8811
3047.14,-29.9457
3048.59,10.821
3050.04,22.7637
3051.49,22.5643
3052.94,-19.6413
3054.39,42.7036
3055.84,15.516
3057.29,-4.60102
3058.74,2.77164
3060.19,23.047
3061.64,3.97375
3063.09,26.1392
3064.54,49.8572
3065.99,42.1695
3067.44,71.048
3068.89,40.6425
3070.34,85.5102
3071.79,88.1379
3073.24,84.8139
3074.69,11.7694
3076.14,61.8451
3077.59,99.5364
3079.04,81.6202
3080.49,52.5795
3081.94,91.3339
3083.39,122.216
3084.84,80.9227
3086.29,94.883
3087.74,58.6965
3089.2,84.3159
3090.65,121.032
3092.1,89.6886
3093.55,138.867
3095,212.795
3096.45,148.375
3097.9,197.588
3099.35,206.132
3100.8,186.008
3102.25,177.254
3103.7,218.038
3105.15,271.817
3106.6,238.234
3108.05,256.03
3109.5,266.677
3110.95,319.442
3112.4,339.983
3113.85,318.066
3115.3,265.614
3116.75,386.833
3118.2,396.123
3119.65,375.215
3121.1,398.972
3122.55,385.549
3124,394.514
3125.45,470.423
3126.9,544.593
3128.35,498.901
3129.8,516.451
3131.25,468.172
3132.7,504.403
3134.16,567.313
3135.61,573.723
3137.06,615.69
3138.51,605.524
3139.96,517.26
3141.41,545.488
3142.86,580.856
3144.31,603.279
3145.76,584.022
3147.21,603.352
3148.66,668.469
3150.11,656.336
3151.56,630.754
3153.01,629.866
3154.46,608.781
3155.91,649.313
3157.36,620.854
3158.81,658.439
3160.26,668.105
3161.71,721.905
3163.16,684.083
3164.61,677.99
3166.06,711.126
3167.51,619.987
3168.96,729.659
3170.41,722.999
3171.86,712.631
3173.31,666.622
3174.76,687.154
3176.21,724.944
3177.67,744.871
3179.12,755.961
3180.57,817.252
3182.02,843.02
3183.47,816.37
3184.92,836.304
3186.37,854.011
3187.82,875.953
3189.27,855.362
3190.72,933.899
3192.17,922.338
3193.62,992.78
3195.07,1042.47
3196.52,1048.28
3197.97,1046.11
3199.42,1076.06
3200.87,1097.59
3202.32,1132.29
3203.77,1120.51
3205.22,1111.9
3206.67,1090.71
3208.12,1103.63
3209.57,1102.16
3211.02,1100.38
3212.47,1007.72
3213.92,1025.94
3215.37,990.706
3216.82,1023.11
3218.27,969.665
3219.72,1027.5
3221.17,960.315
3222.63,888.478
3224.08,848.649
3225.53,796.044
3226.98,725.798
3228.43,721.671
3229.88,680.678
3231.33,630.59
3232.78,564.66
3234.23,551.575
3235.68,512.564
3237.13,475.068
3238.58,419.608
3240.03,387.497
3241.48,330.095
3242.93,330.582
3244.38,265.409
3245.83,232.838
3247.28,205.318
3248.73,247.865
3250.18,191.594
3251.63,193.221
3253.08,186.255
3254.53,96.7468
3255.98,120.318
3257.43,46.7931
3258.88,80.597
3260.33,93.979
3261.78,93.7501
3263.23,72.3979
3264.68,31.3554
3266.13,65.7009
3267.59,-8.0148
3269.04,32.5244
3270.49,40.7829
3271.94,15.9761
3273.39,-35.9082
3274.84,2.5136
3276.29,-23.6232
3277.74,-37.353
3279.19,-6.92633
3280.64,-13.7302
3282.09,4.44146
3283.54,3.2797
3284.99,-26.0711
3286.44,11.976
3287.89,25.5051
3289.34,-25.4656
3290.79,-25.0441
3292.24,-1.56883
3293.69,-16.9059
3295.14,-71.7048
3296.59,14.6937
3298.04,-4.69942
3299.49,31.8221
3300.94,18.4773
3302.39,-4.76134
3303.84,-19.2774
3305.29,-18.2067
3306.74,-50.9693
3308.19,-32.0147
3309.64,-19.7728
3311.09,-52.6554
3312.55,-70.6563
3314,-45.9062
3315.45,-78.7253
3316.9,-53.0886
3318.35,-39.8997
3319.8,-11.2954
3321.25,-68.4788
3322.7,-45.7939
3324.15,-27.9932
3325.6,-50.8719
3327.05,-84.3153
3328.5,-76.5397
3329.95,-42.4
3331.4,-37.4314
3332.85,-60.621
3334.3,-45.0347
3335.75,-46.6072
3337.2,-6.5034
3338.65,-54.4622
3340.1,-51.1423
3341.55,-24.1932
3343,-27.8437
3344.45,-38.3345
3345.9,-52.5355
3347.35,-76.9128
3348.8,-61.9206
3350.25,-14.4409
3351.7,-29.6171
3353.15,-52.7967
3354.6,-64.2052
3356.06,-30.6675
3357.51,-28.9391
3358.96,-42.7671
3360.41,-15.8217
3361.86,16.3043
3363.31,-20.6607
3364.76,-12.8626
3366.21,-63.8365
3367.66,-9.55499
3369.11,-0.245282
3370.56,-11.705
3372.01,3.76151
3373.46,-34.9552
3374.91,-7.84882
3376.36,-14.5495
3377.81,-41.6338
3379.26,-11.87
3380.71,24.1662
3382.16,-31.5089
3383.61,-16.9962
3385.06,-43.3094
3386.51,-41.2537
3387.96,-33.4642
3389.41,-90.126
3390.86,-11.9042
3392.31,14.5547
3393.76,-9.29371
3395.21,-21.7332
3396.66,-65.4951
3398.11,-31.9287
3399.56,-10.0331
3401.02,-1.92886
3402.47,7.62133
3403.92,9.43951
3405.37,-19.3635
3406.82,-39.0757
3408.27,-53.592
3409.72,-49.9824
3411.17,-24.7707
3412.62,-21.837
3414.07,2.11875
3415.52,-29.8933
3416.97,49.9638
3418.42,17.4061
3419.87,7.43053
3421.32,62.4778
3422.77,-27.3193
3424.22,-47.682
3425.67,-4.79631
3427.12,-7.85429
3428.57,-28.3336
3430.02,16.935
3431.47,46.248
3432.92,9.91177
3434.37,-4.80792
3435.82,-35.7789
3437.27,11.3202
3438.72,-19.4283
3440.17,12.5488
3441.62,23.6272
3443.07,-17.8482
3444.52,-14.2648
3445.98,-15.1052
3447.43,7.98586
3448.88,2.16232
3450.33,10.5451
3451.78,-8.05198
3453.23,-10.6525
3454.68,64.8712
3456.13,15.5099
3457.58,9.64527
3459.03,7.08425
3460.48,17.2661
3461.93,-18.44
3463.38,-60.2235
3464.83,-32.6323
3466.28,-15.9322
3467.73,14.7555
3469.18,7.58937
3470.63,-16.8617
3472.08,-14.0128
3473.53,-19.2577
3474.98,-20.3097
3476.43,7.45447
3477.88,54.9643
3479.33,35.4323
3480.78,-25.6369
3482.23,-32.9826
3483.68,-32.0501
3485.13,43.7433
3486.58,21.3804
3488.03,-11.6031
3489.49,-15.8278
3490.94,-30.9069
3492.39,-13.7026
3493.84,12.1584
3495.29,3.65859
3496.74,32.9899
3498.19,27.1582
3499.64,-18.8016
3501.09,-37.858
3502.54,-44.5572
3503.99,-18.6883
3505.44,14.1682
3506.89,-31.8718
3508.34,3.04579
3509.79,-13.3972
3511.24,19.9136
3512.69,52.6446
3514.14,22.8705
3515.59,-32.3338
3517.04,-6.24484
3518.49,-31.7434
3519.94,-71.1062
3521.39,-48.8232
3522.84,-14.123
3524.29,-7.4089
3525.74,-8.94056
3527.19,-18.1349
3528.64,-40.16
3530.09,-18.1491
3531.54,-23.4972
3532.99,-29.9396
3534.45,8.86044
3535.9,-13.5197
3537.35,66.3637
3538.8,-18.9262
3540.25,-22.8476
3541.7,-20.5847
3543.15,-27.2339
3544.6,-30.6077
3546.05,-10.5457
3547.5,-27.3716
3548.95,-15.738
3550.4,-38.3237
3551.85,-15.544
3553.3,-21.4025
3554.75,-56.2564
3556.2,6.60105
3557.65,-49.1843
3559.1,-48.4181
3560.55,-3.4471
3562,-17.3176
3563.45,29.1776
3564.9,13.066
3566.35,-38.8212
3567.8,-21.0791
3569.25,32.8157
3570.7,-16.0576
3572.15,-49.794
3573.6,-80.5872
3575.05,-22.7687
3576.5,5.58722
3577.96,13.1526
3579.41,-3.91665
3580.86,-49.9141
3582.31,-32.0887
3583.76,-48.6866
3585.21,-29.917
3586.66,0.515236
3588.11,19.5214
3589.56,-43.8625
3591.01,-54.2487
3592.46,-47.3335
3593.91,-54.749
3595.36,-87.3759
3596.81,-87.4739
3598.26,-29.0067
3599.71,-61.2237
3601.16,-39.4485
3602.61,-23.7563
3604.06,-30.0393
3605.51,-29.2264
3606.96,-45.1242
3608.41,-14.0767
3609.86,-62.7115
3611.31,-38.6621
3612.76,-22.7817
3614.21,-38.128
3615.66,-14.4328
3617.11,-38.153
3618.56,-35.1983
3620.01,-22.3384
3621.46,-9.06192
3622.92,-23.9171
3624.37,-2.17307
3625.82,36.0325
3627.27,-49.7955
3628.72,-14.9178
3630.17,-3.59174
3631.62,1.16219
3633.07,-38.2969
3634.52,-46.574
3635.97,-48.2648
3637.42,-18.807
3638.87,-22.9496
3640.32,-3.9852
3641.77,-10.6619
3643.22,-2.94461
3644.67,-37.0491
3646.12,-21.9146
3647.57,-19.2704
3649.02,-36.1656
3650.47,-32.1418
3651.92,-34.6902
3653.37,11.4143
3654.82,-42.9569
3656.27,-15.9619
3657.72,-15.8573
3659.17,3.62292
3660.62,-45.4119
3662.07,4.22751
3663.52,-2.95161
3664.97,-23.8122
3666.43,-39.6076
3667.88,-19.5106
3669.33,-31.2537
3670.78,-3.36622
3672.23,-24.6384
3673.68,8.9072
3675.13,12.2464
3676.58,-28.2518
3678.03,-35.2366
3679.48,-26.6895
3680.93,-7.36318
3682.38,8.38669
3683.83,20.8578
3685.28,-7.12858
3686.73,-10.0134
3688.18,-55.7975
3689.63,-44.197
3691.08,-27.0954
3692.53,-48.3002
3693.98,8.8895
3695.43,-36.73
3696.88,-5.9777
3698.33,-10.2424
3699.78,7.14477
3701.23,-42.7646
3702.68,54.521
3704.13,-8.0997
3705.58,-10.967
3707.03,-48.783
3708.48,-8.32636
3709.93,-7.7167
3711.39,-16.5372
3712.84,-35.6511
3714.29,8.40029
3715.74,-28.5982
3717.19,5.98254
3718.64,-22.0191
3720.09,-17.7975
3721.54,-4.60409
3722.99,-46.5762
3724.44,-64.2729
3725.89,-21.875
3727.34,16.0582
3728.79,-7.63528
3730.24,-10.5268
3731.69,1.79267
3733.14,-46.161
3734.59,-36.5236
3736.04,-3.90649
3737.49,13.6431
3738.94,-28.1595
3740.39,-18.5299
3741.84,20.6343
3743.29,11.104
3744.74,-10.0601
3746.19,-26.1338
3747.64,23.5208
3749.09,12.9001
3750.54,2.88329
3751.99,-7.88572
3753.44,9.48169
3754.89,2.84161
3756.35,-15.5413
3757.8,15.1812
3759.25,-9.7432
3760.7,9.50007
3762.15,59.6572
3763.6,5.0145
3765.05,16.6874
3766.5,-9.37241
3767.95,31.069
3769.4,-6.45888
3770.85,0.49197
3772.3,52.5149
3773.75,9.11938
3775.2,-3.64151
3776.65,-0.553245
3778.1,30.6713
3779.55,-9.97324
3781,-7.97688
3782.45,-11.3711
3783.9,14.3014
3785.35,29.262
3786.8,17.5165
3788.25,24.8517
3789.7,-12.4824
3791.15,20.4013
3792.6,-47.866
3794.05,40.5644
3795.5,35.9857
3796.95,19.2893
3798.4,8.25306
3799.85,10.4656
3801.31,45.4663
3802.76,17.4522
3804.21,-23.4689
3805.66,47.2295
3807.11,12.6501
3808.56,1.78473
3810.01,23.6672
3811.46,22.3451
3812.91,-2.95504
3814.36,2.40481
3815.81,55.1468
3817.26,48.9506
3818.71,26.8582
3820.16,18.8205
3821.61,23.4256
3823.06,32.1127
3824.51,39.7944
3825.96,46.5006
3827.41,24.7586
3828.86,74.5055
3830.31,24.9087
3831.76,14.8047
3833.21,56.4707
3834.66,27.4261
3836.11,19.318
3837.56,-38.2105
3839.01,52.7243
3840.46,6.52219
3841.91,27.5481
3843.36,-6.56402
3844.82,0.381609
3846.27,57.4282
3847.72,87.1419
3849.17,65.9751
3850.62,38.9448
3852.07,39.9348
3853.52,49.2457
3854.97,25.2019
3856.42,58.6564
3857.87,11.7427
3859.32,26.3263
3860.77,46.5196
3862.22,4.77595
3863.67,29.8942
3865.12,31.5923
3866.57,37.8153
3868.02,8.2634
3869.47,79.5851
3870.92,19.0105
3872.37,83.3625
3873.82,-12.0093
3875.27,26.5291
3876.72,31.5693
3878.17,73.3229
3879.62,24.1018
3881.07,78.4897
3882.52,88.6572
3883.97,72.4163
3885.42,26.9199
3886.87,37.6439
3888.32,67.6564
3889.78,41.9703
3891.23,92.0858
3892.68,73.7681
3894.13,113.402
3895.58,140.483
3897.03,74.9883
3898.48,83.6898
3899.93,110.423
3901.38,85.3496
3902.83,72.3436
3904.28,107.233
3905.73,64.0797
3907.18,66.3153
3908.63,78.0537
3910.08,74.8862
3911.53,44.2815
3912.98,157.268
3914.43,122.127
3915.88,128.014
3917.33,115.828
3918.78,105.284
3920.23,132.154
3921.68,124.527
3923.13,134.291
3924.58,88.6031
3926.03,94.8483
3927.48,128.785
3928.93,138.696
3930.38,141.751
3931.83,163.792
3933.28,111.655
3934.74,67.8723
3936.19,131.372
3937.64,210.108
3939.09,170.913
3940.54,151.261
3941.99,138.419
3943.44,157.069
3944.89,146.45
3946.34,156.894
3947.79,138.616
3949.24,139.421
3950.69,177.862
3952.14,158.709
3953.59,168.842
3955.04,194.142
3956.49,152.104
3957.94,160.735
3959.39,154.059
3960.84,169.729
3962.29,137.712
3963.74,185.781
3965.19,189.996
3966.64,222.361
3968.09,209.141
3969.54,200.974
3970.99,177.032
3972.44,226.44
3973.89,202.262
3975.34,194.833
3976.79,177.412
3978.25,221.102
3979.7,237.995
3981.15,205.441
3982.6,197.921
3984.05,233.965
3985.5,253.671
3986.95,220.027
3988.4,240.08
3989.85,251.306
3991.3,249.317
3992.75,260.037
3994.2,270.993
3995.65,220.06
3997.1,250.498
3998.55,243.267
4000,254.63
